PE IR                   SPECTRUM    ASCII       PEDS        1.60        
  -1
NB471~1.ASC
17/05/24
08:01:06.00
17/05/24
08:01:06.00
Admin

650.000000
4









SPECTRUM ONE,CPU32 MAIN 00.02.6000 25-JUNE-2003 12:00:00
MIR TGS
MIR
OPTKBR
68128
0.200000

4.000000
STRONG
RATIO
SPECTRUM
MAGNITUDE
UNIVERSAL ATR
DOUBLE

COMBINED


0


#HDR
-1
-1
#GR
CM-1
A
0.00000011920928955078
0.0
4000.000000
-1.000000
3351
8
0.182863
-0.002326
#DATA
4000.000000	0.004855  
3999.000000	0.004661  
3998.000000	0.004466  
3997.000000	0.004272  
3996.000000	0.004079  
3995.000000	0.003844  
3994.000000	0.003647  
3993.000000	0.003557  
3992.000000	0.003587  
3991.000000	0.003695  
3990.000000	0.003820  
3989.000000	0.003924  
3988.000000	0.003992  
3987.000000	0.004023  
3986.000000	0.004006  
3985.000000	0.003933  
3984.000000	0.003818  
3983.000000	0.003707  
3982.000000	0.003652  
3981.000000	0.003674  
3980.000000	0.003746  
3979.000000	0.003819  
3978.000000	0.003849  
3977.000000	0.003811  
3976.000000	0.003710  
3975.000000	0.003589  
3974.000000	0.003515  
3973.000000	0.003540  
3972.000000	0.003650  
3971.000000	0.003765  
3970.000000	0.003796  
3969.000000	0.003716  
3968.000000	0.003578  
3967.000000	0.003472  
3966.000000	0.003463  
3965.000000	0.003544  
3964.000000	0.003655  
3963.000000	0.003729  
3962.000000	0.003743  
3961.000000	0.003722  
3960.000000	0.003703  
3959.000000	0.003690  
3958.000000	0.003662  
3957.000000	0.003604  
3956.000000	0.003531  
3955.000000	0.003488  
3954.000000	0.003520  
3953.000000	0.003638  
3952.000000	0.003804  
3951.000000	0.003948  
3950.000000	0.004007  
3949.000000	0.003971  
3948.000000	0.003892  
3947.000000	0.003830  
3946.000000	0.003800  
3945.000000	0.003779  
3944.000000	0.003755  
3943.000000	0.003756  
3942.000000	0.003810  
3941.000000	0.003907  
3940.000000	0.003992  
3939.000000	0.004018  
3938.000000	0.003987  
3937.000000	0.003964  
3936.000000	0.004018  
3935.000000	0.004162  
3934.000000	0.004328  
3933.000000	0.004414  
3932.000000	0.004382  
3931.000000	0.004286  
3930.000000	0.004198  
3929.000000	0.004143  
3928.000000	0.004106  
3927.000000	0.004079  
3926.000000	0.004059  
3925.000000	0.004025  
3924.000000	0.003944  
3923.000000	0.003807  
3922.000000	0.003660  
3921.000000	0.003582  
3920.000000	0.003618  
3919.000000	0.003758  
3918.000000	0.003941  
3917.000000	0.004100  
3916.000000	0.004207  
3915.000000	0.004270  
3914.000000	0.004308  
3913.000000	0.004325  
3912.000000	0.004292  
3911.000000	0.004170  
3910.000000	0.003953  
3909.000000	0.003688  
3908.000000	0.003458  
3907.000000	0.003351  
3906.000000	0.003445  
3905.000000	0.003735  
3904.000000	0.004060  
3903.000000	0.004197  
3902.000000	0.004092  
3901.000000	0.003920  
3900.000000	0.003892  
3899.000000	0.004029  
3898.000000	0.004175  
3897.000000	0.004206  
3896.000000	0.004117  
3895.000000	0.003940  
3894.000000	0.003699  
3893.000000	0.003445  
3892.000000	0.003271  
3891.000000	0.003196  
3890.000000	0.003150  
3889.000000	0.003088  
3888.000000	0.003049  
3887.000000	0.003090  
3886.000000	0.003210  
3885.000000	0.003333  
3884.000000	0.003365  
3883.000000	0.003314  
3882.000000	0.003290  
3881.000000	0.003358  
3880.000000	0.003440  
3879.000000	0.003400  
3878.000000	0.003201  
3877.000000	0.002933  
3876.000000	0.002711  
3875.000000	0.002589  
3874.000000	0.002545  
3873.000000	0.002506  
3872.000000	0.002439  
3871.000000	0.002416  
3870.000000	0.002503  
3869.000000	0.002620  
3868.000000	0.002637  
3867.000000	0.002584  
3866.000000	0.002595  
3865.000000	0.002691  
3864.000000	0.002767  
3863.000000	0.002745  
3862.000000	0.002666  
3861.000000	0.002633  
3860.000000	0.002671  
3859.000000	0.002705  
3858.000000	0.002640  
3857.000000	0.002417  
3856.000000	0.002051  
3855.000000	0.001736  
3854.000000	0.001780  
3853.000000	0.002107  
3852.000000	0.002284  
3851.000000	0.002283  
3850.000000	0.002471  
3849.000000	0.002937  
3848.000000	0.003310  
3847.000000	0.003334  
3846.000000	0.003092  
3845.000000	0.002814  
3844.000000	0.002692  
3843.000000	0.002781  
3842.000000	0.002974  
3841.000000	0.003096  
3840.000000	0.003021  
3839.000000	0.002756  
3838.000000	0.002406  
3837.000000	0.002051  
3836.000000	0.001746  
3835.000000	0.001569  
3834.000000	0.001589  
3833.000000	0.001789  
3832.000000	0.002065  
3831.000000	0.002289  
3830.000000	0.002383  
3829.000000	0.002365  
3828.000000	0.002310  
3827.000000	0.002271  
3826.000000	0.002216  
3825.000000	0.002076  
3824.000000	0.001850  
3823.000000	0.001657  
3822.000000	0.001651  
3821.000000	0.001796  
3820.000000	0.001810  
3819.000000	0.001570  
3818.000000	0.001320  
3817.000000	0.001358  
3816.000000	0.001678  
3815.000000	0.002038  
3814.000000	0.002275  
3813.000000	0.002463  
3812.000000	0.002706  
3811.000000	0.002891  
3810.000000	0.002835  
3809.000000	0.002566  
3808.000000	0.002305  
3807.000000	0.002206  
3806.000000	0.002195  
3805.000000	0.002139  
3804.000000	0.002044  
3803.000000	0.001971  
3802.000000	0.001890  
3801.000000	0.001722  
3800.000000	0.001432  
3799.000000	0.001173  
3798.000000	0.001240  
3797.000000	0.001671  
3796.000000	0.002150  
3795.000000	0.002421  
3794.000000	0.002522  
3793.000000	0.002626  
3792.000000	0.002804  
3791.000000	0.002956  
3790.000000	0.002966  
3789.000000	0.002842  
3788.000000	0.002706  
3787.000000	0.002687  
3786.000000	0.002822  
3785.000000	0.003017  
3784.000000	0.003118  
3783.000000	0.003038  
3782.000000	0.002812  
3781.000000	0.002551  
3780.000000	0.002373  
3779.000000	0.002308  
3778.000000	0.002295  
3777.000000	0.002293  
3776.000000	0.002333  
3775.000000	0.002425  
3774.000000	0.002511  
3773.000000	0.002533  
3772.000000	0.002501  
3771.000000	0.002451  
3770.000000	0.002391  
3769.000000	0.002318  
3768.000000	0.002271  
3767.000000	0.002318  
3766.000000	0.002453  
3765.000000	0.002562  
3764.000000	0.002563  
3763.000000	0.002513  
3762.000000	0.002538  
3761.000000	0.002663  
3760.000000	0.002740  
3759.000000	0.002600  
3758.000000	0.002259  
3757.000000	0.001913  
3756.000000	0.001718  
3755.000000	0.001636  
3754.000000	0.001496  
3753.000000	0.001195  
3752.000000	0.000911  
3751.000000	0.000987  
3750.000000	0.001401  
3749.000000	0.001813  
3748.000000	0.002082  
3747.000000	0.002250  
3746.000000	0.002319  
3745.000000	0.002265  
3744.000000	0.002110  
3743.000000	0.001876  
3742.000000	0.001671  
3741.000000	0.001721  
3740.000000	0.002022  
3739.000000	0.002316  
3738.000000	0.002499  
3737.000000	0.002614  
3736.000000	0.002623  
3735.000000	0.002482  
3734.000000	0.002298  
3733.000000	0.002206  
3732.000000	0.002193  
3731.000000	0.002158  
3730.000000	0.002085  
3729.000000	0.002084  
3728.000000	0.002236  
3727.000000	0.002471  
3726.000000	0.002648  
3725.000000	0.002698  
3724.000000	0.002682  
3723.000000	0.002704  
3722.000000	0.002777  
3721.000000	0.002806  
3720.000000	0.002722  
3719.000000	0.002560  
3718.000000	0.002406  
3717.000000	0.002313  
3716.000000	0.002285  
3715.000000	0.002301  
3714.000000	0.002324  
3713.000000	0.002297  
3712.000000	0.002187  
3711.000000	0.002005  
3710.000000	0.001770  
3709.000000	0.001553  
3708.000000	0.001475  
3707.000000	0.001591  
3706.000000	0.001843  
3705.000000	0.002141  
3704.000000	0.002421  
3703.000000	0.002636  
3702.000000	0.002749  
3701.000000	0.002755  
3700.000000	0.002702  
3699.000000	0.002673  
3698.000000	0.002715  
3697.000000	0.002789  
3696.000000	0.002843  
3695.000000	0.002903  
3694.000000	0.003055  
3693.000000	0.003315  
3692.000000	0.003505  
3691.000000	0.003323  
3690.000000	0.002676  
3689.000000	0.001895  
3688.000000	0.001371  
3687.000000	0.001230  
3686.000000	0.001451  
3685.000000	0.001909  
3684.000000	0.002352  
3683.000000	0.002538  
3682.000000	0.002420  
3681.000000	0.002142  
3680.000000	0.001894  
3679.000000	0.001778  
3678.000000	0.001822  
3677.000000	0.002019  
3676.000000	0.002237  
3675.000000	0.002217  
3674.000000	0.001860  
3673.000000	0.001418  
3672.000000	0.001293  
3671.000000	0.001609  
3670.000000	0.002100  
3669.000000	0.002404  
3668.000000	0.002419  
3667.000000	0.002369  
3666.000000	0.002487  
3665.000000	0.002751  
3664.000000	0.003028  
3663.000000	0.003248  
3662.000000	0.003373  
3661.000000	0.003355  
3660.000000	0.003176  
3659.000000	0.002886  
3658.000000	0.002623  
3657.000000	0.002553  
3656.000000	0.002692  
3655.000000	0.002878  
3654.000000	0.002956  
3653.000000	0.002895  
3652.000000	0.002722  
3651.000000	0.002598  
3650.000000	0.002852  
3649.000000	0.003389  
3648.000000	0.003653  
3647.000000	0.003541  
3646.000000	0.003392  
3645.000000	0.003397  
3644.000000	0.003502  
3643.000000	0.003592  
3642.000000	0.003612  
3641.000000	0.003577  
3640.000000	0.003524  
3639.000000	0.003451  
3638.000000	0.003326  
3637.000000	0.003148  
3636.000000	0.002998  
3635.000000	0.002973  
3634.000000	0.003065  
3633.000000	0.003153  
3632.000000	0.003141  
3631.000000	0.003093  
3630.000000	0.003194  
3629.000000	0.003483  
3628.000000	0.003693  
3627.000000	0.003663  
3626.000000	0.003585  
3625.000000	0.003664  
3624.000000	0.003834  
3623.000000	0.003949  
3622.000000	0.003995  
3621.000000	0.004000  
3620.000000	0.003943  
3619.000000	0.003799  
3618.000000	0.003600  
3617.000000	0.003415  
3616.000000	0.003303  
3615.000000	0.003270  
3614.000000	0.003299  
3613.000000	0.003387  
3612.000000	0.003534  
3611.000000	0.003723  
3610.000000	0.003929  
3609.000000	0.004122  
3608.000000	0.004285  
3607.000000	0.004407  
3606.000000	0.004480  
3605.000000	0.004497  
3604.000000	0.004439  
3603.000000	0.004294  
3602.000000	0.004117  
3601.000000	0.004035  
3600.000000	0.004137  
3599.000000	0.004379  
3598.000000	0.004598  
3597.000000	0.004634  
3596.000000	0.004443  
3595.000000	0.004153  
3594.000000	0.003966  
3593.000000	0.003971  
3592.000000	0.004112  
3591.000000	0.004300  
3590.000000	0.004505  
3589.000000	0.004770  
3588.000000	0.005128  
3587.000000	0.005489  
3586.000000	0.005720  
3585.000000	0.005799  
3584.000000	0.005787  
3583.000000	0.005734  
3582.000000	0.005656  
3581.000000	0.005581  
3580.000000	0.005560  
3579.000000	0.005625  
3578.000000	0.005743  
3577.000000	0.005831  
3576.000000	0.005827  
3575.000000	0.005748  
3574.000000	0.005667  
3573.000000	0.005639  
3572.000000	0.005673  
3571.000000	0.005758  
3570.000000	0.005893  
3569.000000	0.006104  
3568.000000	0.006410  
3567.000000	0.006753  
3566.000000	0.007012  
3565.000000	0.007109  
3564.000000	0.007042  
3563.000000	0.006846  
3562.000000	0.006592  
3561.000000	0.006388  
3560.000000	0.006325  
3559.000000	0.006414  
3558.000000	0.006578  
3557.000000	0.006710  
3556.000000	0.006764  
3555.000000	0.006782  
3554.000000	0.006831  
3553.000000	0.006908  
3552.000000	0.006936  
3551.000000	0.006872  
3550.000000	0.006786  
3549.000000	0.006819  
3548.000000	0.007063  
3547.000000	0.007470  
3546.000000	0.007879  
3545.000000	0.008155  
3544.000000	0.008282  
3543.000000	0.008317  
3542.000000	0.008312  
3541.000000	0.008294  
3540.000000	0.008270  
3539.000000	0.008235  
3538.000000	0.008195  
3537.000000	0.008174  
3536.000000	0.008186  
3535.000000	0.008214  
3534.000000	0.008223  
3533.000000	0.008195  
3532.000000	0.008139  
3531.000000	0.008085  
3530.000000	0.008076  
3529.000000	0.008157  
3528.000000	0.008349  
3527.000000	0.008610  
3526.000000	0.008843  
3525.000000	0.008969  
3524.000000	0.008996  
3523.000000	0.009013  
3522.000000	0.009099  
3521.000000	0.009241  
3520.000000	0.009357  
3519.000000	0.009375  
3518.000000	0.009302  
3517.000000	0.009234  
3516.000000	0.009271  
3515.000000	0.009423  
3514.000000	0.009596  
3513.000000	0.009689  
3512.000000	0.009703  
3511.000000	0.009740  
3510.000000	0.009886  
3509.000000	0.010110  
3508.000000	0.010302  
3507.000000	0.010403  
3506.000000	0.010445  
3505.000000	0.010494  
3504.000000	0.010573  
3503.000000	0.010651  
3502.000000	0.010700  
3501.000000	0.010732  
3500.000000	0.010776  
3499.000000	0.010834  
3498.000000	0.010900  
3497.000000	0.010969  
3496.000000	0.011029  
3495.000000	0.011054  
3494.000000	0.011052  
3493.000000	0.011096  
3492.000000	0.011281  
3491.000000	0.011620  
3490.000000	0.011994  
3489.000000	0.012229  
3488.000000	0.012250  
3487.000000	0.012147  
3486.000000	0.012081  
3485.000000	0.012135  
3484.000000	0.012268  
3483.000000	0.012371  
3482.000000	0.012366  
3481.000000	0.012275  
3480.000000	0.012194  
3479.000000	0.012215  
3478.000000	0.012369  
3477.000000	0.012623  
3476.000000	0.012909  
3475.000000	0.013160  
3474.000000	0.013337  
3473.000000	0.013433  
3472.000000	0.013470  
3471.000000	0.013483  
3470.000000	0.013511  
3469.000000	0.013580  
3468.000000	0.013692  
3467.000000	0.013813  
3466.000000	0.013894  
3465.000000	0.013890  
3464.000000	0.013802  
3463.000000	0.013679  
3462.000000	0.013607  
3461.000000	0.013661  
3460.000000	0.013869  
3459.000000	0.014187  
3458.000000	0.014522  
3457.000000	0.014785  
3456.000000	0.014936  
3455.000000	0.014995  
3454.000000	0.015001  
3453.000000	0.014986  
3452.000000	0.014972  
3451.000000	0.014976  
3450.000000	0.015025  
3449.000000	0.015146  
3448.000000	0.015337  
3447.000000	0.015538  
3446.000000	0.015661  
3445.000000	0.015659  
3444.000000	0.015569  
3443.000000	0.015491  
3442.000000	0.015516  
3441.000000	0.015676  
3440.000000	0.015928  
3439.000000	0.016183  
3438.000000	0.016355  
3437.000000	0.016413  
3436.000000	0.016402  
3435.000000	0.016415  
3434.000000	0.016521  
3433.000000	0.016728  
3432.000000	0.016971  
3431.000000	0.017160  
3430.000000	0.017235  
3429.000000	0.017212  
3428.000000	0.017164  
3427.000000	0.017156  
3426.000000	0.017198  
3425.000000	0.017263  
3424.000000	0.017331  
3423.000000	0.017391  
3422.000000	0.017420  
3421.000000	0.017394  
3420.000000	0.017327  
3419.000000	0.017271  
3418.000000	0.017256  
3417.000000	0.017274  
3416.000000	0.017322  
3415.000000	0.017433  
3414.000000	0.017641  
3413.000000	0.017926  
3412.000000	0.018215  
3411.000000	0.018437  
3410.000000	0.018561  
3409.000000	0.018607  
3408.000000	0.018636  
3407.000000	0.018725  
3406.000000	0.018926  
3405.000000	0.019210  
3404.000000	0.019476  
3403.000000	0.019617  
3402.000000	0.019589  
3401.000000	0.019446  
3400.000000	0.019284  
3399.000000	0.019179  
3398.000000	0.019133  
3397.000000	0.019105  
3396.000000	0.019086  
3395.000000	0.019130  
3394.000000	0.019299  
3393.000000	0.019592  
3392.000000	0.019933  
3391.000000	0.020239  
3390.000000	0.020454  
3389.000000	0.020551  
3388.000000	0.020539  
3387.000000	0.020475  
3386.000000	0.020455  
3385.000000	0.020532  
3384.000000	0.020678  
3383.000000	0.020820  
3382.000000	0.020926  
3381.000000	0.021025  
3380.000000	0.021147  
3379.000000	0.021268  
3378.000000	0.021330  
3377.000000	0.021313  
3376.000000	0.021258  
3375.000000	0.021221  
3374.000000	0.021215  
3373.000000	0.021215  
3372.000000	0.021225  
3371.000000	0.021300  
3370.000000	0.021480  
3369.000000	0.021726  
3368.000000	0.021936  
3367.000000	0.022019  
3366.000000	0.021956  
3365.000000	0.021803  
3364.000000	0.021662  
3363.000000	0.021632  
3362.000000	0.021749  
3361.000000	0.021955  
3360.000000	0.022144  
3359.000000	0.022255  
3358.000000	0.022310  
3357.000000	0.022370  
3356.000000	0.022466  
3355.000000	0.022569  
3354.000000	0.022618  
3353.000000	0.022570  
3352.000000	0.022440  
3351.000000	0.022303  
3350.000000	0.022238  
3349.000000	0.022275  
3348.000000	0.022384  
3347.000000	0.022521  
3346.000000	0.022663  
3345.000000	0.022809  
3344.000000	0.022955  
3343.000000	0.023080  
3342.000000	0.023147  
3341.000000	0.023130  
3340.000000	0.023026  
3339.000000	0.022867  
3338.000000	0.022697  
3337.000000	0.022569  
3336.000000	0.022536  
3335.000000	0.022627  
3334.000000	0.022803  
3333.000000	0.022964  
3332.000000	0.023007  
3331.000000	0.022899  
3330.000000	0.022684  
3329.000000	0.022438  
3328.000000	0.022232  
3327.000000	0.022121  
3326.000000	0.022132  
3325.000000	0.022252  
3324.000000	0.022438  
3323.000000	0.022634  
3322.000000	0.022780  
3321.000000	0.022822  
3320.000000	0.022748  
3319.000000	0.022609  
3318.000000	0.022473  
3317.000000	0.022367  
3316.000000	0.022279  
3315.000000	0.022201  
3314.000000	0.022135  
3313.000000	0.022057  
3312.000000	0.021937  
3311.000000	0.021797  
3310.000000	0.021720  
3309.000000	0.021751  
3308.000000	0.021842  
3307.000000	0.021898  
3306.000000	0.021864  
3305.000000	0.021744  
3304.000000	0.021571  
3303.000000	0.021405  
3302.000000	0.021307  
3301.000000	0.021294  
3300.000000	0.021299  
3299.000000	0.021234  
3298.000000	0.021079  
3297.000000	0.020892  
3296.000000	0.020753  
3295.000000	0.020709  
3294.000000	0.020760  
3293.000000	0.020852  
3292.000000	0.020898  
3291.000000	0.020825  
3290.000000	0.020629  
3289.000000	0.020368  
3288.000000	0.020113  
3287.000000	0.019915  
3286.000000	0.019801  
3285.000000	0.019753  
3284.000000	0.019712  
3283.000000	0.019629  
3282.000000	0.019535  
3281.000000	0.019502  
3280.000000	0.019528  
3279.000000	0.019503  
3278.000000	0.019322  
3277.000000	0.019017  
3276.000000	0.018741  
3275.000000	0.018624  
3274.000000	0.018660  
3273.000000	0.018735  
3272.000000	0.018729  
3271.000000	0.018598  
3270.000000	0.018389  
3269.000000	0.018196  
3268.000000	0.018092  
3267.000000	0.018075  
3266.000000	0.018074  
3265.000000	0.018017  
3264.000000	0.017896  
3263.000000	0.017757  
3262.000000	0.017636  
3261.000000	0.017526  
3260.000000	0.017397  
3259.000000	0.017250  
3258.000000	0.017118  
3257.000000	0.017034  
3256.000000	0.016996  
3255.000000	0.016965  
3254.000000	0.016898  
3253.000000	0.016781  
3252.000000	0.016642  
3251.000000	0.016542  
3250.000000	0.016527  
3249.000000	0.016576  
3248.000000	0.016612  
3247.000000	0.016561  
3246.000000	0.016408  
3245.000000	0.016199  
3244.000000	0.015987  
3243.000000	0.015802  
3242.000000	0.015639  
3241.000000	0.015483  
3240.000000	0.015333  
3239.000000	0.015214  
3238.000000	0.015160  
3237.000000	0.015171  
3236.000000	0.015192  
3235.000000	0.015151  
3234.000000	0.015027  
3233.000000	0.014854  
3232.000000	0.014678  
3231.000000	0.014521  
3230.000000	0.014380  
3229.000000	0.014261  
3228.000000	0.014187  
3227.000000	0.014172  
3226.000000	0.014199  
3225.000000	0.014220  
3224.000000	0.014192  
3223.000000	0.014102  
3222.000000	0.013958  
3221.000000	0.013757  
3220.000000	0.013495  
3219.000000	0.013194  
3218.000000	0.012906  
3217.000000	0.012686  
3216.000000	0.012556  
3215.000000	0.012509  
3214.000000	0.012525  
3213.000000	0.012563  
3212.000000	0.012563  
3211.000000	0.012480  
3210.000000	0.012318  
3209.000000	0.012121  
3208.000000	0.011939  
3207.000000	0.011809  
3206.000000	0.011758  
3205.000000	0.011789  
3204.000000	0.011863  
3203.000000	0.011908  
3202.000000	0.011867  
3201.000000	0.011718  
3200.000000	0.011479  
3199.000000	0.011214  
3198.000000	0.011011  
3197.000000	0.010932  
3196.000000	0.010944  
3195.000000	0.010955  
3194.000000	0.010907  
3193.000000	0.010834  
3192.000000	0.010801  
3191.000000	0.010816  
3190.000000	0.010825  
3189.000000	0.010785  
3188.000000	0.010706  
3187.000000	0.010629  
3186.000000	0.010580  
3185.000000	0.010553  
3184.000000	0.010529  
3183.000000	0.010490  
3182.000000	0.010422  
3181.000000	0.010317  
3180.000000	0.010173  
3179.000000	0.010002  
3178.000000	0.009825  
3177.000000	0.009663  
3176.000000	0.009530  
3175.000000	0.009436  
3174.000000	0.009387  
3173.000000	0.009376  
3172.000000	0.009367  
3171.000000	0.009308  
3170.000000	0.009188  
3169.000000	0.009052  
3168.000000	0.008978  
3167.000000	0.009002  
3166.000000	0.009097  
3165.000000	0.009198  
3164.000000	0.009231  
3163.000000	0.009137  
3162.000000	0.008892  
3161.000000	0.008544  
3160.000000	0.008214  
3159.000000	0.008018  
3158.000000	0.007989  
3157.000000	0.008057  
3156.000000	0.008123  
3155.000000	0.008145  
3154.000000	0.008149  
3153.000000	0.008168  
3152.000000	0.008181  
3151.000000	0.008135  
3150.000000	0.008017  
3149.000000	0.007884  
3148.000000	0.007814  
3147.000000	0.007819  
3146.000000	0.007822  
3145.000000	0.007733  
3144.000000	0.007538  
3143.000000	0.007324  
3142.000000	0.007194  
3141.000000	0.007173  
3140.000000	0.007189  
3139.000000	0.007155  
3138.000000	0.007059  
3137.000000	0.006986  
3136.000000	0.007031  
3135.000000	0.007185  
3134.000000	0.007314  
3133.000000	0.007283  
3132.000000	0.007085  
3131.000000	0.006853  
3130.000000	0.006726  
3129.000000	0.006731  
3128.000000	0.006797  
3127.000000	0.006838  
3126.000000	0.006812  
3125.000000	0.006718  
3124.000000	0.006574  
3123.000000	0.006422  
3122.000000	0.006314  
3121.000000	0.006284  
3120.000000	0.006323  
3119.000000	0.006396  
3118.000000	0.006464  
3117.000000	0.006499  
3116.000000	0.006503  
3115.000000	0.006519  
3114.000000	0.006595  
3113.000000	0.006714  
3112.000000	0.006786  
3111.000000	0.006733  
3110.000000	0.006561  
3109.000000	0.006351  
3108.000000	0.006183  
3107.000000	0.006087  
3106.000000	0.006048  
3105.000000	0.006025  
3104.000000	0.005969  
3103.000000	0.005871  
3102.000000	0.005785  
3101.000000	0.005771  
3100.000000	0.005810  
3099.000000	0.005824  
3098.000000	0.005784  
3097.000000	0.005756  
3096.000000	0.005815  
3095.000000	0.005937  
3094.000000	0.006020  
3093.000000	0.005987  
3092.000000	0.005862  
3091.000000	0.005726  
3090.000000	0.005651  
3089.000000	0.005650  
3088.000000	0.005679  
3087.000000	0.005681  
3086.000000	0.005641  
3085.000000	0.005603  
3084.000000	0.005613  
3083.000000	0.005651  
3082.000000	0.005640  
3081.000000	0.005539  
3080.000000	0.005392  
3079.000000	0.005297  
3078.000000	0.005315  
3077.000000	0.005434  
3076.000000	0.005590  
3075.000000	0.005716  
3074.000000	0.005766  
3073.000000	0.005740  
3072.000000	0.005669  
3071.000000	0.005584  
3070.000000	0.005508  
3069.000000	0.005463  
3068.000000	0.005479  
3067.000000	0.005559  
3066.000000	0.005649  
3065.000000	0.005672  
3064.000000	0.005610  
3063.000000	0.005527  
3062.000000	0.005500  
3061.000000	0.005540  
3060.000000	0.005595  
3059.000000	0.005622  
3058.000000	0.005623  
3057.000000	0.005625  
3056.000000	0.005636  
3055.000000	0.005648  
3054.000000	0.005657  
3053.000000	0.005667  
3052.000000	0.005684  
3051.000000	0.005709  
3050.000000	0.005736  
3049.000000	0.005753  
3048.000000	0.005748  
3047.000000	0.005739  
3046.000000	0.005765  
3045.000000	0.005851  
3044.000000	0.005975  
3043.000000	0.006082  
3042.000000	0.006131  
3041.000000	0.006125  
3040.000000	0.006096  
3039.000000	0.006082  
3038.000000	0.006106  
3037.000000	0.006176  
3036.000000	0.006288  
3035.000000	0.006433  
3034.000000	0.006612  
3033.000000	0.006823  
3032.000000	0.007026  
3031.000000	0.007149  
3030.000000	0.007141  
3029.000000	0.007032  
3028.000000	0.006937  
3027.000000	0.006979  
3026.000000	0.007199  
3025.000000	0.007519  
3024.000000	0.007812  
3023.000000	0.008007  
3022.000000	0.008150  
3021.000000	0.008358  
3020.000000	0.008715  
3019.000000	0.009200  
3018.000000	0.009719  
3017.000000	0.010182  
3016.000000	0.010559  
3015.000000	0.010876  
3014.000000	0.011174  
3013.000000	0.011475  
3012.000000	0.011768  
3011.000000	0.012015  
3010.000000	0.012172  
3009.000000	0.012227  
3008.000000	0.012202  
3007.000000	0.012122  
3006.000000	0.011990  
3005.000000	0.011799  
3004.000000	0.011571  
3003.000000	0.011360  
3002.000000	0.011216  
3001.000000	0.011153  
3000.000000	0.011167  
2999.000000	0.011247  
2998.000000	0.011378  
2997.000000	0.011537  
2996.000000	0.011696  
2995.000000	0.011852  
2994.000000	0.012018  
2993.000000	0.012206  
2992.000000	0.012422  
2991.000000	0.012689  
2990.000000	0.013053  
2989.000000	0.013558  
2988.000000	0.014206  
2987.000000	0.014957  
2986.000000	0.015770  
2985.000000	0.016652  
2984.000000	0.017639  
2983.000000	0.018746  
2982.000000	0.019946  
2981.000000	0.021231  
2980.000000	0.022674  
2979.000000	0.024406  
2978.000000	0.026492  
2977.000000	0.028881  
2976.000000	0.031482  
2975.000000	0.034297  
2974.000000	0.037453  
2973.000000	0.041091  
2972.000000	0.045256  
2971.000000	0.049890  
2970.000000	0.054911  
2969.000000	0.060272  
2968.000000	0.065942  
2967.000000	0.071850  
2966.000000	0.077855  
2965.000000	0.083787  
2964.000000	0.089498  
2963.000000	0.094869  
2962.000000	0.099787  
2961.000000	0.104139  
2960.000000	0.107817  
2959.000000	0.110711  
2958.000000	0.112702  
2957.000000	0.113699  
2956.000000	0.113691  
2955.000000	0.112749  
2954.000000	0.111000  
2953.000000	0.108615  
2952.000000	0.105836  
2951.000000	0.102947  
2950.000000	0.100219  
2949.000000	0.097878  
2948.000000	0.096102  
2947.000000	0.095007  
2946.000000	0.094634  
2945.000000	0.094993  
2944.000000	0.096133  
2943.000000	0.098151  
2942.000000	0.101082  
2941.000000	0.104815  
2940.000000	0.109142  
2939.000000	0.113901  
2938.000000	0.119050  
2937.000000	0.124599  
2936.000000	0.130490  
2935.000000	0.136551  
2934.000000	0.142558  
2933.000000	0.148362  
2932.000000	0.153947  
2931.000000	0.159351  
2930.000000	0.164537  
2929.000000	0.169357  
2928.000000	0.173638  
2927.000000	0.177252  
2926.000000	0.180089  
2925.000000	0.182010  
2924.000000	0.182863  
2923.000000	0.182529  
2922.000000	0.180970  
2921.000000	0.178290  
2920.000000	0.174728  
2919.000000	0.170564  
2918.000000	0.166011  
2917.000000	0.161225  
2916.000000	0.156357  
2915.000000	0.151556  
2914.000000	0.146910  
2913.000000	0.142435  
2912.000000	0.138125  
2911.000000	0.133987  
2910.000000	0.130031  
2909.000000	0.126272  
2908.000000	0.122737  
2907.000000	0.119441  
2906.000000	0.116341  
2905.000000	0.113343  
2904.000000	0.110387  
2903.000000	0.107495  
2902.000000	0.104707  
2901.000000	0.102001  
2900.000000	0.099306  
2899.000000	0.096588  
2898.000000	0.093888  
2897.000000	0.091265  
2896.000000	0.088732  
2895.000000	0.086260  
2894.000000	0.083830  
2893.000000	0.081464  
2892.000000	0.079205  
2891.000000	0.077100  
2890.000000	0.075180  
2889.000000	0.073462  
2888.000000	0.071954  
2887.000000	0.070683  
2886.000000	0.069722  
2885.000000	0.069174  
2884.000000	0.069118  
2883.000000	0.069583  
2882.000000	0.070589  
2881.000000	0.072192  
2880.000000	0.074461  
2879.000000	0.077391  
2878.000000	0.080829  
2877.000000	0.084486  
2876.000000	0.088012  
2875.000000	0.091075  
2874.000000	0.093415  
2873.000000	0.094893  
2872.000000	0.095557  
2871.000000	0.095644  
2870.000000	0.095478  
2869.000000	0.095325  
2868.000000	0.095322  
2867.000000	0.095518  
2866.000000	0.095967  
2865.000000	0.096766  
2864.000000	0.098002  
2863.000000	0.099686  
2862.000000	0.101749  
2861.000000	0.104068  
2860.000000	0.106486  
2859.000000	0.108814  
2858.000000	0.110867  
2857.000000	0.112501  
2856.000000	0.113574  
2855.000000	0.113864  
2854.000000	0.113074  
2853.000000	0.111000  
2852.000000	0.107681  
2851.000000	0.103372  
2850.000000	0.098381  
2849.000000	0.092976  
2848.000000	0.087407  
2847.000000	0.081917  
2846.000000	0.076681  
2845.000000	0.071741  
2844.000000	0.067024  
2843.000000	0.062438  
2842.000000	0.057962  
2841.000000	0.053660  
2840.000000	0.049622  
2839.000000	0.045911  
2838.000000	0.042555  
2837.000000	0.039572  
2836.000000	0.036968  
2835.000000	0.034713  
2834.000000	0.032725  
2833.000000	0.030906  
2832.000000	0.029199  
2831.000000	0.027604  
2830.000000	0.026133  
2829.000000	0.024785  
2828.000000	0.023546  
2827.000000	0.022419  
2826.000000	0.021419  
2825.000000	0.020550  
2824.000000	0.019786  
2823.000000	0.019081  
2822.000000	0.018397  
2821.000000	0.017728  
2820.000000	0.017100  
2819.000000	0.016549  
2818.000000	0.016082  
2817.000000	0.015670  
2816.000000	0.015273  
2815.000000	0.014869  
2814.000000	0.014453  
2813.000000	0.014021  
2812.000000	0.013567  
2811.000000	0.013118  
2810.000000	0.012726  
2809.000000	0.012429  
2808.000000	0.012210  
2807.000000	0.012016  
2806.000000	0.011805  
2805.000000	0.011569  
2804.000000	0.011317  
2803.000000	0.011052  
2802.000000	0.010765  
2801.000000	0.010459  
2800.000000	0.010165  
2799.000000	0.009930  
2798.000000	0.009780  
2797.000000	0.009704  
2796.000000	0.009664  
2795.000000	0.009619  
2794.000000	0.009544  
2793.000000	0.009425  
2792.000000	0.009261  
2791.000000	0.009072  
2790.000000	0.008882  
2789.000000	0.008700  
2788.000000	0.008506  
2787.000000	0.008285  
2786.000000	0.008050  
2785.000000	0.007855  
2784.000000	0.007745  
2783.000000	0.007715  
2782.000000	0.007698  
2781.000000	0.007614  
2780.000000	0.007433  
2779.000000	0.007191  
2778.000000	0.006945  
2777.000000	0.006737  
2776.000000	0.006583  
2775.000000	0.006495  
2774.000000	0.006478  
2773.000000	0.006506  
2772.000000	0.006539  
2771.000000	0.006548  
2770.000000	0.006527  
2769.000000	0.006478  
2768.000000	0.006397  
2767.000000	0.006295  
2766.000000	0.006197  
2765.000000	0.006129  
2764.000000	0.006101  
2763.000000	0.006103  
2762.000000	0.006108  
2761.000000	0.006085  
2760.000000	0.006016  
2759.000000	0.005918  
2758.000000	0.005836  
2757.000000	0.005806  
2756.000000	0.005838  
2755.000000	0.005900  
2754.000000	0.005932  
2753.000000	0.005880  
2752.000000	0.005748  
2751.000000	0.005606  
2750.000000	0.005528  
2749.000000	0.005518  
2748.000000	0.005525  
2747.000000	0.005512  
2746.000000	0.005492  
2745.000000	0.005494  
2744.000000	0.005519  
2743.000000	0.005557  
2742.000000	0.005601  
2741.000000	0.005646  
2740.000000	0.005674  
2739.000000	0.005682  
2738.000000	0.005689  
2737.000000	0.005728  
2736.000000	0.005812  
2735.000000	0.005931  
2734.000000	0.006054  
2733.000000	0.006143  
2732.000000	0.006167  
2731.000000	0.006127  
2730.000000	0.006043  
2729.000000	0.005936  
2728.000000	0.005830  
2727.000000	0.005757  
2726.000000	0.005744  
2725.000000	0.005775  
2724.000000	0.005799  
2723.000000	0.005792  
2722.000000	0.005777  
2721.000000	0.005769  
2720.000000	0.005738  
2719.000000	0.005655  
2718.000000	0.005539  
2717.000000	0.005440  
2716.000000	0.005378  
2715.000000	0.005338  
2714.000000	0.005299  
2713.000000	0.005239  
2712.000000	0.005132  
2711.000000	0.004984  
2710.000000	0.004849  
2709.000000	0.004785  
2708.000000	0.004783  
2707.000000	0.004781  
2706.000000	0.004736  
2705.000000	0.004662  
2704.000000	0.004588  
2703.000000	0.004521  
2702.000000	0.004461  
2701.000000	0.004426  
2700.000000	0.004432  
2699.000000	0.004460  
2698.000000	0.004481  
2697.000000	0.004489  
2696.000000	0.004506  
2695.000000	0.004545  
2694.000000	0.004587  
2693.000000	0.004593  
2692.000000	0.004551  
2691.000000	0.004482  
2690.000000	0.004421  
2689.000000	0.004379  
2688.000000	0.004348  
2687.000000	0.004324  
2686.000000	0.004315  
2685.000000	0.004336  
2684.000000	0.004393  
2683.000000	0.004481  
2682.000000	0.004576  
2681.000000	0.004631  
2680.000000	0.004615  
2679.000000	0.004551  
2678.000000	0.004502  
2677.000000	0.004501  
2676.000000	0.004514  
2675.000000	0.004497  
2674.000000	0.004456  
2673.000000	0.004425  
2672.000000	0.004409  
2671.000000	0.004381  
2670.000000	0.004330  
2669.000000	0.004278  
2668.000000	0.004245  
2667.000000	0.004225  
2666.000000	0.004204  
2665.000000	0.004175  
2664.000000	0.004146  
2663.000000	0.004124  
2662.000000	0.004108  
2661.000000	0.004077  
2660.000000	0.004006  
2659.000000	0.003902  
2658.000000	0.003829  
2657.000000	0.003862  
2656.000000	0.003998  
2655.000000	0.004137  
2654.000000	0.004171  
2653.000000	0.004077  
2652.000000	0.003925  
2651.000000	0.003807  
2650.000000	0.003744  
2649.000000	0.003689  
2648.000000	0.003586  
2647.000000	0.003457  
2646.000000	0.003379  
2645.000000	0.003399  
2644.000000	0.003472  
2643.000000	0.003527  
2642.000000	0.003554  
2641.000000	0.003593  
2640.000000	0.003645  
2639.000000	0.003651  
2638.000000	0.003567  
2637.000000	0.003427  
2636.000000	0.003303  
2635.000000	0.003236  
2634.000000	0.003220  
2633.000000	0.003239  
2632.000000	0.003280  
2631.000000	0.003327  
2630.000000	0.003351  
2629.000000	0.003334  
2628.000000	0.003289  
2627.000000	0.003245  
2626.000000	0.003219  
2625.000000	0.003199  
2624.000000	0.003157  
2623.000000	0.003084  
2622.000000	0.003011  
2621.000000	0.002983  
2620.000000	0.003026  
2619.000000	0.003120  
2618.000000	0.003212  
2617.000000	0.003240  
2616.000000	0.003180  
2615.000000	0.003074  
2614.000000	0.003010  
2613.000000	0.003037  
2612.000000	0.003120  
2611.000000	0.003182  
2610.000000	0.003201  
2609.000000	0.003213  
2608.000000	0.003248  
2607.000000	0.003278  
2606.000000	0.003253  
2605.000000	0.003147  
2604.000000	0.002980  
2603.000000	0.002804  
2602.000000	0.002678  
2601.000000	0.002635  
2600.000000	0.002637  
2599.000000	0.002605  
2598.000000	0.002491  
2597.000000	0.002335  
2596.000000	0.002226  
2595.000000	0.002223  
2594.000000	0.002317  
2593.000000	0.002442  
2592.000000	0.002530  
2591.000000	0.002561  
2590.000000	0.002560  
2589.000000	0.002555  
2588.000000	0.002543  
2587.000000	0.002516  
2586.000000	0.002502  
2585.000000	0.002553  
2584.000000	0.002661  
2583.000000	0.002735  
2582.000000	0.002677  
2581.000000	0.002480  
2580.000000	0.002250  
2579.000000	0.002107  
2578.000000	0.002092  
2577.000000	0.002147  
2576.000000	0.002193  
2575.000000	0.002205  
2574.000000	0.002218  
2573.000000	0.002264  
2572.000000	0.002323  
2571.000000	0.002344  
2570.000000	0.002313  
2569.000000	0.002278  
2568.000000	0.002295  
2567.000000	0.002365  
2566.000000	0.002426  
2565.000000	0.002404  
2564.000000	0.002280  
2563.000000	0.002100  
2562.000000	0.001938  
2561.000000	0.001856  
2560.000000	0.001896  
2559.000000	0.002069  
2558.000000	0.002329  
2557.000000	0.002560  
2556.000000	0.002638  
2555.000000	0.002521  
2554.000000	0.002273  
2553.000000	0.001997  
2552.000000	0.001777  
2551.000000	0.001665  
2550.000000	0.001662  
2549.000000	0.001692  
2548.000000	0.001649  
2547.000000	0.001517  
2546.000000	0.001410  
2545.000000	0.001452  
2544.000000	0.001635  
2543.000000	0.001838  
2542.000000	0.001967  
2541.000000	0.002013  
2540.000000	0.001995  
2539.000000	0.001922  
2538.000000	0.001812  
2537.000000	0.001707  
2536.000000	0.001624  
2535.000000	0.001545  
2534.000000	0.001458  
2533.000000	0.001378  
2532.000000	0.001335  
2531.000000	0.001347  
2530.000000	0.001439  
2529.000000	0.001625  
2528.000000	0.001861  
2527.000000	0.002032  
2526.000000	0.002033  
2525.000000	0.001858  
2524.000000	0.001589  
2523.000000	0.001335  
2522.000000	0.001184  
2521.000000	0.001176  
2520.000000	0.001281  
2519.000000	0.001415  
2518.000000	0.001506  
2517.000000	0.001547  
2516.000000	0.001581  
2515.000000	0.001633  
2514.000000	0.001689  
2513.000000	0.001728  
2512.000000	0.001741  
2511.000000	0.001718  
2510.000000	0.001655  
2509.000000	0.001586  
2508.000000	0.001568  
2507.000000	0.001610  
2506.000000	0.001634  
2505.000000	0.001555  
2504.000000	0.001395  
2503.000000	0.001267  
2502.000000	0.001258  
2501.000000	0.001360  
2500.000000	0.001516  
2499.000000	0.001683  
2498.000000	0.001822  
2497.000000	0.001881  
2496.000000	0.001846  
2495.000000	0.001775  
2494.000000	0.001724  
2493.000000	0.001672  
2492.000000	0.001578  
2491.000000	0.001482  
2490.000000	0.001486  
2489.000000	0.001605  
2488.000000	0.001738  
2487.000000	0.001777  
2486.000000	0.001717  
2485.000000	0.001604  
2484.000000	0.001467  
2483.000000	0.001322  
2482.000000	0.001216  
2481.000000	0.001181  
2480.000000	0.001195  
2479.000000	0.001216  
2478.000000	0.001232  
2477.000000	0.001239  
2476.000000	0.001201  
2475.000000	0.001090  
2474.000000	0.000952  
2473.000000	0.000880  
2472.000000	0.000902  
2471.000000	0.000955  
2470.000000	0.000957  
2469.000000	0.000898  
2468.000000	0.000838  
2467.000000	0.000836  
2466.000000	0.000900  
2465.000000	0.000982  
2464.000000	0.001032  
2463.000000	0.001047  
2462.000000	0.001053  
2461.000000	0.001057  
2460.000000	0.001044  
2459.000000	0.001019  
2458.000000	0.001006  
2457.000000	0.000993  
2456.000000	0.000923  
2455.000000	0.000779  
2454.000000	0.000642  
2453.000000	0.000609  
2452.000000	0.000695  
2451.000000	0.000840  
2450.000000	0.000997  
2449.000000	0.001153  
2448.000000	0.001278  
2447.000000	0.001313  
2446.000000	0.001234  
2445.000000	0.001087  
2444.000000	0.000955  
2443.000000	0.000908  
2442.000000	0.000959  
2441.000000	0.001047  
2440.000000	0.001073  
2439.000000	0.000991  
2438.000000	0.000857  
2437.000000	0.000777  
2436.000000	0.000806  
2435.000000	0.000907  
2434.000000	0.000998  
2433.000000	0.001018  
2432.000000	0.000981  
2431.000000	0.000986  
2430.000000	0.001126  
2429.000000	0.001343  
2428.000000	0.001427  
2427.000000	0.001227  
2426.000000	0.000840  
2425.000000	0.000534  
2424.000000	0.000481  
2423.000000	0.000633  
2422.000000	0.000853  
2421.000000	0.001051  
2420.000000	0.001191  
2419.000000	0.001235  
2418.000000	0.001181  
2417.000000	0.001102  
2416.000000	0.001086  
2415.000000	0.001143  
2414.000000	0.001210  
2413.000000	0.001228  
2412.000000	0.001192  
2411.000000	0.001119  
2410.000000	0.001019  
2409.000000	0.000926  
2408.000000	0.000902  
2407.000000	0.000974  
2406.000000	0.001076  
2405.000000	0.001094  
2404.000000	0.001002  
2403.000000	0.000906  
2402.000000	0.000928  
2401.000000	0.001054  
2400.000000	0.001158  
2399.000000	0.001147  
2398.000000	0.001058  
2397.000000	0.000979  
2396.000000	0.000957  
2395.000000	0.000991  
2394.000000	0.001073  
2393.000000	0.001182  
2392.000000	0.001272  
2391.000000	0.001303  
2390.000000	0.001267  
2389.000000	0.001164  
2388.000000	0.000974  
2387.000000	0.000702  
2386.000000	0.000411  
2385.000000	0.000178  
2384.000000	0.000029  
2383.000000	-0.000048 
2382.000000	-0.000054 
2381.000000	0.000014  
2380.000000	0.000107  
2379.000000	0.000146  
2378.000000	0.000121  
2377.000000	0.000083  
2376.000000	0.000030  
2375.000000	-0.000093 
2374.000000	-0.000262 
2373.000000	-0.000344 
2372.000000	-0.000297 
2371.000000	-0.000266 
2370.000000	-0.000353 
2369.000000	-0.000447 
2368.000000	-0.000409 
2367.000000	-0.000291 
2366.000000	-0.000198 
2365.000000	-0.000134 
2364.000000	-0.000186 
2363.000000	-0.000602 
2362.000000	-0.001403 
2361.000000	-0.002135 
2360.000000	-0.002326 
2359.000000	-0.002014 
2358.000000	-0.001514 
2357.000000	-0.000957 
2356.000000	-0.000338 
2355.000000	0.000225  
2354.000000	0.000574  
2353.000000	0.000653  
2352.000000	0.000476  
2351.000000	0.000112  
2350.000000	-0.000259 
2349.000000	-0.000441 
2348.000000	-0.000394 
2347.000000	-0.000269 
2346.000000	-0.000234 
2345.000000	-0.000301 
2344.000000	-0.000426 
2343.000000	-0.000631 
2342.000000	-0.000865 
2341.000000	-0.000945 
2340.000000	-0.000744 
2339.000000	-0.000333 
2338.000000	0.000097  
2337.000000	0.000389  
2336.000000	0.000482  
2335.000000	0.000411  
2334.000000	0.000252  
2333.000000	0.000052  
2332.000000	-0.000171 
2331.000000	-0.000358 
2330.000000	-0.000407 
2329.000000	-0.000299 
2328.000000	-0.000149 
2327.000000	-0.000065 
2326.000000	-0.000046 
2325.000000	-0.000029 
2324.000000	0.000013  
2323.000000	0.000080  
2322.000000	0.000165  
2321.000000	0.000249  
2320.000000	0.000257  
2319.000000	0.000117  
2318.000000	-0.000153 
2317.000000	-0.000449 
2316.000000	-0.000654 
2315.000000	-0.000727 
2314.000000	-0.000731 
2313.000000	-0.000788 
2312.000000	-0.000959 
2311.000000	-0.001153 
2310.000000	-0.001210 
2309.000000	-0.001089 
2308.000000	-0.000907 
2307.000000	-0.000793 
2306.000000	-0.000755 
2305.000000	-0.000728 
2304.000000	-0.000688 
2303.000000	-0.000645 
2302.000000	-0.000587 
2301.000000	-0.000492 
2300.000000	-0.000395 
2299.000000	-0.000374 
2298.000000	-0.000453 
2297.000000	-0.000569 
2296.000000	-0.000621 
2295.000000	-0.000537 
2294.000000	-0.000317 
2293.000000	-0.000046 
2292.000000	0.000144  
2291.000000	0.000200  
2290.000000	0.000199  
2289.000000	0.000255  
2288.000000	0.000379  
2287.000000	0.000481  
2286.000000	0.000487  
2285.000000	0.000388  
2284.000000	0.000212  
2283.000000	0.000021  
2282.000000	-0.000081 
2281.000000	-0.000036 
2280.000000	0.000076  
2279.000000	0.000101  
2278.000000	0.000007  
2277.000000	-0.000084 
2276.000000	-0.000080 
2275.000000	-0.000027 
2274.000000	0.000011  
2273.000000	0.000078  
2272.000000	0.000221  
2271.000000	0.000384  
2270.000000	0.000476  
2269.000000	0.000513  
2268.000000	0.000567  
2267.000000	0.000616  
2266.000000	0.000554  
2265.000000	0.000342  
2264.000000	0.000068  
2263.000000	-0.000145 
2262.000000	-0.000225 
2261.000000	-0.000135 
2260.000000	0.000124  
2259.000000	0.000472  
2258.000000	0.000740  
2257.000000	0.000778  
2256.000000	0.000583  
2255.000000	0.000323  
2254.000000	0.000199  
2253.000000	0.000288  
2252.000000	0.000468  
2251.000000	0.000529  
2250.000000	0.000351  
2249.000000	0.000016  
2248.000000	-0.000272 
2247.000000	-0.000355 
2246.000000	-0.000235 
2245.000000	-0.000045 
2244.000000	0.000076  
2243.000000	0.000099  
2242.000000	0.000080  
2241.000000	0.000062  
2240.000000	0.000037  
2239.000000	0.000004  
2238.000000	0.000002  
2237.000000	0.000042  
2236.000000	0.000041  
2235.000000	-0.000076 
2234.000000	-0.000248 
2233.000000	-0.000307 
2232.000000	-0.000164 
2231.000000	0.000092  
2230.000000	0.000288  
2229.000000	0.000300  
2228.000000	0.000119  
2227.000000	-0.000141 
2226.000000	-0.000285 
2225.000000	-0.000156 
2224.000000	0.000226  
2223.000000	0.000695  
2222.000000	0.001069  
2221.000000	0.001233  
2220.000000	0.001121  
2219.000000	0.000732  
2218.000000	0.000212  
2217.000000	-0.000164 
2216.000000	-0.000190 
2215.000000	0.000136  
2214.000000	0.000639  
2213.000000	0.001074  
2212.000000	0.001224  
2211.000000	0.001015  
2210.000000	0.000610  
2209.000000	0.000332  
2208.000000	0.000403  
2207.000000	0.000764  
2206.000000	0.001156  
2205.000000	0.001335  
2204.000000	0.001192  
2203.000000	0.000778  
2202.000000	0.000295  
2201.000000	0.000012  
2200.000000	0.000069  
2199.000000	0.000354  
2198.000000	0.000626  
2197.000000	0.000740  
2196.000000	0.000720  
2195.000000	0.000653  
2194.000000	0.000584  
2193.000000	0.000524  
2192.000000	0.000491  
2191.000000	0.000507  
2190.000000	0.000588  
2189.000000	0.000714  
2188.000000	0.000794  
2187.000000	0.000686  
2186.000000	0.000337  
2185.000000	-0.000098 
2184.000000	-0.000352 
2183.000000	-0.000322 
2182.000000	-0.000170 
2181.000000	-0.000099 
2180.000000	-0.000079 
2179.000000	0.000093  
2178.000000	0.000473  
2177.000000	0.000840  
2176.000000	0.000968  
2175.000000	0.000926  
2174.000000	0.000988  
2173.000000	0.001264  
2172.000000	0.001538  
2171.000000	0.001502  
2170.000000	0.001074  
2169.000000	0.000460  
2168.000000	-0.000025 
2167.000000	-0.000194 
2166.000000	-0.000086 
2165.000000	0.000075  
2164.000000	0.000055  
2163.000000	-0.000230 
2162.000000	-0.000676 
2161.000000	-0.001056 
2160.000000	-0.001104 
2159.000000	-0.000655 
2158.000000	0.000140  
2157.000000	0.000790  
2156.000000	0.000865  
2155.000000	0.000400  
2154.000000	-0.000178 
2153.000000	-0.000477 
2152.000000	-0.000411 
2151.000000	-0.000140 
2150.000000	0.000107  
2149.000000	0.000139  
2148.000000	-0.000065 
2147.000000	-0.000265 
2146.000000	-0.000150 
2145.000000	0.000279  
2144.000000	0.000672  
2143.000000	0.000740  
2142.000000	0.000566  
2141.000000	0.000418  
2140.000000	0.000392  
2139.000000	0.000390  
2138.000000	0.000312  
2137.000000	0.000141  
2136.000000	-0.000087 
2135.000000	-0.000266 
2134.000000	-0.000232 
2133.000000	0.000045  
2132.000000	0.000354  
2131.000000	0.000443  
2130.000000	0.000300  
2129.000000	0.000111  
2128.000000	0.000006  
2127.000000	-0.000041 
2126.000000	-0.000082 
2125.000000	-0.000094 
2124.000000	-0.000055 
2123.000000	0.000019  
2122.000000	0.000124  
2121.000000	0.000271  
2120.000000	0.000423  
2119.000000	0.000499  
2118.000000	0.000471  
2117.000000	0.000414  
2116.000000	0.000415  
2115.000000	0.000488  
2114.000000	0.000577  
2113.000000	0.000596  
2112.000000	0.000476  
2111.000000	0.000223  
2110.000000	-0.000055 
2109.000000	-0.000234 
2108.000000	-0.000269 
2107.000000	-0.000199 
2106.000000	-0.000064 
2105.000000	0.000084  
2104.000000	0.000160  
2103.000000	0.000107  
2102.000000	0.000009  
2101.000000	0.000017  
2100.000000	0.000160  
2099.000000	0.000319  
2098.000000	0.000397  
2097.000000	0.000434  
2096.000000	0.000517  
2095.000000	0.000658  
2094.000000	0.000807  
2093.000000	0.000911  
2092.000000	0.000922  
2091.000000	0.000807  
2090.000000	0.000597  
2089.000000	0.000388  
2088.000000	0.000260  
2087.000000	0.000246  
2086.000000	0.000359  
2085.000000	0.000589  
2084.000000	0.000863  
2083.000000	0.001061  
2082.000000	0.001095  
2081.000000	0.000951  
2080.000000	0.000670  
2079.000000	0.000346  
2078.000000	0.000127  
2077.000000	0.000114  
2076.000000	0.000247  
2075.000000	0.000351  
2074.000000	0.000313  
2073.000000	0.000165  
2072.000000	-0.000003 
2071.000000	-0.000137 
2070.000000	-0.000203 
2069.000000	-0.000197 
2068.000000	-0.000170 
2067.000000	-0.000169 
2066.000000	-0.000140 
2065.000000	0.000016  
2064.000000	0.000272  
2063.000000	0.000475  
2062.000000	0.000548  
2061.000000	0.000558  
2060.000000	0.000586  
2059.000000	0.000621  
2058.000000	0.000617  
2057.000000	0.000578  
2056.000000	0.000517  
2055.000000	0.000432  
2054.000000	0.000327  
2053.000000	0.000218  
2052.000000	0.000082  
2051.000000	-0.000085 
2050.000000	-0.000177 
2049.000000	-0.000075 
2048.000000	0.000114  
2047.000000	0.000118  
2046.000000	-0.000115 
2045.000000	-0.000292 
2044.000000	-0.000122 
2043.000000	0.000344  
2042.000000	0.000854  
2041.000000	0.001229  
2040.000000	0.001378  
2039.000000	0.001186  
2038.000000	0.000613  
2037.000000	-0.000124 
2036.000000	-0.000672 
2035.000000	-0.000843 
2034.000000	-0.000691 
2033.000000	-0.000363 
2032.000000	-0.000020 
2031.000000	0.000178  
2030.000000	0.000173  
2029.000000	0.000081  
2028.000000	0.000065  
2027.000000	0.000139  
2026.000000	0.000208  
2025.000000	0.000252  
2024.000000	0.000363  
2023.000000	0.000587  
2022.000000	0.000827  
2021.000000	0.000921  
2020.000000	0.000794  
2019.000000	0.000533  
2018.000000	0.000328  
2017.000000	0.000299  
2016.000000	0.000367  
2015.000000	0.000379  
2014.000000	0.000295  
2013.000000	0.000165  
2012.000000	-0.000010 
2011.000000	-0.000254 
2010.000000	-0.000437 
2009.000000	-0.000329 
2008.000000	0.000108  
2007.000000	0.000640  
2006.000000	0.001039  
2005.000000	0.001284  
2004.000000	0.001386  
2003.000000	0.001227  
2002.000000	0.000749  
2001.000000	0.000187  
2000.000000	-0.000085 
1999.000000	0.000074  
1998.000000	0.000488  
1997.000000	0.000890  
1996.000000	0.001139  
1995.000000	0.001208  
1994.000000	0.001116  
1993.000000	0.000946  
1992.000000	0.000828  
1991.000000	0.000794  
1990.000000	0.000737  
1989.000000	0.000567  
1988.000000	0.000329  
1987.000000	0.000125  
1986.000000	-0.000024 
1985.000000	-0.000198 
1984.000000	-0.000411 
1983.000000	-0.000538 
1982.000000	-0.000436 
1981.000000	-0.000131 
1980.000000	0.000198  
1979.000000	0.000423  
1978.000000	0.000547  
1977.000000	0.000563  
1976.000000	0.000388  
1975.000000	0.000049  
1974.000000	-0.000209 
1973.000000	-0.000187 
1972.000000	0.000004  
1971.000000	0.000113  
1970.000000	0.000106  
1969.000000	0.000164  
1968.000000	0.000355  
1967.000000	0.000517  
1966.000000	0.000551  
1965.000000	0.000594  
1964.000000	0.000795  
1963.000000	0.001103  
1962.000000	0.001373  
1961.000000	0.001508  
1960.000000	0.001460  
1959.000000	0.001206  
1958.000000	0.000835  
1957.000000	0.000557  
1956.000000	0.000492  
1955.000000	0.000538  
1954.000000	0.000532  
1953.000000	0.000464  
1952.000000	0.000414  
1951.000000	0.000373  
1950.000000	0.000275  
1949.000000	0.000181  
1948.000000	0.000262  
1947.000000	0.000559  
1946.000000	0.000875  
1945.000000	0.000964  
1944.000000	0.000779  
1943.000000	0.000504  
1942.000000	0.000336  
1941.000000	0.000292  
1940.000000	0.000303  
1939.000000	0.000372  
1938.000000	0.000546  
1937.000000	0.000801  
1936.000000	0.001023  
1935.000000	0.001105  
1934.000000	0.001046  
1933.000000	0.000910  
1932.000000	0.000752  
1931.000000	0.000603  
1930.000000	0.000514  
1929.000000	0.000508  
1928.000000	0.000524  
1927.000000	0.000470  
1926.000000	0.000344  
1925.000000	0.000244  
1924.000000	0.000253  
1923.000000	0.000350  
1922.000000	0.000463  
1921.000000	0.000573  
1920.000000	0.000701  
1919.000000	0.000842  
1918.000000	0.000968  
1917.000000	0.001047  
1916.000000	0.001054  
1915.000000	0.000971  
1914.000000	0.000812  
1913.000000	0.000655  
1912.000000	0.000615  
1911.000000	0.000754  
1910.000000	0.001033  
1909.000000	0.001315  
1908.000000	0.001441  
1907.000000	0.001340  
1906.000000	0.001063  
1905.000000	0.000730  
1904.000000	0.000453  
1903.000000	0.000285  
1902.000000	0.000233  
1901.000000	0.000265  
1900.000000	0.000306  
1899.000000	0.000292  
1898.000000	0.000227  
1897.000000	0.000167  
1896.000000	0.000159  
1895.000000	0.000216  
1894.000000	0.000339  
1893.000000	0.000514  
1892.000000	0.000667  
1891.000000	0.000698  
1890.000000	0.000583  
1889.000000	0.000424  
1888.000000	0.000333  
1887.000000	0.000328  
1886.000000	0.000383  
1885.000000	0.000462  
1884.000000	0.000513  
1883.000000	0.000498  
1882.000000	0.000450  
1881.000000	0.000446  
1880.000000	0.000512  
1879.000000	0.000612  
1878.000000	0.000712  
1877.000000	0.000810  
1876.000000	0.000885  
1875.000000	0.000883  
1874.000000	0.000803  
1873.000000	0.000723  
1872.000000	0.000701  
1871.000000	0.000705  
1870.000000	0.000677  
1869.000000	0.000632  
1868.000000	0.000613  
1867.000000	0.000593  
1866.000000	0.000549  
1865.000000	0.000499  
1864.000000	0.000452  
1863.000000	0.000397  
1862.000000	0.000340  
1861.000000	0.000320  
1860.000000	0.000346  
1859.000000	0.000366  
1858.000000	0.000340  
1857.000000	0.000298  
1856.000000	0.000285  
1855.000000	0.000296  
1854.000000	0.000306  
1853.000000	0.000336  
1852.000000	0.000422  
1851.000000	0.000573  
1850.000000	0.000749  
1849.000000	0.000904  
1848.000000	0.001006  
1847.000000	0.001020  
1846.000000	0.000905  
1845.000000	0.000689  
1844.000000	0.000508  
1843.000000	0.000456  
1842.000000	0.000519  
1841.000000	0.000647  
1840.000000	0.000762  
1839.000000	0.000785  
1838.000000	0.000687  
1837.000000	0.000522  
1836.000000	0.000381  
1835.000000	0.000317  
1834.000000	0.000326  
1833.000000	0.000371  
1832.000000	0.000411  
1831.000000	0.000428  
1830.000000	0.000454  
1829.000000	0.000515  
1828.000000	0.000593  
1827.000000	0.000641  
1826.000000	0.000620  
1825.000000	0.000553  
1824.000000	0.000507  
1823.000000	0.000504  
1822.000000	0.000505  
1821.000000	0.000472  
1820.000000	0.000418  
1819.000000	0.000397  
1818.000000	0.000444  
1817.000000	0.000545  
1816.000000	0.000651  
1815.000000	0.000708  
1814.000000	0.000697  
1813.000000	0.000627  
1812.000000	0.000538  
1811.000000	0.000474  
1810.000000	0.000452  
1809.000000	0.000451  
1808.000000	0.000416  
1807.000000	0.000329  
1806.000000	0.000264  
1805.000000	0.000337  
1804.000000	0.000573  
1803.000000	0.000859  
1802.000000	0.001037  
1801.000000	0.001026  
1800.000000	0.000896  
1799.000000	0.000764  
1798.000000	0.000706  
1797.000000	0.000757  
1796.000000	0.000906  
1795.000000	0.001096  
1794.000000	0.001262  
1793.000000	0.001354  
1792.000000	0.001336  
1791.000000	0.001190  
1790.000000	0.001002  
1789.000000	0.000908  
1788.000000	0.000947  
1787.000000	0.001053  
1786.000000	0.001149  
1785.000000	0.001209  
1784.000000	0.001256  
1783.000000	0.001317  
1782.000000	0.001398  
1781.000000	0.001476  
1780.000000	0.001533  
1779.000000	0.001552  
1778.000000	0.001529  
1777.000000	0.001497  
1776.000000	0.001478  
1775.000000	0.001482  
1774.000000	0.001487  
1773.000000	0.001510  
1772.000000	0.001609  
1771.000000	0.001738  
1770.000000	0.001831  
1769.000000	0.001927  
1768.000000	0.002042  
1767.000000	0.002129  
1766.000000	0.002196  
1765.000000	0.002330  
1764.000000	0.002565  
1763.000000	0.002832  
1762.000000	0.003011  
1761.000000	0.003091  
1760.000000	0.003225  
1759.000000	0.003511  
1758.000000	0.003917  
1757.000000	0.004397  
1756.000000	0.004919  
1755.000000	0.005489  
1754.000000	0.006166  
1753.000000	0.007039  
1752.000000	0.008230  
1751.000000	0.009833  
1750.000000	0.011916  
1749.000000	0.014623  
1748.000000	0.017858  
1747.000000	0.021240  
1746.000000	0.024648  
1745.000000	0.028249  
1744.000000	0.031886  
1743.000000	0.034900  
1742.000000	0.036815  
1741.000000	0.037610  
1740.000000	0.037266  
1739.000000	0.035927  
1738.000000	0.034232  
1737.000000	0.032609  
1736.000000	0.030779  
1735.000000	0.028041  
1734.000000	0.024692  
1733.000000	0.022185  
1732.000000	0.020836  
1731.000000	0.020061  
1730.000000	0.019555  
1729.000000	0.019241  
1728.000000	0.019104  
1727.000000	0.019136  
1726.000000	0.019345  
1725.000000	0.019690  
1724.000000	0.020072  
1723.000000	0.020371  
1722.000000	0.020525  
1721.000000	0.020537  
1720.000000	0.020391  
1719.000000	0.020067  
1718.000000	0.019590  
1717.000000	0.018943  
1716.000000	0.018022  
1715.000000	0.016867  
1714.000000	0.015671  
1713.000000	0.014570  
1712.000000	0.013563  
1711.000000	0.012575  
1710.000000	0.011590  
1709.000000	0.010657  
1708.000000	0.009790  
1707.000000	0.008924  
1706.000000	0.008057  
1705.000000	0.007347  
1704.000000	0.006886  
1703.000000	0.006609  
1702.000000	0.006357  
1701.000000	0.005963  
1700.000000	0.005437  
1699.000000	0.005030  
1698.000000	0.004936  
1697.000000	0.004946  
1696.000000	0.004751  
1695.000000	0.004334  
1694.000000	0.003939  
1693.000000	0.003759  
1692.000000	0.003715  
1691.000000	0.003672  
1690.000000	0.003613  
1689.000000	0.003563  
1688.000000	0.003520  
1687.000000	0.003488  
1686.000000	0.003414  
1685.000000	0.003288  
1684.000000	0.003259  
1683.000000	0.003289  
1682.000000	0.003310  
1681.000000	0.003362  
1680.000000	0.003345  
1679.000000	0.003237  
1678.000000	0.003153  
1677.000000	0.003139  
1676.000000	0.003124  
1675.000000	0.003025  
1674.000000	0.002900  
1673.000000	0.002862  
1672.000000	0.002894  
1671.000000	0.002910  
1670.000000	0.002947  
1669.000000	0.003011  
1668.000000	0.003004  
1667.000000	0.002953  
1666.000000	0.002950  
1665.000000	0.003002  
1664.000000	0.003087  
1663.000000	0.003201  
1662.000000	0.003329  
1661.000000	0.003405  
1660.000000	0.003417  
1659.000000	0.003409  
1658.000000	0.003443  
1657.000000	0.003518  
1656.000000	0.003582  
1655.000000	0.003506  
1654.000000	0.003429  
1653.000000	0.003788  
1652.000000	0.004113  
1651.000000	0.004146  
1650.000000	0.004169  
1649.000000	0.004118  
1648.000000	0.003990  
1647.000000	0.003913  
1646.000000	0.003920  
1645.000000	0.003920  
1644.000000	0.003906  
1643.000000	0.003898  
1642.000000	0.003898  
1641.000000	0.003920  
1640.000000	0.003937  
1639.000000	0.003905  
1638.000000	0.003827  
1637.000000	0.003776  
1636.000000	0.003803  
1635.000000	0.003775  
1634.000000	0.003619  
1633.000000	0.003510  
1632.000000	0.003494  
1631.000000	0.003462  
1630.000000	0.003382  
1629.000000	0.003302  
1628.000000	0.003275  
1627.000000	0.003297  
1626.000000	0.003341  
1625.000000	0.003363  
1624.000000	0.003311  
1623.000000	0.003183  
1622.000000	0.003058  
1621.000000	0.002992  
1620.000000	0.002969  
1619.000000	0.002937  
1618.000000	0.002904  
1617.000000	0.002955  
1616.000000	0.003053  
1615.000000	0.003065  
1614.000000	0.003021  
1613.000000	0.002988  
1612.000000	0.002939  
1611.000000	0.002841  
1610.000000	0.002740  
1609.000000	0.002710  
1608.000000	0.002744  
1607.000000	0.002782  
1606.000000	0.002813  
1605.000000	0.002859  
1604.000000	0.002905  
1603.000000	0.002901  
1602.000000	0.002822  
1601.000000	0.002691  
1600.000000	0.002537  
1599.000000	0.002383  
1598.000000	0.002273  
1597.000000	0.002249  
1596.000000	0.002305  
1595.000000	0.002390  
1594.000000	0.002464  
1593.000000	0.002523  
1592.000000	0.002581  
1591.000000	0.002647  
1590.000000	0.002723  
1589.000000	0.002783  
1588.000000	0.002795  
1587.000000	0.002763  
1586.000000	0.002739  
1585.000000	0.002764  
1584.000000	0.002820  
1583.000000	0.002873  
1582.000000	0.002914  
1581.000000	0.002948  
1580.000000	0.002977  
1579.000000	0.003009  
1578.000000	0.003058  
1577.000000	0.003143  
1576.000000	0.003244  
1575.000000	0.003245  
1574.000000	0.003143  
1573.000000	0.003031  
1572.000000	0.002920  
1571.000000	0.002819  
1570.000000	0.002841  
1569.000000	0.003016  
1568.000000	0.003174  
1567.000000	0.003247  
1566.000000	0.003258  
1565.000000	0.003207  
1564.000000	0.003095  
1563.000000	0.002986  
1562.000000	0.002950  
1561.000000	0.002971  
1560.000000	0.002940  
1559.000000	0.002862  
1558.000000	0.002825  
1557.000000	0.002810  
1556.000000	0.002919  
1555.000000	0.003017  
1554.000000	0.002993  
1553.000000	0.002941  
1552.000000	0.002945  
1551.000000	0.002959  
1550.000000	0.002901  
1549.000000	0.002799  
1548.000000	0.002735  
1547.000000	0.002762  
1546.000000	0.002880  
1545.000000	0.003074  
1544.000000	0.003228  
1543.000000	0.003187  
1542.000000	0.003010  
1541.000000	0.003055  
1540.000000	0.003429  
1539.000000	0.003605  
1538.000000	0.003499  
1537.000000	0.003455  
1536.000000	0.003520  
1535.000000	0.003605  
1534.000000	0.003706  
1533.000000	0.003788  
1532.000000	0.003768  
1531.000000	0.003702  
1530.000000	0.003687  
1529.000000	0.003745  
1528.000000	0.003812  
1527.000000	0.003785  
1526.000000	0.003657  
1525.000000	0.003549  
1524.000000	0.003549  
1523.000000	0.003662  
1522.000000	0.003965  
1521.000000	0.004392  
1520.000000	0.004617  
1519.000000	0.004679  
1518.000000	0.004797  
1517.000000	0.004999  
1516.000000	0.005097  
1515.000000	0.005040  
1514.000000	0.005052  
1513.000000	0.005254  
1512.000000	0.005542  
1511.000000	0.005766  
1510.000000	0.005941  
1509.000000	0.006208  
1508.000000	0.006553  
1507.000000	0.006642  
1506.000000	0.006513  
1505.000000	0.006485  
1504.000000	0.006651  
1503.000000	0.006882  
1502.000000	0.007065  
1501.000000	0.007236  
1500.000000	0.007402  
1499.000000	0.007555  
1498.000000	0.007828  
1497.000000	0.008341  
1496.000000	0.008804  
1495.000000	0.008935  
1494.000000	0.008939  
1493.000000	0.009059  
1492.000000	0.009308  
1491.000000	0.009662  
1490.000000	0.010259  
1489.000000	0.011076  
1488.000000	0.011784  
1487.000000	0.012314  
1486.000000	0.012902  
1485.000000	0.013681  
1484.000000	0.014589  
1483.000000	0.015615  
1482.000000	0.016862  
1481.000000	0.018305  
1480.000000	0.019688  
1479.000000	0.020932  
1478.000000	0.022305  
1477.000000	0.024043  
1476.000000	0.025991  
1475.000000	0.028049  
1474.000000	0.031170  
1473.000000	0.036690  
1472.000000	0.043476  
1471.000000	0.049308  
1470.000000	0.054287  
1469.000000	0.059064  
1468.000000	0.063555  
1467.000000	0.067457  
1466.000000	0.070700  
1465.000000	0.073146  
1464.000000	0.074464  
1463.000000	0.074897  
1462.000000	0.075090  
1461.000000	0.075365  
1460.000000	0.075753  
1459.000000	0.076371  
1458.000000	0.077255  
1457.000000	0.077162  
1456.000000	0.075098  
1455.000000	0.072417  
1454.000000	0.069950  
1453.000000	0.067470  
1452.000000	0.064850  
1451.000000	0.062313  
1450.000000	0.059971  
1449.000000	0.057563  
1448.000000	0.054888  
1447.000000	0.052202  
1446.000000	0.049765  
1445.000000	0.047460  
1444.000000	0.045147  
1443.000000	0.042903  
1442.000000	0.040873  
1441.000000	0.039109  
1440.000000	0.037614  
1439.000000	0.036376  
1438.000000	0.035279  
1437.000000	0.034126  
1436.000000	0.032920  
1435.000000	0.031898  
1434.000000	0.031054  
1433.000000	0.030126  
1432.000000	0.028956  
1431.000000	0.027624  
1430.000000	0.026289  
1429.000000	0.025078  
1428.000000	0.024124  
1427.000000	0.023501  
1426.000000	0.023126  
1425.000000	0.022825  
1424.000000	0.022533  
1423.000000	0.022311  
1422.000000	0.022177  
1421.000000	0.022060  
1420.000000	0.021892  
1419.000000	0.021626  
1418.000000	0.021177  
1417.000000	0.020589  
1416.000000	0.020017  
1415.000000	0.019536  
1414.000000	0.019130  
1413.000000	0.018779  
1412.000000	0.018522  
1411.000000	0.018386  
1410.000000	0.018293  
1409.000000	0.018167  
1408.000000	0.018042  
1407.000000	0.017999  
1406.000000	0.018049  
1405.000000	0.018136  
1404.000000	0.018243  
1403.000000	0.018408  
1402.000000	0.018636  
1401.000000	0.018918  
1400.000000	0.019290  
1399.000000	0.019761  
1398.000000	0.020204  
1397.000000	0.020530  
1396.000000	0.020777  
1395.000000	0.020989  
1394.000000	0.021148  
1393.000000	0.021285  
1392.000000	0.021512  
1391.000000	0.021895  
1390.000000	0.022473  
1389.000000	0.023387  
1388.000000	0.024834  
1387.000000	0.026721  
1386.000000	0.028657  
1385.000000	0.030563  
1384.000000	0.032736  
1383.000000	0.035412  
1382.000000	0.038562  
1381.000000	0.041943  
1380.000000	0.045127  
1379.000000	0.047471  
1378.000000	0.048430  
1377.000000	0.047917  
1376.000000	0.046086  
1375.000000	0.043076  
1374.000000	0.039422  
1373.000000	0.036118  
1372.000000	0.033734  
1371.000000	0.032173  
1370.000000	0.031163  
1369.000000	0.030514  
1368.000000	0.030085  
1367.000000	0.029715  
1366.000000	0.029245  
1365.000000	0.028543  
1364.000000	0.027527  
1363.000000	0.026276  
1362.000000	0.025072  
1361.000000	0.024163  
1360.000000	0.023575  
1359.000000	0.023228  
1358.000000	0.023034  
1357.000000	0.022911  
1356.000000	0.022784  
1355.000000	0.022622  
1354.000000	0.022454  
1353.000000	0.022330  
1352.000000	0.022272  
1351.000000	0.022250  
1350.000000	0.022213  
1349.000000	0.022126  
1348.000000	0.022011  
1347.000000	0.021904  
1346.000000	0.021817  
1345.000000	0.021745  
1344.000000	0.021714  
1343.000000	0.021766  
1342.000000	0.021895  
1341.000000	0.022008  
1340.000000	0.021961  
1339.000000	0.021679  
1338.000000	0.021241  
1337.000000	0.020788  
1336.000000	0.020395  
1335.000000	0.020064  
1334.000000	0.019768  
1333.000000	0.019495  
1332.000000	0.019272  
1331.000000	0.019135  
1330.000000	0.019082  
1329.000000	0.019070  
1328.000000	0.019074  
1327.000000	0.019097  
1326.000000	0.019125  
1325.000000	0.019112  
1324.000000	0.019057  
1323.000000	0.019017  
1322.000000	0.019046  
1321.000000	0.019130  
1320.000000	0.019213  
1319.000000	0.019262  
1318.000000	0.019276  
1317.000000	0.019278  
1316.000000	0.019301  
1315.000000	0.019376  
1314.000000	0.019488  
1313.000000	0.019581  
1312.000000	0.019615  
1311.000000	0.019615  
1310.000000	0.019624  
1309.000000	0.019638  
1308.000000	0.019619  
1307.000000	0.019552  
1306.000000	0.019465  
1305.000000	0.019398  
1304.000000	0.019374  
1303.000000	0.019387  
1302.000000	0.019397  
1301.000000	0.019344  
1300.000000	0.019210  
1299.000000	0.019039  
1298.000000	0.018904  
1297.000000	0.018833  
1296.000000	0.018793  
1295.000000	0.018735  
1294.000000	0.018634  
1293.000000	0.018492  
1292.000000	0.018328  
1291.000000	0.018167  
1290.000000	0.018042  
1289.000000	0.017972  
1288.000000	0.017951  
1287.000000	0.017956  
1286.000000	0.017980  
1285.000000	0.018039  
1284.000000	0.018143  
1283.000000	0.018268  
1282.000000	0.018360  
1281.000000	0.018398  
1280.000000	0.018416  
1279.000000	0.018458  
1278.000000	0.018530  
1277.000000	0.018614  
1276.000000	0.018710  
1275.000000	0.018826  
1274.000000	0.018942  
1273.000000	0.019015  
1272.000000	0.019035  
1271.000000	0.019035  
1270.000000	0.019035  
1269.000000	0.019023  
1268.000000	0.018996  
1267.000000	0.018987  
1266.000000	0.019021  
1265.000000	0.019079  
1264.000000	0.019141  
1263.000000	0.019237  
1262.000000	0.019412  
1261.000000	0.019658  
1260.000000	0.019904  
1259.000000	0.020080  
1258.000000	0.020180  
1257.000000	0.020261  
1256.000000	0.020402  
1255.000000	0.020652  
1254.000000	0.020990  
1253.000000	0.021333  
1252.000000	0.021602  
1251.000000	0.021793  
1250.000000	0.021966  
1249.000000	0.022172  
1248.000000	0.022405  
1247.000000	0.022618  
1246.000000	0.022775  
1245.000000	0.022859  
1244.000000	0.022854  
1243.000000	0.022746  
1242.000000	0.022538  
1241.000000	0.022262  
1240.000000	0.021955  
1239.000000	0.021622  
1238.000000	0.021248  
1237.000000	0.020829  
1236.000000	0.020402  
1235.000000	0.020022  
1234.000000	0.019713  
1233.000000	0.019455  
1232.000000	0.019231  
1231.000000	0.019052  
1230.000000	0.018944  
1229.000000	0.018910  
1228.000000	0.018930  
1227.000000	0.018984  
1226.000000	0.019062  
1225.000000	0.019164  
1224.000000	0.019301  
1223.000000	0.019487  
1222.000000	0.019718  
1221.000000	0.019968  
1220.000000	0.020221  
1219.000000	0.020473  
1218.000000	0.020720  
1217.000000	0.020944  
1216.000000	0.021136  
1215.000000	0.021311  
1214.000000	0.021483  
1213.000000	0.021633  
1212.000000	0.021726  
1211.000000	0.021765  
1210.000000	0.021797  
1209.000000	0.021873  
1208.000000	0.022004  
1207.000000	0.022177  
1206.000000	0.022375  
1205.000000	0.022589  
1204.000000	0.022812  
1203.000000	0.023041  
1202.000000	0.023269  
1201.000000	0.023478  
1200.000000	0.023653  
1199.000000	0.023819  
1198.000000	0.024043  
1197.000000	0.024380  
1196.000000	0.024809  
1195.000000	0.025247  
1194.000000	0.025621  
1193.000000	0.025918  
1192.000000	0.026172  
1191.000000	0.026427  
1190.000000	0.026707  
1189.000000	0.027017  
1188.000000	0.027346  
1187.000000	0.027674  
1186.000000	0.027985  
1185.000000	0.028276  
1184.000000	0.028559  
1183.000000	0.028847  
1182.000000	0.029136  
1181.000000	0.029392  
1180.000000	0.029563  
1179.000000	0.029624  
1178.000000	0.029601  
1177.000000	0.029544  
1176.000000	0.029475  
1175.000000	0.029370  
1174.000000	0.029194  
1173.000000	0.028943  
1172.000000	0.028645  
1171.000000	0.028328  
1170.000000	0.027993  
1169.000000	0.027614  
1168.000000	0.027171  
1167.000000	0.026678  
1166.000000	0.026155  
1165.000000	0.025585  
1164.000000	0.024934  
1163.000000	0.024211  
1162.000000	0.023481  
1161.000000	0.022818  
1160.000000	0.022249  
1159.000000	0.021760  
1158.000000	0.021316  
1157.000000	0.020874  
1156.000000	0.020418  
1155.000000	0.019993  
1154.000000	0.019670  
1153.000000	0.019450  
1152.000000	0.019236  
1151.000000	0.018934  
1150.000000	0.018569  
1149.000000	0.018250  
1148.000000	0.018045  
1147.000000	0.017916  
1146.000000	0.017783  
1145.000000	0.017609  
1144.000000	0.017393  
1143.000000	0.017147  
1142.000000	0.016886  
1141.000000	0.016640  
1140.000000	0.016437  
1139.000000	0.016277  
1138.000000	0.016135  
1137.000000	0.015998  
1136.000000	0.015860  
1135.000000	0.015713  
1134.000000	0.015560  
1133.000000	0.015435  
1132.000000	0.015389  
1131.000000	0.015448  
1130.000000	0.015604  
1129.000000	0.015848  
1128.000000	0.016199  
1127.000000	0.016668  
1126.000000	0.017232  
1125.000000	0.017877  
1124.000000	0.018627  
1123.000000	0.019534  
1122.000000	0.020619  
1121.000000	0.021852  
1120.000000	0.023158  
1119.000000	0.024438  
1118.000000	0.025584  
1117.000000	0.026511  
1116.000000	0.027161  
1115.000000	0.027500  
1114.000000	0.027522  
1113.000000	0.027271  
1112.000000	0.026834  
1111.000000	0.026297  
1110.000000	0.025723  
1109.000000	0.025158  
1108.000000	0.024640  
1107.000000	0.024184  
1106.000000	0.023758  
1105.000000	0.023324  
1104.000000	0.022889  
1103.000000	0.022512  
1102.000000	0.022229  
1101.000000	0.022005  
1100.000000	0.021768  
1099.000000	0.021486  
1098.000000	0.021194  
1097.000000	0.020961  
1096.000000	0.020823  
1095.000000	0.020767  
1094.000000	0.020756  
1093.000000	0.020817  
1092.000000	0.021055  
1091.000000	0.021575  
1090.000000	0.022370  
1089.000000	0.023341  
1088.000000	0.024437  
1087.000000	0.025740  
1086.000000	0.027402  
1085.000000	0.029524  
1084.000000	0.032097  
1083.000000	0.035043  
1082.000000	0.038272  
1081.000000	0.041710  
1080.000000	0.045304  
1079.000000	0.049016  
1078.000000	0.052817  
1077.000000	0.056638  
1076.000000	0.060314  
1075.000000	0.063582  
1074.000000	0.066151  
1073.000000	0.067753  
1072.000000	0.068181  
1071.000000	0.067378  
1070.000000	0.065512  
1069.000000	0.062930  
1068.000000	0.060032  
1067.000000	0.057221  
1066.000000	0.054870  
1065.000000	0.053215  
1064.000000	0.052265  
1063.000000	0.051829  
1062.000000	0.051609  
1061.000000	0.051255  
1060.000000	0.050441  
1059.000000	0.049004  
1058.000000	0.047070  
1057.000000	0.044985  
1056.000000	0.043128  
1055.000000	0.041808  
1054.000000	0.041251  
1053.000000	0.041577  
1052.000000	0.042744  
1051.000000	0.044531  
1050.000000	0.046615  
1049.000000	0.048655  
1048.000000	0.050346  
1047.000000	0.051486  
1046.000000	0.052070  
1045.000000	0.052242  
1044.000000	0.052158  
1043.000000	0.051903  
1042.000000	0.051523  
1041.000000	0.051047  
1040.000000	0.050470  
1039.000000	0.049750  
1038.000000	0.048884  
1037.000000	0.047958  
1036.000000	0.047153  
1035.000000	0.046724  
1034.000000	0.046945  
1033.000000	0.047975  
1032.000000	0.049673  
1031.000000	0.051529  
1030.000000	0.052815  
1029.000000	0.052894  
1028.000000	0.051492  
1027.000000	0.048791  
1026.000000	0.045323  
1025.000000	0.041697  
1024.000000	0.038355  
1023.000000	0.035508  
1022.000000	0.033197  
1021.000000	0.031376  
1020.000000	0.029980  
1019.000000	0.028989  
1018.000000	0.028451  
1017.000000	0.028432  
1016.000000	0.028939  
1015.000000	0.029878  
1014.000000	0.031067  
1013.000000	0.032274  
1012.000000	0.033241  
1011.000000	0.033712  
1010.000000	0.033513  
1009.000000	0.032622  
1008.000000	0.031170  
1007.000000	0.029371  
1006.000000	0.027441  
1005.000000	0.025554  
1004.000000	0.023833  
1003.000000	0.022362  
1002.000000	0.021180  
1001.000000	0.020295  
1000.000000	0.019736  
999.000000	 0.019584  
998.000000	 0.019922  
997.000000	 0.020764  
996.000000	 0.022024  
995.000000	 0.023535  
994.000000	 0.025057  
993.000000	 0.026287  
992.000000	 0.026939  
991.000000	 0.026884  
990.000000	 0.026212  
989.000000	 0.025145  
988.000000	 0.023888  
987.000000	 0.022559  
986.000000	 0.021225  
985.000000	 0.019942  
984.000000	 0.018772  
983.000000	 0.017789  
982.000000	 0.017058  
981.000000	 0.016592  
980.000000	 0.016325  
979.000000	 0.016158  
978.000000	 0.016046  
977.000000	 0.016026  
976.000000	 0.016161  
975.000000	 0.016470  
974.000000	 0.016922  
973.000000	 0.017470  
972.000000	 0.018087  
971.000000	 0.018757  
970.000000	 0.019471  
969.000000	 0.020225  
968.000000	 0.021009  
967.000000	 0.021786  
966.000000	 0.022492  
965.000000	 0.023063  
964.000000	 0.023455  
963.000000	 0.023679  
962.000000	 0.023827  
961.000000	 0.024056  
960.000000	 0.024515  
959.000000	 0.025272  
958.000000	 0.026311  
957.000000	 0.027576  
956.000000	 0.029002  
955.000000	 0.030480  
954.000000	 0.031814  
953.000000	 0.032725  
952.000000	 0.032940  
951.000000	 0.032332  
950.000000	 0.031015  
949.000000	 0.029291  
948.000000	 0.027481  
947.000000	 0.025794  
946.000000	 0.024308  
945.000000	 0.023037  
944.000000	 0.021965  
943.000000	 0.021047  
942.000000	 0.020204  
941.000000	 0.019343  
940.000000	 0.018409  
939.000000	 0.017392  
938.000000	 0.016320  
937.000000	 0.015258  
936.000000	 0.014295  
935.000000	 0.013503  
934.000000	 0.012890  
933.000000	 0.012401  
932.000000	 0.011968  
931.000000	 0.011556  
930.000000	 0.011158  
929.000000	 0.010804  
928.000000	 0.010552  
927.000000	 0.010450  
926.000000	 0.010459  
925.000000	 0.010478  
924.000000	 0.010459  
923.000000	 0.010464  
922.000000	 0.010572  
921.000000	 0.010757  
920.000000	 0.010914  
919.000000	 0.010981  
918.000000	 0.010987  
917.000000	 0.010971  
916.000000	 0.010931  
915.000000	 0.010861  
914.000000	 0.010792  
913.000000	 0.010750  
912.000000	 0.010722  
911.000000	 0.010692  
910.000000	 0.010687  
909.000000	 0.010755  
908.000000	 0.010922  
907.000000	 0.011197  
906.000000	 0.011583  
905.000000	 0.012059  
904.000000	 0.012561  
903.000000	 0.013024  
902.000000	 0.013414  
901.000000	 0.013690  
900.000000	 0.013751  
899.000000	 0.013494  
898.000000	 0.012940  
897.000000	 0.012260  
896.000000	 0.011656  
895.000000	 0.011236  
894.000000	 0.010995  
893.000000	 0.010866  
892.000000	 0.010775  
891.000000	 0.010668  
890.000000	 0.010549  
889.000000	 0.010458  
888.000000	 0.010424  
887.000000	 0.010427  
886.000000	 0.010421  
885.000000	 0.010401  
884.000000	 0.010414  
883.000000	 0.010525  
882.000000	 0.010752  
881.000000	 0.011027  
880.000000	 0.011229  
879.000000	 0.011274  
878.000000	 0.011190  
877.000000	 0.011081  
876.000000	 0.011004  
875.000000	 0.010922  
874.000000	 0.010794  
873.000000	 0.010664  
872.000000	 0.010612  
871.000000	 0.010659  
870.000000	 0.010760  
869.000000	 0.010875  
868.000000	 0.011004  
867.000000	 0.011135  
866.000000	 0.011228  
865.000000	 0.011261  
864.000000	 0.011288  
863.000000	 0.011400  
862.000000	 0.011650  
861.000000	 0.012017  
860.000000	 0.012450  
859.000000	 0.012930  
858.000000	 0.013501  
857.000000	 0.014241  
856.000000	 0.015183  
855.000000	 0.016285  
854.000000	 0.017484  
853.000000	 0.018783  
852.000000	 0.020246  
851.000000	 0.021885  
850.000000	 0.023563  
849.000000	 0.025042  
848.000000	 0.026101  
847.000000	 0.026613  
846.000000	 0.026526  
845.000000	 0.025823  
844.000000	 0.024563  
843.000000	 0.022935  
842.000000	 0.021229  
841.000000	 0.019685  
840.000000	 0.018387  
839.000000	 0.017296  
838.000000	 0.016361  
837.000000	 0.015561  
836.000000	 0.014882  
835.000000	 0.014312  
834.000000	 0.013871  
833.000000	 0.013617  
832.000000	 0.013571  
831.000000	 0.013662  
830.000000	 0.013749  
829.000000	 0.013729  
828.000000	 0.013605  
827.000000	 0.013475  
826.000000	 0.013438  
825.000000	 0.013520  
824.000000	 0.013655  
823.000000	 0.013747  
822.000000	 0.013742  
821.000000	 0.013638  
820.000000	 0.013462  
819.000000	 0.013278  
818.000000	 0.013202  
817.000000	 0.013345  
816.000000	 0.013691  
815.000000	 0.014077  
814.000000	 0.014327  
813.000000	 0.014420  
812.000000	 0.014484  
811.000000	 0.014637  
810.000000	 0.014878  
809.000000	 0.015128  
808.000000	 0.015326  
807.000000	 0.015454  
806.000000	 0.015499  
805.000000	 0.015441  
804.000000	 0.015271  
803.000000	 0.015015  
802.000000	 0.014719  
801.000000	 0.014432  
800.000000	 0.014188  
799.000000	 0.014017  
798.000000	 0.013948  
797.000000	 0.013988  
796.000000	 0.014079  
795.000000	 0.014111  
794.000000	 0.014019  
793.000000	 0.013882  
792.000000	 0.013877  
791.000000	 0.014088  
790.000000	 0.014415  
789.000000	 0.014690  
788.000000	 0.014870  
787.000000	 0.015044  
786.000000	 0.015279  
785.000000	 0.015536  
784.000000	 0.015767  
783.000000	 0.016026  
782.000000	 0.016420  
781.000000	 0.016963  
780.000000	 0.017532  
779.000000	 0.017966  
778.000000	 0.018188  
777.000000	 0.018245  
776.000000	 0.018267  
775.000000	 0.018383  
774.000000	 0.018645  
773.000000	 0.019005  
772.000000	 0.019377  
771.000000	 0.019732  
770.000000	 0.020098  
769.000000	 0.020480  
768.000000	 0.020836  
767.000000	 0.021142  
766.000000	 0.021429  
765.000000	 0.021719  
764.000000	 0.021971  
763.000000	 0.022132  
762.000000	 0.022223  
761.000000	 0.022313  
760.000000	 0.022425  
759.000000	 0.022531  
758.000000	 0.022652  
757.000000	 0.022899  
756.000000	 0.023366  
755.000000	 0.024017  
754.000000	 0.024696  
753.000000	 0.025275  
752.000000	 0.025771  
751.000000	 0.026321  
750.000000	 0.027030  
749.000000	 0.027853  
748.000000	 0.028661  
747.000000	 0.029438  
746.000000	 0.030366  
745.000000	 0.031638  
744.000000	 0.033216  
743.000000	 0.034830  
742.000000	 0.036248  
741.000000	 0.037455  
740.000000	 0.038548  
739.000000	 0.039519  
738.000000	 0.040226  
737.000000	 0.040541  
736.000000	 0.040474  
735.000000	 0.040150  
734.000000	 0.039716  
733.000000	 0.039284  
732.000000	 0.038947  
731.000000	 0.038815  
730.000000	 0.038996  
729.000000	 0.039510  
728.000000	 0.040260  
727.000000	 0.041116  
726.000000	 0.042002  
725.000000	 0.042865  
724.000000	 0.043584  
723.000000	 0.043970  
722.000000	 0.043873  
721.000000	 0.043272  
720.000000	 0.042282  
719.000000	 0.041079  
718.000000	 0.039821  
717.000000	 0.038645  
716.000000	 0.037686  
715.000000	 0.037037  
714.000000	 0.036684  
713.000000	 0.036484  
712.000000	 0.036237  
711.000000	 0.035821  
710.000000	 0.035273  
709.000000	 0.034750  
708.000000	 0.034406  
707.000000	 0.034305  
706.000000	 0.034426  
705.000000	 0.034710  
704.000000	 0.035067  
703.000000	 0.035369  
702.000000	 0.035488  
701.000000	 0.035408  
700.000000	 0.035237  
699.000000	 0.035079  
698.000000	 0.034881  
697.000000	 0.034452  
696.000000	 0.033704  
695.000000	 0.032803  
694.000000	 0.032055  
693.000000	 0.031655  
692.000000	 0.031555  
691.000000	 0.031584  
690.000000	 0.031609  
689.000000	 0.031574  
688.000000	 0.031474  
687.000000	 0.031326  
686.000000	 0.031148  
685.000000	 0.030936  
684.000000	 0.030674  
683.000000	 0.030400  
682.000000	 0.030193  
681.000000	 0.030072  
680.000000	 0.029971  
679.000000	 0.029872  
678.000000	 0.029893  
677.000000	 0.030125  
676.000000	 0.030470  
675.000000	 0.030718  
674.000000	 0.030698  
673.000000	 0.030451  
672.000000	 0.030230  
671.000000	 0.030589  
670.000000	 0.031932  
669.000000	 0.034289  
668.000000	 0.036170  
667.000000	 0.035392  
666.000000	 0.032970  
665.000000	 0.031147  
664.000000	 0.030388  
663.000000	 0.030239  
662.000000	 0.030095  
661.000000	 0.029781  
660.000000	 0.029522  
659.000000	 0.029534  
658.000000	 0.029820  
657.000000	 0.030204  
656.000000	 0.030514  
655.000000	 0.030664  
654.000000	 0.030640  
653.000000	 0.030498  
652.000000	 0.030299  
651.000000	 0.030110  
650.000000	 0.029984  

