PE IR                   SPECTRUM    ASCII       PEDS        1.60        
  -1
NB430~1.ASC
17/05/24
07:50:17.00
17/05/24
07:50:17.00
Admin

650.000000
4









SPECTRUM ONE,CPU32 MAIN 00.02.6000 25-JUNE-2003 12:00:00
MIR TGS
MIR
OPTKBR
68128
0.200000

4.000000
STRONG
RATIO
SPECTRUM
MAGNITUDE
UNIVERSAL ATR
DOUBLE

COMBINED


0


#HDR
-1
-1
#GR
CM-1
A
0.00000011920928955078
0.0
4000.000000
-1.000000
3351
8
0.195209
-0.001455
#DATA
4000.000000	0.002881  
3999.000000	0.002831  
3998.000000	0.002739  
3997.000000	0.002617  
3996.000000	0.002493  
3995.000000	0.002404  
3994.000000	0.002339  
3993.000000	0.002320  
3992.000000	0.002325  
3991.000000	0.002324  
3990.000000	0.002312  
3989.000000	0.002312  
3988.000000	0.002359  
3987.000000	0.002468  
3986.000000	0.002620  
3985.000000	0.002770  
3984.000000	0.002869  
3983.000000	0.002896  
3982.000000	0.002870  
3981.000000	0.002827  
3980.000000	0.002784  
3979.000000	0.002726  
3978.000000	0.002633  
3977.000000	0.002510  
3976.000000	0.002396  
3975.000000	0.002338  
3974.000000	0.002362  
3973.000000	0.002460  
3972.000000	0.002597  
3971.000000	0.002728  
3970.000000	0.002810  
3969.000000	0.002816  
3968.000000	0.002738  
3967.000000	0.002601  
3966.000000	0.002455  
3965.000000	0.002359  
3964.000000	0.002348  
3963.000000	0.002414  
3962.000000	0.002509  
3961.000000	0.002581  
3960.000000	0.002594  
3959.000000	0.002534  
3958.000000	0.002425  
3957.000000	0.002318  
3956.000000	0.002258  
3955.000000	0.002241  
3954.000000	0.002224  
3953.000000	0.002174  
3952.000000	0.002104  
3951.000000	0.002052  
3950.000000	0.002034  
3949.000000	0.002015  
3948.000000	0.001946  
3947.000000	0.001836  
3946.000000	0.001750  
3945.000000	0.001749  
3944.000000	0.001842  
3943.000000	0.001997  
3942.000000	0.002181  
3941.000000	0.002384  
3940.000000	0.002581  
3939.000000	0.002713  
3938.000000	0.002730  
3937.000000	0.002651  
3936.000000	0.002540  
3935.000000	0.002438  
3934.000000	0.002342  
3933.000000	0.002249  
3932.000000	0.002193  
3931.000000	0.002208  
3930.000000	0.002270  
3929.000000	0.002324  
3928.000000	0.002325  
3927.000000	0.002255  
3926.000000	0.002109  
3925.000000	0.001922  
3924.000000	0.001771  
3923.000000	0.001711  
3922.000000	0.001728  
3921.000000	0.001782  
3920.000000	0.001865  
3919.000000	0.001989  
3918.000000	0.002106  
3917.000000	0.002151  
3916.000000	0.002142  
3915.000000	0.002184  
3914.000000	0.002348  
3913.000000	0.002601  
3912.000000	0.002831  
3911.000000	0.002926  
3910.000000	0.002827  
3909.000000	0.002558  
3908.000000	0.002218  
3907.000000	0.001941  
3906.000000	0.001821  
3905.000000	0.001842  
3904.000000	0.001897  
3903.000000	0.001914  
3902.000000	0.001933  
3901.000000	0.002016  
3900.000000	0.002144  
3899.000000	0.002257  
3898.000000	0.002328  
3897.000000	0.002350  
3896.000000	0.002313  
3895.000000	0.002238  
3894.000000	0.002179  
3893.000000	0.002173  
3892.000000	0.002148  
3891.000000	0.002033  
3890.000000	0.001915  
3889.000000	0.001944  
3888.000000	0.002097  
3887.000000	0.002137  
3886.000000	0.001893  
3885.000000	0.001541  
3884.000000	0.001433  
3883.000000	0.001697  
3882.000000	0.002136  
3881.000000	0.002431  
3880.000000	0.002434  
3879.000000	0.002292  
3878.000000	0.002222  
3877.000000	0.002267  
3876.000000	0.002295  
3875.000000	0.002174  
3874.000000	0.001955  
3873.000000	0.001817  
3872.000000	0.001796  
3871.000000	0.001694  
3870.000000	0.001373  
3869.000000	0.001033  
3868.000000	0.000974  
3867.000000	0.001208  
3866.000000	0.001489  
3865.000000	0.001664  
3864.000000	0.001803  
3863.000000	0.001962  
3862.000000	0.002047  
3861.000000	0.001979  
3860.000000	0.001779  
3859.000000	0.001534  
3858.000000	0.001341  
3857.000000	0.001297  
3856.000000	0.001434  
3855.000000	0.001578  
3854.000000	0.001483  
3853.000000	0.001270  
3852.000000	0.001286  
3851.000000	0.001629  
3850.000000	0.002080  
3849.000000	0.002396  
3848.000000	0.002470  
3847.000000	0.002314  
3846.000000	0.001990  
3845.000000	0.001631  
3844.000000	0.001406  
3843.000000	0.001432  
3842.000000	0.001689  
3841.000000	0.002026  
3840.000000	0.002243  
3839.000000	0.002244  
3838.000000	0.002097  
3837.000000	0.001943  
3836.000000	0.001904  
3835.000000	0.002015  
3834.000000	0.002210  
3833.000000	0.002344  
3832.000000	0.002303  
3831.000000	0.002124  
3830.000000	0.001947  
3829.000000	0.001863  
3828.000000	0.001812  
3827.000000	0.001667  
3826.000000	0.001420  
3825.000000	0.001234  
3824.000000	0.001247  
3823.000000	0.001377  
3822.000000	0.001405  
3821.000000	0.001286  
3820.000000	0.001242  
3819.000000	0.001474  
3818.000000	0.001880  
3817.000000	0.002123  
3816.000000	0.002053  
3815.000000	0.001916  
3814.000000	0.001976  
3813.000000	0.002152  
3812.000000	0.002194  
3811.000000	0.002025  
3810.000000	0.001789  
3809.000000	0.001621  
3808.000000	0.001479  
3807.000000	0.001285  
3806.000000	0.001139  
3805.000000	0.001227  
3804.000000	0.001527  
3803.000000	0.001750  
3802.000000	0.001634  
3801.000000	0.001314  
3800.000000	0.001175  
3799.000000	0.001376  
3798.000000	0.001732  
3797.000000	0.001959  
3796.000000	0.001960  
3795.000000	0.001860  
3794.000000	0.001804  
3793.000000	0.001804  
3792.000000	0.001797  
3791.000000	0.001745  
3790.000000	0.001656  
3789.000000	0.001571  
3788.000000	0.001557  
3787.000000	0.001666  
3786.000000	0.001862  
3785.000000	0.002029  
3784.000000	0.002100  
3783.000000	0.002120  
3782.000000	0.002145  
3781.000000	0.002153  
3780.000000	0.002095  
3779.000000	0.001997  
3778.000000	0.001941  
3777.000000	0.001959  
3776.000000	0.001976  
3775.000000	0.001900  
3774.000000	0.001743  
3773.000000	0.001599  
3772.000000	0.001495  
3771.000000	0.001378  
3770.000000	0.001261  
3769.000000	0.001270  
3768.000000	0.001480  
3767.000000	0.001765  
3766.000000	0.001897  
3765.000000	0.001799  
3764.000000	0.001639  
3763.000000	0.001617  
3762.000000	0.001731  
3761.000000	0.001837  
3760.000000	0.001843  
3759.000000	0.001764  
3758.000000	0.001629  
3757.000000	0.001467  
3756.000000	0.001333  
3755.000000	0.001237  
3754.000000	0.001088  
3753.000000	0.000812  
3752.000000	0.000599  
3751.000000	0.000747  
3750.000000	0.001100  
3749.000000	0.001325  
3748.000000	0.001438  
3747.000000	0.001596  
3746.000000	0.001744  
3745.000000	0.001628  
3744.000000	0.001287  
3743.000000	0.001101  
3742.000000	0.001162  
3741.000000	0.001196  
3740.000000	0.001033  
3739.000000	0.000819  
3738.000000	0.000787  
3737.000000	0.000930  
3736.000000	0.001030  
3735.000000	0.000996  
3734.000000	0.000987  
3733.000000	0.001080  
3732.000000	0.001165  
3731.000000	0.001195  
3730.000000	0.001242  
3729.000000	0.001338  
3728.000000	0.001406  
3727.000000	0.001384  
3726.000000	0.001344  
3725.000000	0.001398  
3724.000000	0.001523  
3723.000000	0.001601  
3722.000000	0.001579  
3721.000000	0.001513  
3720.000000	0.001464  
3719.000000	0.001410  
3718.000000	0.001270  
3717.000000	0.001038  
3716.000000	0.000805  
3715.000000	0.000636  
3714.000000	0.000482  
3713.000000	0.000302  
3712.000000	0.000243  
3711.000000	0.000463  
3710.000000	0.000829  
3709.000000	0.001109  
3708.000000	0.001226  
3707.000000	0.001258  
3706.000000	0.001335  
3705.000000	0.001534  
3704.000000	0.001802  
3703.000000	0.001989  
3702.000000	0.001989  
3701.000000	0.001875  
3700.000000	0.001825  
3699.000000	0.001921  
3698.000000	0.002066  
3697.000000	0.002109  
3696.000000	0.002029  
3695.000000	0.001934  
3694.000000	0.001896  
3693.000000	0.001900  
3692.000000	0.001916  
3691.000000	0.001953  
3690.000000	0.001991  
3689.000000	0.001917  
3688.000000	0.001723  
3687.000000	0.001608  
3686.000000	0.001703  
3685.000000	0.001912  
3684.000000	0.002035  
3683.000000	0.001961  
3682.000000	0.001715  
3681.000000	0.001371  
3680.000000	0.001066  
3679.000000	0.001024  
3678.000000	0.001417  
3677.000000	0.002030  
3676.000000	0.002279  
3675.000000	0.001931  
3674.000000	0.001467  
3673.000000	0.001358  
3672.000000	0.001591  
3671.000000	0.001883  
3670.000000	0.002045  
3669.000000	0.002103  
3668.000000	0.002157  
3667.000000	0.002199  
3666.000000	0.002142  
3665.000000	0.001977  
3664.000000	0.001817  
3663.000000	0.001779  
3662.000000	0.001856  
3661.000000	0.001931  
3660.000000	0.001918  
3659.000000	0.001814  
3658.000000	0.001661  
3657.000000	0.001494  
3656.000000	0.001363  
3655.000000	0.001346  
3654.000000	0.001472  
3653.000000	0.001649  
3652.000000	0.001724  
3651.000000	0.001735  
3650.000000	0.002050  
3649.000000	0.002729  
3648.000000	0.003201  
3647.000000	0.003210  
3646.000000	0.003015  
3645.000000	0.002883  
3644.000000	0.002859  
3643.000000	0.002844  
3642.000000	0.002759  
3641.000000	0.002622  
3640.000000	0.002479  
3639.000000	0.002318  
3638.000000	0.002124  
3637.000000	0.001953  
3636.000000	0.001873  
3635.000000	0.001849  
3634.000000	0.001803  
3633.000000	0.001749  
3632.000000	0.001807  
3631.000000	0.002050  
3630.000000	0.002404  
3629.000000	0.002715  
3628.000000	0.002916  
3627.000000	0.003094  
3626.000000	0.003275  
3625.000000	0.003371  
3624.000000	0.003350  
3623.000000	0.003276  
3622.000000	0.003204  
3621.000000	0.003096  
3620.000000	0.002912  
3619.000000	0.002707  
3618.000000	0.002550  
3617.000000	0.002439  
3616.000000	0.002334  
3615.000000	0.002221  
3614.000000	0.002157  
3613.000000	0.002211  
3612.000000	0.002387  
3611.000000	0.002637  
3610.000000	0.002914  
3609.000000	0.003203  
3608.000000	0.003489  
3607.000000	0.003720  
3606.000000	0.003851  
3605.000000	0.003878  
3604.000000	0.003819  
3603.000000	0.003686  
3602.000000	0.003498  
3601.000000	0.003308  
3600.000000	0.003204  
3599.000000	0.003220  
3598.000000	0.003288  
3597.000000	0.003309  
3596.000000	0.003262  
3595.000000	0.003206  
3594.000000	0.003212  
3593.000000	0.003298  
3592.000000	0.003446  
3591.000000	0.003638  
3590.000000	0.003841  
3589.000000	0.004004  
3588.000000	0.004095  
3587.000000	0.004150  
3586.000000	0.004233  
3585.000000	0.004374  
3584.000000	0.004531  
3583.000000	0.004627  
3582.000000	0.004621  
3581.000000	0.004533  
3580.000000	0.004453  
3579.000000	0.004470  
3578.000000	0.004591  
3577.000000	0.004738  
3576.000000	0.004825  
3575.000000	0.004829  
3574.000000	0.004791  
3573.000000	0.004762  
3572.000000	0.004764  
3571.000000	0.004788  
3570.000000	0.004791  
3569.000000	0.004717  
3568.000000	0.004596  
3567.000000	0.004562  
3566.000000	0.004671  
3565.000000	0.004831  
3564.000000	0.004949  
3563.000000	0.005026  
3562.000000	0.005130  
3561.000000	0.005320  
3560.000000	0.005572  
3559.000000	0.005798  
3558.000000	0.005912  
3557.000000	0.005893  
3556.000000	0.005791  
3555.000000	0.005698  
3554.000000	0.005679  
3553.000000	0.005718  
3552.000000	0.005742  
3551.000000	0.005714  
3550.000000	0.005670  
3549.000000	0.005670  
3548.000000	0.005747  
3547.000000	0.005902  
3546.000000	0.006104  
3545.000000	0.006309  
3544.000000	0.006480  
3543.000000	0.006596  
3542.000000	0.006638  
3541.000000	0.006602  
3540.000000	0.006503  
3539.000000	0.006382  
3538.000000	0.006291  
3537.000000	0.006274  
3536.000000	0.006347  
3535.000000	0.006492  
3534.000000	0.006650  
3533.000000	0.006748  
3532.000000	0.006744  
3531.000000	0.006675  
3530.000000	0.006629  
3529.000000	0.006668  
3528.000000	0.006772  
3527.000000	0.006880  
3526.000000	0.006951  
3525.000000	0.006983  
3524.000000	0.006989  
3523.000000	0.007001  
3522.000000	0.007063  
3521.000000	0.007201  
3520.000000	0.007384  
3519.000000	0.007539  
3518.000000	0.007616  
3517.000000	0.007637  
3516.000000	0.007667  
3515.000000	0.007727  
3514.000000	0.007776  
3513.000000	0.007769  
3512.000000	0.007732  
3511.000000	0.007753  
3510.000000	0.007883  
3509.000000	0.008074  
3508.000000	0.008240  
3507.000000	0.008347  
3506.000000	0.008404  
3505.000000	0.008405  
3504.000000	0.008335  
3503.000000	0.008220  
3502.000000	0.008144  
3501.000000	0.008165  
3500.000000	0.008255  
3499.000000	0.008338  
3498.000000	0.008377  
3497.000000	0.008414  
3496.000000	0.008506  
3495.000000	0.008656  
3494.000000	0.008823  
3493.000000	0.008993  
3492.000000	0.009192  
3491.000000	0.009412  
3490.000000	0.009575  
3489.000000	0.009604  
3488.000000	0.009545  
3487.000000	0.009549  
3486.000000	0.009714  
3485.000000	0.009963  
3484.000000	0.010118  
3483.000000	0.010066  
3482.000000	0.009860  
3481.000000	0.009650  
3480.000000	0.009556  
3479.000000	0.009630  
3478.000000	0.009862  
3477.000000	0.010189  
3476.000000	0.010485  
3475.000000	0.010624  
3474.000000	0.010576  
3473.000000	0.010430  
3472.000000	0.010325  
3471.000000	0.010347  
3470.000000	0.010478  
3469.000000	0.010614  
3468.000000	0.010650  
3467.000000	0.010581  
3466.000000	0.010515  
3465.000000	0.010572  
3464.000000	0.010752  
3463.000000	0.010933  
3462.000000	0.011002  
3461.000000	0.010972  
3460.000000	0.010955  
3459.000000	0.011025  
3458.000000	0.011151  
3457.000000	0.011247  
3456.000000	0.011279  
3455.000000	0.011286  
3454.000000	0.011332  
3453.000000	0.011429  
3452.000000	0.011541  
3451.000000	0.011640  
3450.000000	0.011726  
3449.000000	0.011807  
3448.000000	0.011872  
3447.000000	0.011893  
3446.000000	0.011860  
3445.000000	0.011792  
3444.000000	0.011729  
3443.000000	0.011715  
3442.000000	0.011772  
3441.000000	0.011887  
3440.000000	0.012021  
3439.000000	0.012139  
3438.000000	0.012235  
3437.000000	0.012311  
3436.000000	0.012368  
3435.000000	0.012398  
3434.000000	0.012403  
3433.000000	0.012402  
3432.000000	0.012422  
3431.000000	0.012477  
3430.000000	0.012558  
3429.000000	0.012633  
3428.000000	0.012683  
3427.000000	0.012729  
3426.000000	0.012814  
3425.000000	0.012941  
3424.000000	0.013049  
3423.000000	0.013068  
3422.000000	0.012989  
3421.000000	0.012878  
3420.000000	0.012799  
3419.000000	0.012749  
3418.000000	0.012697  
3417.000000	0.012648  
3416.000000	0.012659  
3415.000000	0.012772  
3414.000000	0.012964  
3413.000000	0.013169  
3412.000000	0.013326  
3411.000000	0.013410  
3410.000000	0.013419  
3409.000000	0.013376  
3408.000000	0.013343  
3407.000000	0.013387  
3406.000000	0.013517  
3405.000000	0.013656  
3404.000000	0.013703  
3403.000000	0.013635  
3402.000000	0.013530  
3401.000000	0.013492  
3400.000000	0.013554  
3399.000000	0.013665  
3398.000000	0.013748  
3397.000000	0.013764  
3396.000000	0.013732  
3395.000000	0.013695  
3394.000000	0.013692  
3393.000000	0.013748  
3392.000000	0.013869  
3391.000000	0.014022  
3390.000000	0.014135  
3389.000000	0.014144  
3388.000000	0.014058  
3387.000000	0.013975  
3386.000000	0.013996  
3385.000000	0.014125  
3384.000000	0.014258  
3383.000000	0.014285  
3382.000000	0.014198  
3381.000000	0.014084  
3380.000000	0.014029  
3379.000000	0.014045  
3378.000000	0.014082  
3377.000000	0.014108  
3376.000000	0.014138  
3375.000000	0.014191  
3374.000000	0.014238  
3373.000000	0.014233  
3372.000000	0.014169  
3371.000000	0.014091  
3370.000000	0.014040  
3369.000000	0.014015  
3368.000000	0.014010  
3367.000000	0.014041  
3366.000000	0.014128  
3365.000000	0.014242  
3364.000000	0.014332  
3363.000000	0.014379  
3362.000000	0.014410  
3361.000000	0.014447  
3360.000000	0.014485  
3359.000000	0.014515  
3358.000000	0.014546  
3357.000000	0.014577  
3356.000000	0.014580  
3355.000000	0.014536  
3354.000000	0.014470  
3353.000000	0.014434  
3352.000000	0.014450  
3351.000000	0.014493  
3350.000000	0.014525  
3349.000000	0.014531  
3348.000000	0.014518  
3347.000000	0.014488  
3346.000000	0.014450  
3345.000000	0.014428  
3344.000000	0.014460  
3343.000000	0.014548  
3342.000000	0.014648  
3341.000000	0.014690  
3340.000000	0.014640  
3339.000000	0.014517  
3338.000000	0.014382  
3337.000000	0.014293  
3336.000000	0.014288  
3335.000000	0.014368  
3334.000000	0.014496  
3333.000000	0.014611  
3332.000000	0.014663  
3331.000000	0.014638  
3330.000000	0.014565  
3329.000000	0.014479  
3328.000000	0.014402  
3327.000000	0.014335  
3326.000000	0.014278  
3325.000000	0.014255  
3324.000000	0.014313  
3323.000000	0.014480  
3322.000000	0.014710  
3321.000000	0.014901  
3320.000000	0.014971  
3319.000000	0.014912  
3318.000000	0.014774  
3317.000000	0.014609  
3316.000000	0.014462  
3315.000000	0.014380  
3314.000000	0.014381  
3313.000000	0.014412  
3312.000000	0.014384  
3311.000000	0.014268  
3310.000000	0.014127  
3309.000000	0.014035  
3308.000000	0.013999  
3307.000000	0.013976  
3306.000000	0.013944  
3305.000000	0.013913  
3304.000000	0.013884  
3303.000000	0.013831  
3302.000000	0.013741  
3301.000000	0.013635  
3300.000000	0.013546  
3299.000000	0.013489  
3298.000000	0.013454  
3297.000000	0.013425  
3296.000000	0.013390  
3295.000000	0.013358  
3294.000000	0.013346  
3293.000000	0.013366  
3292.000000	0.013407  
3291.000000	0.013440  
3290.000000	0.013439  
3289.000000	0.013399  
3288.000000	0.013338  
3287.000000	0.013291  
3286.000000	0.013288  
3285.000000	0.013315  
3284.000000	0.013320  
3283.000000	0.013270  
3282.000000	0.013201  
3281.000000	0.013185  
3280.000000	0.013232  
3279.000000	0.013260  
3278.000000	0.013174  
3277.000000	0.012960  
3276.000000	0.012702  
3275.000000	0.012506  
3274.000000	0.012428  
3273.000000	0.012461  
3272.000000	0.012553  
3271.000000	0.012641  
3270.000000	0.012676  
3269.000000	0.012653  
3268.000000	0.012599  
3267.000000	0.012537  
3266.000000	0.012464  
3265.000000	0.012360  
3264.000000	0.012229  
3263.000000	0.012107  
3262.000000	0.012032  
3261.000000	0.012015  
3260.000000	0.012039  
3259.000000	0.012080  
3258.000000	0.012129  
3257.000000	0.012187  
3256.000000	0.012244  
3255.000000	0.012266  
3254.000000	0.012213  
3253.000000	0.012088  
3252.000000	0.011946  
3251.000000	0.011853  
3250.000000	0.011832  
3249.000000	0.011848  
3248.000000	0.011856  
3247.000000	0.011842  
3246.000000	0.011834  
3245.000000	0.011866  
3244.000000	0.011928  
3243.000000	0.011949  
3242.000000	0.011849  
3241.000000	0.011610  
3240.000000	0.011310  
3239.000000	0.011071  
3238.000000	0.010956  
3237.000000	0.010933  
3236.000000	0.010934  
3235.000000	0.010932  
3234.000000	0.010933  
3233.000000	0.010932  
3232.000000	0.010905  
3231.000000	0.010844  
3230.000000	0.010787  
3229.000000	0.010780  
3228.000000	0.010829  
3227.000000	0.010893  
3226.000000	0.010930  
3225.000000	0.010935  
3224.000000	0.010928  
3223.000000	0.010912  
3222.000000	0.010849  
3221.000000	0.010702  
3220.000000	0.010500  
3219.000000	0.010343  
3218.000000	0.010299  
3217.000000	0.010329  
3216.000000	0.010322  
3215.000000	0.010218  
3214.000000	0.010063  
3213.000000	0.009949  
3212.000000	0.009910  
3211.000000	0.009907  
3210.000000	0.009884  
3209.000000	0.009827  
3208.000000	0.009758  
3207.000000	0.009714  
3206.000000	0.009714  
3205.000000	0.009751  
3204.000000	0.009805  
3203.000000	0.009845  
3202.000000	0.009833  
3201.000000	0.009737  
3200.000000	0.009554  
3199.000000	0.009335  
3198.000000	0.009164  
3197.000000	0.009094  
3196.000000	0.009100  
3195.000000	0.009117  
3194.000000	0.009102  
3193.000000	0.009069  
3192.000000	0.009059  
3191.000000	0.009088  
3190.000000	0.009127  
3189.000000	0.009118  
3188.000000	0.009019  
3187.000000	0.008845  
3186.000000	0.008666  
3185.000000	0.008567  
3184.000000	0.008590  
3183.000000	0.008709  
3182.000000	0.008844  
3181.000000	0.008896  
3180.000000	0.008810  
3179.000000	0.008611  
3178.000000	0.008391  
3177.000000	0.008231  
3176.000000	0.008141  
3175.000000	0.008085  
3174.000000	0.008037  
3173.000000	0.008011  
3172.000000	0.008034  
3171.000000	0.008101  
3170.000000	0.008167  
3169.000000	0.008182  
3168.000000	0.008134  
3167.000000	0.008062  
3166.000000	0.008018  
3165.000000	0.008016  
3164.000000	0.008016  
3163.000000	0.007973  
3162.000000	0.007875  
3161.000000	0.007752  
3160.000000	0.007638  
3159.000000	0.007539  
3158.000000	0.007432  
3157.000000	0.007298  
3156.000000	0.007157  
3155.000000	0.007075  
3154.000000	0.007116  
3153.000000	0.007277  
3152.000000	0.007468  
3151.000000	0.007576  
3150.000000	0.007549  
3149.000000	0.007431  
3148.000000	0.007304  
3147.000000	0.007222  
3146.000000	0.007171  
3145.000000	0.007096  
3144.000000	0.006955  
3143.000000	0.006756  
3142.000000	0.006557  
3141.000000	0.006427  
3140.000000	0.006400  
3139.000000	0.006460  
3138.000000	0.006559  
3137.000000	0.006661  
3136.000000	0.006769  
3135.000000	0.006890  
3134.000000	0.006996  
3133.000000	0.007021  
3132.000000	0.006935  
3131.000000	0.006793  
3130.000000	0.006679  
3129.000000	0.006622  
3128.000000	0.006575  
3127.000000	0.006498  
3126.000000	0.006404  
3125.000000	0.006327  
3124.000000	0.006273  
3123.000000	0.006226  
3122.000000	0.006190  
3121.000000	0.006188  
3120.000000	0.006224  
3119.000000	0.006270  
3118.000000	0.006282  
3117.000000	0.006236  
3116.000000	0.006154  
3115.000000	0.006106  
3114.000000	0.006157  
3113.000000	0.006299  
3112.000000	0.006437  
3111.000000	0.006467  
3110.000000	0.006356  
3109.000000	0.006153  
3108.000000	0.005944  
3107.000000	0.005790  
3106.000000	0.005707  
3105.000000	0.005663  
3104.000000	0.005611  
3103.000000	0.005548  
3102.000000	0.005524  
3101.000000	0.005580  
3100.000000	0.005685  
3099.000000	0.005769  
3098.000000	0.005808  
3097.000000	0.005834  
3096.000000	0.005872  
3095.000000	0.005896  
3094.000000	0.005858  
3093.000000	0.005749  
3092.000000	0.005616  
3091.000000	0.005522  
3090.000000	0.005495  
3089.000000	0.005508  
3088.000000	0.005509  
3087.000000	0.005471  
3086.000000	0.005428  
3085.000000	0.005432  
3084.000000	0.005485  
3083.000000	0.005524  
3082.000000	0.005485  
3081.000000	0.005376  
3080.000000	0.005272  
3079.000000	0.005246  
3078.000000	0.005308  
3077.000000	0.005410  
3076.000000	0.005493  
3075.000000	0.005538  
3074.000000	0.005563  
3073.000000	0.005592  
3072.000000	0.005627  
3071.000000	0.005650  
3070.000000	0.005647  
3069.000000	0.005624  
3068.000000	0.005602  
3067.000000	0.005596  
3066.000000	0.005593  
3065.000000	0.005559  
3064.000000	0.005479  
3063.000000	0.005380  
3062.000000	0.005321  
3061.000000	0.005339  
3060.000000	0.005429  
3059.000000	0.005552  
3058.000000	0.005661  
3057.000000	0.005701  
3056.000000	0.005640  
3055.000000	0.005514  
3054.000000	0.005421  
3053.000000	0.005438  
3052.000000	0.005553  
3051.000000	0.005681  
3050.000000	0.005756  
3049.000000	0.005777  
3048.000000	0.005779  
3047.000000	0.005783  
3046.000000	0.005784  
3045.000000	0.005776  
3044.000000	0.005762  
3043.000000	0.005761  
3042.000000	0.005800  
3041.000000	0.005887  
3040.000000	0.006001  
3039.000000	0.006109  
3038.000000	0.006199  
3037.000000	0.006283  
3036.000000	0.006373  
3035.000000	0.006456  
3034.000000	0.006526  
3033.000000	0.006600  
3032.000000	0.006694  
3031.000000	0.006795  
3030.000000	0.006877  
3029.000000	0.006951  
3028.000000	0.007067  
3027.000000	0.007264  
3026.000000	0.007526  
3025.000000	0.007779  
3024.000000	0.007949  
3023.000000	0.008028  
3022.000000	0.008090  
3021.000000	0.008243  
3020.000000	0.008557  
3019.000000	0.009029  
3018.000000	0.009610  
3017.000000	0.010234  
3016.000000	0.010835  
3015.000000	0.011356  
3014.000000	0.011774  
3013.000000	0.012117  
3012.000000	0.012428  
3011.000000	0.012703  
3010.000000	0.012886  
3009.000000	0.012935  
3008.000000	0.012871  
3007.000000	0.012728  
3006.000000	0.012508  
3005.000000	0.012199  
3004.000000	0.011843  
3003.000000	0.011534  
3002.000000	0.011328  
3001.000000	0.011212  
3000.000000	0.011149  
2999.000000	0.011140  
2998.000000	0.011198  
2997.000000	0.011301  
2996.000000	0.011406  
2995.000000	0.011507  
2994.000000	0.011648  
2993.000000	0.011859  
2992.000000	0.012118  
2991.000000	0.012399  
2990.000000	0.012727  
2989.000000	0.013169  
2988.000000	0.013768  
2987.000000	0.014499  
2986.000000	0.015291  
2985.000000	0.016099  
2984.000000	0.016955  
2983.000000	0.017944  
2982.000000	0.019126  
2981.000000	0.020498  
2980.000000	0.022025  
2979.000000	0.023705  
2978.000000	0.025566  
2977.000000	0.027635  
2976.000000	0.029931  
2975.000000	0.032513  
2974.000000	0.035482  
2973.000000	0.038905  
2972.000000	0.042768  
2971.000000	0.046993  
2970.000000	0.051517  
2969.000000	0.056314  
2968.000000	0.061378  
2967.000000	0.066681  
2966.000000	0.072133  
2965.000000	0.077581  
2964.000000	0.082848  
2963.000000	0.087814  
2962.000000	0.092447  
2961.000000	0.096763  
2960.000000	0.100728  
2959.000000	0.104211  
2958.000000	0.107005  
2957.000000	0.108928  
2956.000000	0.109891  
2955.000000	0.109926  
2954.000000	0.109151  
2953.000000	0.107729  
2952.000000	0.105838  
2951.000000	0.103661  
2950.000000	0.101391  
2949.000000	0.099242  
2948.000000	0.097437  
2947.000000	0.096157  
2946.000000	0.095505  
2945.000000	0.095522  
2944.000000	0.096256  
2943.000000	0.097788  
2942.000000	0.100191  
2941.000000	0.103449  
2940.000000	0.107448  
2939.000000	0.112046  
2938.000000	0.117138  
2937.000000	0.122662  
2936.000000	0.128561  
2935.000000	0.134755  
2934.000000	0.141157  
2933.000000	0.147688  
2932.000000	0.154281  
2931.000000	0.160839  
2930.000000	0.167230  
2929.000000	0.173317  
2928.000000	0.179005  
2927.000000	0.184192  
2926.000000	0.188681  
2925.000000	0.192171  
2924.000000	0.194388  
2923.000000	0.195209  
2922.000000	0.194675  
2921.000000	0.192915  
2920.000000	0.190089  
2919.000000	0.186365  
2918.000000	0.181928  
2917.000000	0.176989  
2916.000000	0.171769  
2915.000000	0.166453  
2914.000000	0.161177  
2913.000000	0.156043  
2912.000000	0.151129  
2911.000000	0.146470  
2910.000000	0.142046  
2909.000000	0.137818  
2908.000000	0.133767  
2907.000000	0.129899  
2906.000000	0.126208  
2905.000000	0.122656  
2904.000000	0.119203  
2903.000000	0.115847  
2902.000000	0.112623  
2901.000000	0.109535  
2900.000000	0.106512  
2899.000000	0.103450  
2898.000000	0.100307  
2897.000000	0.097143  
2896.000000	0.094057  
2895.000000	0.091107  
2894.000000	0.088298  
2893.000000	0.085621  
2892.000000	0.083072  
2891.000000	0.080634  
2890.000000	0.078284  
2889.000000	0.076028  
2888.000000	0.073914  
2887.000000	0.072026  
2886.000000	0.070470  
2885.000000	0.069336  
2884.000000	0.068673  
2883.000000	0.068488  
2882.000000	0.068804  
2881.000000	0.069685  
2880.000000	0.071202  
2879.000000	0.073354  
2878.000000	0.076046  
2877.000000	0.079112  
2876.000000	0.082329  
2875.000000	0.085402  
2874.000000	0.088005  
2873.000000	0.089899  
2872.000000	0.091031  
2871.000000	0.091536  
2870.000000	0.091670  
2869.000000	0.091713  
2868.000000	0.091890  
2867.000000	0.092326  
2866.000000	0.093098  
2865.000000	0.094321  
2864.000000	0.096158  
2863.000000	0.098706  
2862.000000	0.101904  
2861.000000	0.105576  
2860.000000	0.109530  
2859.000000	0.113566  
2858.000000	0.117422  
2857.000000	0.120772  
2856.000000	0.123300  
2855.000000	0.124730  
2854.000000	0.124815  
2853.000000	0.123375  
2852.000000	0.120404  
2851.000000	0.116104  
2850.000000	0.110804  
2849.000000	0.104840  
2848.000000	0.098506  
2847.000000	0.092057  
2846.000000	0.085702  
2845.000000	0.079588  
2844.000000	0.073768  
2843.000000	0.068224  
2842.000000	0.062923  
2841.000000	0.057876  
2840.000000	0.053148  
2839.000000	0.048815  
2838.000000	0.044920  
2837.000000	0.041466  
2836.000000	0.038426  
2835.000000	0.035752  
2834.000000	0.033377  
2833.000000	0.031242  
2832.000000	0.029303  
2831.000000	0.027543  
2830.000000	0.025967  
2829.000000	0.024579  
2828.000000	0.023359  
2827.000000	0.022254  
2826.000000	0.021207  
2825.000000	0.020197  
2824.000000	0.019246  
2823.000000	0.018387  
2822.000000	0.017628  
2821.000000	0.016963  
2820.000000	0.016381  
2819.000000	0.015863  
2818.000000	0.015362  
2817.000000	0.014843  
2816.000000	0.014324  
2815.000000	0.013865  
2814.000000	0.013492  
2813.000000	0.013168  
2812.000000	0.012829  
2811.000000	0.012449  
2810.000000	0.012055  
2809.000000	0.011695  
2808.000000	0.011402  
2807.000000	0.011175  
2806.000000	0.010978  
2805.000000	0.010771  
2804.000000	0.010547  
2803.000000	0.010332  
2802.000000	0.010140  
2801.000000	0.009944  
2800.000000	0.009719  
2799.000000	0.009490  
2798.000000	0.009315  
2797.000000	0.009214  
2796.000000	0.009159  
2795.000000	0.009119  
2794.000000	0.009087  
2793.000000	0.009045  
2792.000000	0.008948  
2791.000000	0.008773  
2790.000000	0.008552  
2789.000000	0.008346  
2788.000000	0.008188  
2787.000000	0.008063  
2786.000000	0.007941  
2785.000000	0.007800  
2784.000000	0.007635  
2783.000000	0.007448  
2782.000000	0.007254  
2781.000000	0.007072  
2780.000000	0.006913  
2779.000000	0.006783  
2778.000000	0.006680  
2777.000000	0.006590  
2776.000000	0.006487  
2775.000000	0.006359  
2774.000000	0.006214  
2773.000000	0.006078  
2772.000000	0.005963  
2771.000000	0.005863  
2770.000000	0.005762  
2769.000000	0.005651  
2768.000000	0.005538  
2767.000000	0.005448  
2766.000000	0.005403  
2765.000000	0.005406  
2764.000000	0.005435  
2763.000000	0.005462  
2762.000000	0.005459  
2761.000000	0.005414  
2760.000000	0.005339  
2759.000000	0.005266  
2758.000000	0.005229  
2757.000000	0.005228  
2756.000000	0.005227  
2755.000000	0.005187  
2754.000000	0.005100  
2753.000000	0.004990  
2752.000000	0.004894  
2751.000000	0.004831  
2750.000000	0.004794  
2749.000000	0.004761  
2748.000000	0.004719  
2747.000000	0.004681  
2746.000000	0.004672  
2745.000000	0.004705  
2744.000000	0.004772  
2743.000000	0.004854  
2742.000000	0.004921  
2741.000000	0.004945  
2740.000000	0.004932  
2739.000000	0.004925  
2738.000000	0.004968  
2737.000000	0.005052  
2736.000000	0.005130  
2735.000000	0.005171  
2734.000000	0.005179  
2733.000000	0.005172  
2732.000000	0.005162  
2731.000000	0.005163  
2730.000000	0.005179  
2729.000000	0.005188  
2728.000000	0.005166  
2727.000000	0.005130  
2726.000000	0.005128  
2725.000000	0.005173  
2724.000000	0.005222  
2723.000000	0.005237  
2722.000000	0.005220  
2721.000000	0.005183  
2720.000000	0.005116  
2719.000000	0.005024  
2718.000000	0.004949  
2717.000000	0.004918  
2716.000000	0.004898  
2715.000000	0.004834  
2714.000000	0.004723  
2713.000000	0.004599  
2712.000000	0.004479  
2711.000000	0.004352  
2710.000000	0.004228  
2709.000000	0.004137  
2708.000000	0.004099  
2707.000000	0.004103  
2706.000000	0.004140  
2705.000000	0.004202  
2704.000000	0.004261  
2703.000000	0.004277  
2702.000000	0.004242  
2701.000000	0.004187  
2700.000000	0.004131  
2699.000000	0.004056  
2698.000000	0.003950  
2697.000000	0.003851  
2696.000000	0.003821  
2695.000000	0.003885  
2694.000000	0.004013  
2693.000000	0.004147  
2692.000000	0.004229  
2691.000000	0.004226  
2690.000000	0.004148  
2689.000000	0.004051  
2688.000000	0.003996  
2687.000000	0.004002  
2686.000000	0.004033  
2685.000000	0.004050  
2684.000000	0.004057  
2683.000000	0.004082  
2682.000000	0.004126  
2681.000000	0.004140  
2680.000000	0.004084  
2679.000000	0.003987  
2678.000000	0.003926  
2677.000000	0.003944  
2676.000000	0.004007  
2675.000000	0.004052  
2674.000000	0.004052  
2673.000000	0.004027  
2672.000000	0.004006  
2671.000000	0.003996  
2670.000000	0.003996  
2669.000000	0.004006  
2668.000000	0.004023  
2667.000000	0.004041  
2666.000000	0.004048  
2665.000000	0.004036  
2664.000000	0.004006  
2663.000000	0.003970  
2662.000000	0.003937  
2661.000000	0.003900  
2660.000000	0.003856  
2659.000000	0.003819  
2658.000000	0.003816  
2657.000000	0.003839  
2656.000000	0.003846  
2655.000000	0.003800  
2654.000000	0.003707  
2653.000000	0.003597  
2652.000000	0.003491  
2651.000000	0.003397  
2650.000000	0.003313  
2649.000000	0.003230  
2648.000000	0.003129  
2647.000000	0.003017  
2646.000000	0.002942  
2645.000000	0.002942  
2644.000000	0.003001  
2643.000000	0.003071  
2642.000000	0.003126  
2641.000000	0.003172  
2640.000000	0.003212  
2639.000000	0.003228  
2638.000000	0.003189  
2637.000000	0.003084  
2636.000000	0.002936  
2635.000000	0.002804  
2634.000000	0.002759  
2633.000000	0.002821  
2632.000000	0.002942  
2631.000000	0.003049  
2630.000000	0.003089  
2629.000000	0.003048  
2628.000000	0.002940  
2627.000000	0.002820  
2626.000000	0.002760  
2625.000000	0.002782  
2624.000000	0.002829  
2623.000000	0.002837  
2622.000000	0.002808  
2621.000000	0.002783  
2620.000000	0.002763  
2619.000000	0.002711  
2618.000000	0.002631  
2617.000000	0.002568  
2616.000000	0.002545  
2615.000000	0.002547  
2614.000000	0.002558  
2613.000000	0.002581  
2612.000000	0.002602  
2611.000000	0.002592  
2610.000000	0.002554  
2609.000000	0.002535  
2608.000000	0.002568  
2607.000000	0.002641  
2606.000000	0.002725  
2605.000000	0.002789  
2604.000000	0.002798  
2603.000000	0.002717  
2602.000000	0.002553  
2601.000000	0.002362  
2600.000000	0.002200  
2599.000000	0.002095  
2598.000000	0.002066  
2597.000000	0.002115  
2596.000000	0.002196  
2595.000000	0.002230  
2594.000000	0.002176  
2593.000000	0.002078  
2592.000000	0.002007  
2591.000000	0.001998  
2590.000000	0.002045  
2589.000000	0.002127  
2588.000000	0.002194  
2587.000000	0.002184  
2586.000000	0.002088  
2585.000000	0.001975  
2584.000000	0.001913  
2583.000000	0.001888  
2582.000000	0.001833  
2581.000000	0.001736  
2580.000000	0.001661  
2579.000000	0.001668  
2578.000000	0.001739  
2577.000000	0.001800  
2576.000000	0.001790  
2575.000000	0.001706  
2574.000000	0.001597  
2573.000000	0.001531  
2572.000000	0.001538  
2571.000000	0.001580  
2570.000000	0.001583  
2569.000000	0.001510  
2568.000000	0.001400  
2567.000000	0.001319  
2566.000000	0.001293  
2565.000000	0.001312  
2564.000000	0.001366  
2563.000000	0.001464  
2562.000000	0.001587  
2561.000000	0.001677  
2560.000000	0.001690  
2559.000000	0.001649  
2558.000000	0.001605  
2557.000000	0.001576  
2556.000000	0.001544  
2555.000000	0.001507  
2554.000000	0.001488  
2553.000000	0.001492  
2552.000000	0.001504  
2551.000000	0.001523  
2550.000000	0.001548  
2549.000000	0.001531  
2548.000000	0.001420  
2547.000000	0.001277  
2546.000000	0.001271  
2545.000000	0.001487  
2544.000000	0.001792  
2543.000000	0.001954  
2542.000000	0.001870  
2541.000000	0.001629  
2540.000000	0.001384  
2539.000000	0.001232  
2538.000000	0.001199  
2537.000000	0.001251  
2536.000000	0.001306  
2535.000000	0.001280  
2534.000000	0.001170  
2533.000000	0.001038  
2532.000000	0.000941  
2531.000000	0.000909  
2530.000000	0.000966  
2529.000000	0.001116  
2528.000000	0.001287  
2527.000000	0.001379  
2526.000000	0.001359  
2525.000000	0.001280  
2524.000000	0.001194  
2523.000000	0.001105  
2522.000000	0.001024  
2521.000000	0.000998  
2520.000000	0.001030  
2519.000000	0.001048  
2518.000000	0.001000  
2517.000000	0.000943  
2516.000000	0.000987  
2515.000000	0.001159  
2514.000000	0.001375  
2513.000000	0.001512  
2512.000000	0.001491  
2511.000000	0.001310  
2510.000000	0.001060  
2509.000000	0.000893  
2508.000000	0.000907  
2507.000000	0.001038  
2506.000000	0.001112  
2505.000000	0.001033  
2504.000000	0.000876  
2503.000000	0.000792  
2502.000000	0.000836  
2501.000000	0.000938  
2500.000000	0.001025  
2499.000000	0.001100  
2498.000000	0.001198  
2497.000000	0.001294  
2496.000000	0.001331  
2495.000000	0.001300  
2494.000000	0.001253  
2493.000000	0.001224  
2492.000000	0.001190  
2491.000000	0.001121  
2490.000000	0.001037  
2489.000000	0.000984  
2488.000000	0.000968  
2487.000000	0.000954  
2486.000000	0.000911  
2485.000000	0.000828  
2484.000000	0.000702  
2483.000000	0.000547  
2482.000000	0.000417  
2481.000000	0.000378  
2480.000000	0.000448  
2479.000000	0.000573  
2478.000000	0.000672  
2477.000000	0.000694  
2476.000000	0.000633  
2475.000000	0.000525  
2474.000000	0.000423  
2473.000000	0.000362  
2472.000000	0.000344  
2471.000000	0.000349  
2470.000000	0.000368  
2469.000000	0.000397  
2468.000000	0.000434  
2467.000000	0.000469  
2466.000000	0.000487  
2465.000000	0.000460  
2464.000000	0.000361  
2463.000000	0.000210  
2462.000000	0.000074  
2461.000000	0.000019  
2460.000000	0.000047  
2459.000000	0.000112  
2458.000000	0.000167  
2457.000000	0.000178  
2456.000000	0.000126  
2455.000000	0.000036  
2454.000000	-0.000001 
2453.000000	0.000089  
2452.000000	0.000275  
2451.000000	0.000431  
2450.000000	0.000460  
2449.000000	0.000376  
2448.000000	0.000257  
2447.000000	0.000156  
2446.000000	0.000086  
2445.000000	0.000054  
2444.000000	0.000081  
2443.000000	0.000192  
2442.000000	0.000370  
2441.000000	0.000543  
2440.000000	0.000614  
2439.000000	0.000543  
2438.000000	0.000403  
2437.000000	0.000319  
2436.000000	0.000349  
2435.000000	0.000431  
2434.000000	0.000454  
2433.000000	0.000378  
2432.000000	0.000274  
2431.000000	0.000257  
2430.000000	0.000364  
2429.000000	0.000506  
2428.000000	0.000550  
2427.000000	0.000457  
2426.000000	0.000322  
2425.000000	0.000271  
2424.000000	0.000342  
2423.000000	0.000468  
2422.000000	0.000579  
2421.000000	0.000648  
2420.000000	0.000674  
2419.000000	0.000659  
2418.000000	0.000629  
2417.000000	0.000638  
2416.000000	0.000717  
2415.000000	0.000831  
2414.000000	0.000896  
2413.000000	0.000849  
2412.000000	0.000703  
2411.000000	0.000535  
2410.000000	0.000432  
2409.000000	0.000425  
2408.000000	0.000480  
2407.000000	0.000531  
2406.000000	0.000527  
2405.000000	0.000467  
2404.000000	0.000403  
2403.000000	0.000393  
2402.000000	0.000451  
2401.000000	0.000522  
2400.000000	0.000537  
2399.000000	0.000495  
2398.000000	0.000463  
2397.000000	0.000497  
2396.000000	0.000577  
2395.000000	0.000630  
2394.000000	0.000604  
2393.000000	0.000513  
2392.000000	0.000432  
2391.000000	0.000445  
2390.000000	0.000558  
2389.000000	0.000666  
2388.000000	0.000647  
2387.000000	0.000492  
2386.000000	0.000308  
2385.000000	0.000202  
2384.000000	0.000205  
2383.000000	0.000318  
2382.000000	0.000554  
2381.000000	0.000870  
2380.000000	0.001114  
2379.000000	0.001142  
2378.000000	0.000971  
2377.000000	0.000706  
2376.000000	0.000350  
2375.000000	-0.000161 
2374.000000	-0.000703 
2373.000000	-0.000934 
2372.000000	-0.000674 
2371.000000	-0.000125 
2370.000000	0.000424  
2369.000000	0.000935  
2368.000000	0.001469  
2367.000000	0.001913  
2366.000000	0.002084  
2365.000000	0.001944  
2364.000000	0.001508  
2363.000000	0.000778  
2362.000000	-0.000069 
2361.000000	-0.000600 
2360.000000	-0.000573 
2359.000000	-0.000260 
2358.000000	0.000027  
2357.000000	0.000337  
2356.000000	0.000822  
2355.000000	0.001407  
2354.000000	0.001859  
2353.000000	0.002006  
2352.000000	0.001754  
2351.000000	0.001230  
2350.000000	0.000767  
2349.000000	0.000631  
2348.000000	0.000830  
2347.000000	0.001021  
2346.000000	0.000861  
2345.000000	0.000427  
2344.000000	0.000142  
2343.000000	0.000217  
2342.000000	0.000441  
2341.000000	0.000581  
2340.000000	0.000544  
2339.000000	0.000390  
2338.000000	0.000238  
2337.000000	0.000190  
2336.000000	0.000233  
2335.000000	0.000306  
2334.000000	0.000366  
2333.000000	0.000415  
2332.000000	0.000396  
2331.000000	0.000297  
2330.000000	0.000208  
2329.000000	0.000228  
2328.000000	0.000382  
2327.000000	0.000532  
2326.000000	0.000559  
2325.000000	0.000424  
2324.000000	0.000206  
2323.000000	0.000029  
2322.000000	-0.000078 
2321.000000	-0.000155 
2320.000000	-0.000264 
2319.000000	-0.000379 
2318.000000	-0.000466 
2317.000000	-0.000487 
2316.000000	-0.000438 
2315.000000	-0.000327 
2314.000000	-0.000215 
2313.000000	-0.000178 
2312.000000	-0.000215 
2311.000000	-0.000223 
2310.000000	-0.000127 
2309.000000	-0.000002 
2308.000000	0.000020  
2307.000000	-0.000078 
2306.000000	-0.000200 
2305.000000	-0.000268 
2304.000000	-0.000292 
2303.000000	-0.000291 
2302.000000	-0.000264 
2301.000000	-0.000240 
2300.000000	-0.000283 
2299.000000	-0.000399 
2298.000000	-0.000505 
2297.000000	-0.000528 
2296.000000	-0.000477 
2295.000000	-0.000398 
2294.000000	-0.000301 
2293.000000	-0.000206 
2292.000000	-0.000174 
2291.000000	-0.000232 
2290.000000	-0.000312 
2289.000000	-0.000327 
2288.000000	-0.000273 
2287.000000	-0.000198 
2286.000000	-0.000121 
2285.000000	-0.000050 
2284.000000	-0.000029 
2283.000000	-0.000087 
2282.000000	-0.000168 
2281.000000	-0.000184 
2280.000000	-0.000142 
2279.000000	-0.000117 
2278.000000	-0.000123 
2277.000000	-0.000117 
2276.000000	-0.000109 
2275.000000	-0.000161 
2274.000000	-0.000265 
2273.000000	-0.000334 
2272.000000	-0.000340 
2271.000000	-0.000364 
2270.000000	-0.000449 
2269.000000	-0.000498 
2268.000000	-0.000383 
2267.000000	-0.000112 
2266.000000	0.000180  
2265.000000	0.000336  
2264.000000	0.000262  
2263.000000	-0.000046 
2262.000000	-0.000483 
2261.000000	-0.000852 
2260.000000	-0.000973 
2259.000000	-0.000809 
2258.000000	-0.000483 
2257.000000	-0.000193 
2256.000000	-0.000069 
2255.000000	-0.000089 
2254.000000	-0.000119 
2253.000000	-0.000035 
2252.000000	0.000159  
2251.000000	0.000346  
2250.000000	0.000367  
2249.000000	0.000141  
2248.000000	-0.000238 
2247.000000	-0.000520 
2246.000000	-0.000487 
2245.000000	-0.000177 
2244.000000	0.000149  
2243.000000	0.000281  
2242.000000	0.000209  
2241.000000	0.000007  
2240.000000	-0.000287 
2239.000000	-0.000583 
2238.000000	-0.000670 
2237.000000	-0.000433 
2236.000000	-0.000083 
2235.000000	0.000026  
2234.000000	-0.000204 
2233.000000	-0.000518 
2232.000000	-0.000623 
2231.000000	-0.000480 
2230.000000	-0.000278 
2229.000000	-0.000216 
2228.000000	-0.000347 
2227.000000	-0.000540 
2226.000000	-0.000583 
2225.000000	-0.000383 
2224.000000	-0.000068 
2223.000000	0.000180  
2222.000000	0.000331  
2221.000000	0.000445  
2220.000000	0.000500  
2219.000000	0.000421  
2218.000000	0.000266  
2217.000000	0.000198  
2216.000000	0.000275  
2215.000000	0.000408  
2214.000000	0.000531  
2213.000000	0.000660  
2212.000000	0.000762  
2211.000000	0.000741  
2210.000000	0.000617  
2209.000000	0.000566  
2208.000000	0.000698  
2207.000000	0.000895  
2206.000000	0.000969  
2205.000000	0.000883  
2204.000000	0.000728  
2203.000000	0.000573  
2202.000000	0.000406  
2201.000000	0.000196  
2200.000000	-0.000055 
2199.000000	-0.000301 
2198.000000	-0.000463 
2197.000000	-0.000508 
2196.000000	-0.000498 
2195.000000	-0.000507 
2194.000000	-0.000491 
2193.000000	-0.000342 
2192.000000	-0.000075 
2191.000000	0.000124  
2190.000000	0.000088  
2189.000000	-0.000182 
2188.000000	-0.000558 
2187.000000	-0.000890 
2186.000000	-0.001080 
2185.000000	-0.001104 
2184.000000	-0.001047 
2183.000000	-0.001035 
2182.000000	-0.001125 
2181.000000	-0.001263 
2180.000000	-0.001316 
2179.000000	-0.001121 
2178.000000	-0.000614 
2177.000000	0.000003  
2176.000000	0.000324  
2175.000000	0.000146  
2174.000000	-0.000268 
2173.000000	-0.000514 
2172.000000	-0.000547 
2171.000000	-0.000630 
2170.000000	-0.000844 
2169.000000	-0.000909 
2168.000000	-0.000595 
2167.000000	-0.000065 
2166.000000	0.000344  
2165.000000	0.000534  
2164.000000	0.000666  
2163.000000	0.000844  
2162.000000	0.000962  
2161.000000	0.000871  
2160.000000	0.000591  
2159.000000	0.000295  
2158.000000	0.000097  
2157.000000	-0.000074 
2156.000000	-0.000355 
2155.000000	-0.000727 
2154.000000	-0.001006 
2153.000000	-0.001015 
2152.000000	-0.000753 
2151.000000	-0.000366 
2150.000000	-0.000069 
2149.000000	-0.000064 
2148.000000	-0.000381 
2147.000000	-0.000733 
2146.000000	-0.000714 
2145.000000	-0.000261 
2144.000000	0.000234  
2143.000000	0.000390  
2142.000000	0.000257  
2141.000000	0.000133  
2140.000000	0.000116  
2139.000000	0.000063  
2138.000000	-0.000105 
2137.000000	-0.000312 
2136.000000	-0.000496 
2135.000000	-0.000653 
2134.000000	-0.000713 
2133.000000	-0.000596 
2132.000000	-0.000403 
2131.000000	-0.000365 
2130.000000	-0.000547 
2129.000000	-0.000770 
2128.000000	-0.000827 
2127.000000	-0.000677 
2126.000000	-0.000394 
2125.000000	-0.000066 
2124.000000	0.000201  
2123.000000	0.000313  
2122.000000	0.000266  
2121.000000	0.000142  
2120.000000	-0.000004 
2119.000000	-0.000165 
2118.000000	-0.000281 
2117.000000	-0.000244 
2116.000000	-0.000060 
2115.000000	0.000113  
2114.000000	0.000146  
2113.000000	0.000065  
2112.000000	-0.000035 
2111.000000	-0.000126 
2110.000000	-0.000197 
2109.000000	-0.000198 
2108.000000	-0.000107 
2107.000000	0.000014  
2106.000000	0.000096  
2105.000000	0.000128  
2104.000000	0.000112  
2103.000000	0.000021  
2102.000000	-0.000127 
2101.000000	-0.000257 
2100.000000	-0.000333 
2099.000000	-0.000416 
2098.000000	-0.000538 
2097.000000	-0.000602 
2096.000000	-0.000489 
2095.000000	-0.000221 
2094.000000	0.000062  
2093.000000	0.000242  
2092.000000	0.000290  
2091.000000	0.000236  
2090.000000	0.000147  
2089.000000	0.000089  
2088.000000	0.000070  
2087.000000	0.000042  
2086.000000	0.000003  
2085.000000	0.000012  
2084.000000	0.000069  
2083.000000	0.000040  
2082.000000	-0.000192 
2081.000000	-0.000562 
2080.000000	-0.000848 
2079.000000	-0.000883 
2078.000000	-0.000672 
2077.000000	-0.000368 
2076.000000	-0.000157 
2075.000000	-0.000145 
2074.000000	-0.000284 
2073.000000	-0.000421 
2072.000000	-0.000468 
2071.000000	-0.000476 
2070.000000	-0.000536 
2069.000000	-0.000645 
2068.000000	-0.000726 
2067.000000	-0.000727 
2066.000000	-0.000658 
2065.000000	-0.000560 
2064.000000	-0.000473 
2063.000000	-0.000391 
2062.000000	-0.000242 
2061.000000	0.000035  
2060.000000	0.000373  
2059.000000	0.000588  
2058.000000	0.000563  
2057.000000	0.000371  
2056.000000	0.000171  
2055.000000	0.000035  
2054.000000	-0.000077 
2053.000000	-0.000206 
2052.000000	-0.000321 
2051.000000	-0.000345 
2050.000000	-0.000237 
2049.000000	-0.000073 
2048.000000	-0.000021 
2047.000000	-0.000143 
2046.000000	-0.000272 
2045.000000	-0.000182 
2044.000000	0.000129  
2043.000000	0.000425  
2042.000000	0.000509  
2041.000000	0.000395  
2040.000000	0.000209  
2039.000000	0.000055  
2038.000000	0.000017  
2037.000000	0.000124  
2036.000000	0.000226  
2035.000000	0.000090  
2034.000000	-0.000278 
2033.000000	-0.000575 
2032.000000	-0.000554 
2031.000000	-0.000303 
2030.000000	-0.000057 
2029.000000	0.000080  
2028.000000	0.000124  
2027.000000	0.000091  
2026.000000	0.000039  
2025.000000	0.000114  
2024.000000	0.000378  
2023.000000	0.000682  
2022.000000	0.000845  
2021.000000	0.000865  
2020.000000	0.000865  
2019.000000	0.000875  
2018.000000	0.000805  
2017.000000	0.000576  
2016.000000	0.000210  
2015.000000	-0.000198 
2014.000000	-0.000533 
2013.000000	-0.000716 
2012.000000	-0.000803 
2011.000000	-0.000919 
2010.000000	-0.001048 
2009.000000	-0.000985 
2008.000000	-0.000603 
2007.000000	-0.000038 
2006.000000	0.000469  
2005.000000	0.000799  
2004.000000	0.000910  
2003.000000	0.000737  
2002.000000	0.000279  
2001.000000	-0.000253 
2000.000000	-0.000553 
1999.000000	-0.000492 
1998.000000	-0.000208 
1997.000000	0.000053  
1996.000000	0.000116  
1995.000000	-0.000051 
1994.000000	-0.000320 
1993.000000	-0.000429 
1992.000000	-0.000200 
1991.000000	0.000229  
1990.000000	0.000539  
1989.000000	0.000579  
1988.000000	0.000454  
1987.000000	0.000301  
1986.000000	0.000087  
1985.000000	-0.000292 
1984.000000	-0.000753 
1983.000000	-0.000986 
1982.000000	-0.000770 
1981.000000	-0.000266 
1980.000000	0.000102  
1979.000000	0.000078  
1978.000000	-0.000230 
1977.000000	-0.000599 
1976.000000	-0.000961 
1975.000000	-0.001298 
1974.000000	-0.001455 
1973.000000	-0.001296 
1972.000000	-0.000962 
1971.000000	-0.000734 
1970.000000	-0.000674 
1969.000000	-0.000592 
1968.000000	-0.000361 
1967.000000	-0.000101 
1966.000000	0.000031  
1965.000000	0.000066  
1964.000000	0.000132  
1963.000000	0.000296  
1962.000000	0.000537  
1961.000000	0.000737  
1960.000000	0.000709  
1959.000000	0.000373  
1958.000000	-0.000086 
1957.000000	-0.000382 
1956.000000	-0.000466 
1955.000000	-0.000543 
1954.000000	-0.000723 
1953.000000	-0.000828 
1952.000000	-0.000680 
1951.000000	-0.000390 
1950.000000	-0.000211 
1949.000000	-0.000197 
1948.000000	-0.000179 
1947.000000	-0.000032 
1946.000000	0.000149  
1945.000000	0.000198  
1944.000000	0.000070  
1943.000000	-0.000111 
1942.000000	-0.000200 
1941.000000	-0.000166 
1940.000000	-0.000076 
1939.000000	0.000017  
1938.000000	0.000107  
1937.000000	0.000195  
1936.000000	0.000258  
1935.000000	0.000259  
1934.000000	0.000189  
1933.000000	0.000074  
1932.000000	-0.000057 
1931.000000	-0.000178 
1930.000000	-0.000235 
1929.000000	-0.000202 
1928.000000	-0.000127 
1927.000000	-0.000093 
1926.000000	-0.000123 
1925.000000	-0.000162 
1924.000000	-0.000161 
1923.000000	-0.000108 
1922.000000	-0.000031 
1921.000000	0.000033  
1920.000000	0.000053  
1919.000000	0.000037  
1918.000000	0.000072  
1917.000000	0.000198  
1916.000000	0.000301  
1915.000000	0.000236  
1914.000000	-0.000008 
1913.000000	-0.000285 
1912.000000	-0.000423 
1911.000000	-0.000348 
1910.000000	-0.000098 
1909.000000	0.000187  
1908.000000	0.000321  
1907.000000	0.000202  
1906.000000	-0.000086 
1905.000000	-0.000329 
1904.000000	-0.000367 
1903.000000	-0.000206 
1902.000000	0.000024  
1901.000000	0.000176  
1900.000000	0.000175  
1899.000000	0.000061  
1898.000000	-0.000052 
1897.000000	-0.000084 
1896.000000	-0.000066 
1895.000000	-0.000064 
1894.000000	-0.000055 
1893.000000	0.000027  
1892.000000	0.000153  
1891.000000	0.000203  
1890.000000	0.000137  
1889.000000	0.000062  
1888.000000	0.000071  
1887.000000	0.000119  
1886.000000	0.000118  
1885.000000	0.000036  
1884.000000	-0.000115 
1883.000000	-0.000304 
1882.000000	-0.000462 
1881.000000	-0.000519 
1880.000000	-0.000469 
1879.000000	-0.000371 
1878.000000	-0.000260 
1877.000000	-0.000123 
1876.000000	0.000014  
1875.000000	0.000071  
1874.000000	0.000018  
1873.000000	-0.000074 
1872.000000	-0.000136 
1871.000000	-0.000166 
1870.000000	-0.000169 
1869.000000	-0.000099 
1868.000000	0.000016  
1867.000000	0.000056  
1866.000000	-0.000000 
1865.000000	-0.000065 
1864.000000	-0.000084 
1863.000000	-0.000091 
1862.000000	-0.000136 
1861.000000	-0.000204 
1860.000000	-0.000254 
1859.000000	-0.000284 
1858.000000	-0.000308 
1857.000000	-0.000302 
1856.000000	-0.000252 
1855.000000	-0.000192 
1854.000000	-0.000155 
1853.000000	-0.000118 
1852.000000	-0.000041 
1851.000000	0.000056  
1850.000000	0.000107  
1849.000000	0.000096  
1848.000000	0.000063  
1847.000000	0.000035  
1846.000000	0.000011  
1845.000000	0.000019  
1844.000000	0.000092  
1843.000000	0.000179  
1842.000000	0.000220  
1841.000000	0.000219  
1840.000000	0.000196  
1839.000000	0.000149  
1838.000000	0.000065  
1837.000000	-0.000041 
1836.000000	-0.000118 
1835.000000	-0.000131 
1834.000000	-0.000103 
1833.000000	-0.000088 
1832.000000	-0.000111 
1831.000000	-0.000146 
1830.000000	-0.000147 
1829.000000	-0.000130 
1828.000000	-0.000165 
1827.000000	-0.000248 
1826.000000	-0.000304 
1825.000000	-0.000255 
1824.000000	-0.000142 
1823.000000	-0.000077 
1822.000000	-0.000093 
1821.000000	-0.000143 
1820.000000	-0.000170 
1819.000000	-0.000143 
1818.000000	-0.000039 
1817.000000	0.000141  
1816.000000	0.000314  
1815.000000	0.000368  
1814.000000	0.000288  
1813.000000	0.000160  
1812.000000	0.000085  
1811.000000	0.000074  
1810.000000	0.000096  
1809.000000	0.000133  
1808.000000	0.000143  
1807.000000	0.000083  
1806.000000	-0.000020 
1805.000000	-0.000069 
1804.000000	0.000001  
1803.000000	0.000163  
1802.000000	0.000341  
1801.000000	0.000479  
1800.000000	0.000543  
1799.000000	0.000522  
1798.000000	0.000474  
1797.000000	0.000500  
1796.000000	0.000618  
1795.000000	0.000744  
1794.000000	0.000791  
1793.000000	0.000789  
1792.000000	0.000810  
1791.000000	0.000806  
1790.000000	0.000740  
1789.000000	0.000668  
1788.000000	0.000626  
1787.000000	0.000610  
1786.000000	0.000638  
1785.000000	0.000746  
1784.000000	0.000909  
1783.000000	0.001033  
1782.000000	0.001058  
1781.000000	0.001045  
1780.000000	0.001105  
1779.000000	0.001222  
1778.000000	0.001313  
1777.000000	0.001365  
1776.000000	0.001412  
1775.000000	0.001456  
1774.000000	0.001441  
1773.000000	0.001405  
1772.000000	0.001474  
1771.000000	0.001586  
1770.000000	0.001641  
1769.000000	0.001725  
1768.000000	0.001923  
1767.000000	0.002183  
1766.000000	0.002409  
1765.000000	0.002601  
1764.000000	0.002814  
1763.000000	0.003074  
1762.000000	0.003365  
1761.000000	0.003690  
1760.000000	0.004065  
1759.000000	0.004470  
1758.000000	0.004913  
1757.000000	0.005490  
1756.000000	0.006236  
1755.000000	0.007031  
1754.000000	0.007832  
1753.000000	0.008841  
1752.000000	0.010445  
1751.000000	0.012906  
1750.000000	0.016268  
1749.000000	0.020617  
1748.000000	0.025735  
1747.000000	0.030986  
1746.000000	0.036160  
1745.000000	0.041610  
1744.000000	0.047209  
1743.000000	0.051942  
1742.000000	0.054946  
1741.000000	0.056092  
1740.000000	0.055357  
1739.000000	0.053050  
1738.000000	0.050197  
1737.000000	0.047349  
1736.000000	0.043989  
1735.000000	0.038913  
1734.000000	0.032752  
1733.000000	0.028185  
1732.000000	0.025596  
1731.000000	0.023748  
1730.000000	0.022204  
1729.000000	0.020939  
1728.000000	0.019980  
1727.000000	0.019251  
1726.000000	0.018696  
1725.000000	0.018246  
1724.000000	0.017828  
1723.000000	0.017415  
1722.000000	0.017045  
1721.000000	0.016676  
1720.000000	0.016154  
1719.000000	0.015255  
1718.000000	0.014030  
1717.000000	0.012953  
1716.000000	0.012141  
1715.000000	0.011350  
1714.000000	0.010557  
1713.000000	0.009811  
1712.000000	0.009089  
1711.000000	0.008360  
1710.000000	0.007667  
1709.000000	0.007072  
1708.000000	0.006561  
1707.000000	0.006061  
1706.000000	0.005575  
1705.000000	0.005206  
1704.000000	0.004977  
1703.000000	0.004836  
1702.000000	0.004731  
1701.000000	0.004576  
1700.000000	0.004264  
1699.000000	0.003903  
1698.000000	0.003693  
1697.000000	0.003608  
1696.000000	0.003492  
1695.000000	0.003293  
1694.000000	0.003165  
1693.000000	0.003166  
1692.000000	0.003176  
1691.000000	0.003109  
1690.000000	0.002999  
1689.000000	0.002930  
1688.000000	0.002917  
1687.000000	0.002951  
1686.000000	0.002999  
1685.000000	0.003078  
1684.000000	0.003121  
1683.000000	0.003031  
1682.000000	0.002986  
1681.000000	0.003050  
1680.000000	0.003098  
1679.000000	0.003085  
1678.000000	0.003051  
1677.000000	0.003015  
1676.000000	0.002951  
1675.000000	0.002895  
1674.000000	0.002924  
1673.000000	0.003016  
1672.000000	0.003055  
1671.000000	0.002982  
1670.000000	0.002964  
1669.000000	0.003121  
1668.000000	0.003307  
1667.000000	0.003435  
1666.000000	0.003543  
1665.000000	0.003662  
1664.000000	0.003804  
1663.000000	0.003996  
1662.000000	0.004224  
1661.000000	0.004392  
1660.000000	0.004470  
1659.000000	0.004480  
1658.000000	0.004513  
1657.000000	0.004595  
1656.000000	0.004756  
1655.000000	0.004887  
1654.000000	0.005057  
1653.000000	0.005321  
1652.000000	0.005335  
1651.000000	0.005278  
1650.000000	0.005327  
1649.000000	0.005373  
1648.000000	0.005303  
1647.000000	0.005198  
1646.000000	0.005210  
1645.000000	0.005291  
1644.000000	0.005367  
1643.000000	0.005409  
1642.000000	0.005419  
1641.000000	0.005447  
1640.000000	0.005490  
1639.000000	0.005520  
1638.000000	0.005522  
1637.000000	0.005549  
1636.000000	0.005616  
1635.000000	0.005559  
1634.000000	0.005406  
1633.000000	0.005360  
1632.000000	0.005392  
1631.000000	0.005389  
1630.000000	0.005309  
1629.000000	0.005168  
1628.000000	0.005001  
1627.000000	0.004836  
1626.000000	0.004706  
1625.000000	0.004610  
1624.000000	0.004517  
1623.000000	0.004412  
1622.000000	0.004320  
1621.000000	0.004266  
1620.000000	0.004244  
1619.000000	0.004204  
1618.000000	0.004103  
1617.000000	0.003976  
1616.000000	0.003845  
1615.000000	0.003716  
1614.000000	0.003643  
1613.000000	0.003635  
1612.000000	0.003632  
1611.000000	0.003593  
1610.000000	0.003522  
1609.000000	0.003442  
1608.000000	0.003377  
1607.000000	0.003361  
1606.000000	0.003412  
1605.000000	0.003489  
1604.000000	0.003529  
1603.000000	0.003493  
1602.000000	0.003392  
1601.000000	0.003250  
1600.000000	0.003079  
1599.000000	0.002902  
1598.000000	0.002775  
1597.000000	0.002742  
1596.000000	0.002791  
1595.000000	0.002869  
1594.000000	0.002937  
1593.000000	0.002977  
1592.000000	0.002996  
1591.000000	0.003032  
1590.000000	0.003115  
1589.000000	0.003218  
1588.000000	0.003284  
1587.000000	0.003311  
1586.000000	0.003361  
1585.000000	0.003461  
1584.000000	0.003571  
1583.000000	0.003661  
1582.000000	0.003735  
1581.000000	0.003799  
1580.000000	0.003824  
1579.000000	0.003782  
1578.000000	0.003671  
1577.000000	0.003614  
1576.000000	0.003736  
1575.000000	0.003901  
1574.000000	0.003997  
1573.000000	0.004063  
1572.000000	0.004097  
1571.000000	0.004086  
1570.000000	0.004118  
1569.000000	0.004209  
1568.000000	0.004248  
1567.000000	0.004214  
1566.000000	0.004180  
1565.000000	0.004184  
1564.000000	0.004208  
1563.000000	0.004203  
1562.000000	0.004190  
1561.000000	0.004214  
1560.000000	0.004204  
1559.000000	0.003915  
1558.000000	0.003455  
1557.000000	0.003185  
1556.000000	0.003135  
1555.000000	0.003162  
1554.000000	0.003135  
1553.000000	0.003111  
1552.000000	0.003093  
1551.000000	0.003048  
1550.000000	0.002961  
1549.000000	0.002878  
1548.000000	0.002797  
1547.000000	0.002697  
1546.000000	0.002581  
1545.000000	0.002530  
1544.000000	0.002513  
1543.000000	0.002424  
1542.000000	0.002227  
1541.000000	0.002377  
1540.000000	0.003047  
1539.000000	0.003386  
1538.000000	0.003293  
1537.000000	0.003236  
1536.000000	0.003238  
1535.000000	0.003202  
1534.000000	0.003136  
1533.000000	0.003169  
1532.000000	0.003260  
1531.000000	0.003292  
1530.000000	0.003259  
1529.000000	0.003188  
1528.000000	0.003112  
1527.000000	0.003056  
1526.000000	0.003072  
1525.000000	0.003178  
1524.000000	0.003306  
1523.000000	0.003365  
1522.000000	0.003467  
1521.000000	0.003712  
1520.000000	0.003892  
1519.000000	0.003939  
1518.000000	0.003963  
1517.000000	0.004039  
1516.000000	0.004108  
1515.000000	0.004105  
1514.000000	0.004142  
1513.000000	0.004309  
1512.000000	0.004558  
1511.000000	0.004774  
1510.000000	0.004970  
1509.000000	0.005250  
1508.000000	0.005640  
1507.000000	0.005905  
1506.000000	0.005842  
1505.000000	0.005779  
1504.000000	0.005923  
1503.000000	0.006136  
1502.000000	0.006337  
1501.000000	0.006543  
1500.000000	0.006718  
1499.000000	0.006810  
1498.000000	0.006929  
1497.000000	0.007297  
1496.000000	0.007738  
1495.000000	0.007939  
1494.000000	0.007988  
1493.000000	0.008069  
1492.000000	0.008188  
1491.000000	0.008356  
1490.000000	0.008810  
1489.000000	0.009620  
1488.000000	0.010342  
1487.000000	0.010755  
1486.000000	0.011112  
1485.000000	0.011618  
1484.000000	0.012273  
1483.000000	0.013086  
1482.000000	0.014197  
1481.000000	0.015599  
1480.000000	0.016980  
1479.000000	0.018162  
1478.000000	0.019399  
1477.000000	0.020986  
1476.000000	0.022841  
1475.000000	0.024914  
1474.000000	0.028300  
1473.000000	0.034612  
1472.000000	0.042542  
1471.000000	0.049340  
1470.000000	0.054922  
1469.000000	0.060069  
1468.000000	0.064769  
1467.000000	0.068818  
1466.000000	0.072247  
1465.000000	0.075057  
1464.000000	0.076854  
1463.000000	0.077683  
1462.000000	0.078111  
1461.000000	0.078450  
1460.000000	0.078744  
1459.000000	0.079080  
1458.000000	0.079774  
1457.000000	0.080016  
1456.000000	0.078554  
1455.000000	0.076153  
1454.000000	0.073645  
1453.000000	0.070953  
1452.000000	0.068114  
1451.000000	0.065410  
1450.000000	0.063004  
1449.000000	0.060610  
1448.000000	0.057951  
1447.000000	0.055189  
1446.000000	0.052552  
1445.000000	0.049963  
1444.000000	0.047326  
1443.000000	0.044724  
1442.000000	0.042293  
1441.000000	0.040085  
1440.000000	0.038110  
1439.000000	0.036331  
1438.000000	0.034563  
1437.000000	0.032590  
1436.000000	0.030654  
1435.000000	0.029168  
1434.000000	0.027992  
1433.000000	0.026756  
1432.000000	0.025333  
1431.000000	0.023837  
1430.000000	0.022417  
1429.000000	0.021161  
1428.000000	0.020181  
1427.000000	0.019525  
1426.000000	0.019087  
1425.000000	0.018727  
1424.000000	0.018446  
1423.000000	0.018270  
1422.000000	0.018092  
1421.000000	0.017787  
1420.000000	0.017398  
1419.000000	0.017077  
1418.000000	0.016797  
1417.000000	0.016436  
1416.000000	0.016016  
1415.000000	0.015577  
1414.000000	0.015096  
1413.000000	0.014585  
1412.000000	0.014171  
1411.000000	0.013970  
1410.000000	0.013916  
1409.000000	0.013875  
1408.000000	0.013841  
1407.000000	0.013894  
1406.000000	0.014045  
1405.000000	0.014228  
1404.000000	0.014430  
1403.000000	0.014659  
1402.000000	0.014890  
1401.000000	0.015135  
1400.000000	0.015514  
1399.000000	0.016076  
1398.000000	0.016623  
1397.000000	0.016985  
1396.000000	0.017245  
1395.000000	0.017542  
1394.000000	0.017843  
1393.000000	0.018087  
1392.000000	0.018344  
1391.000000	0.018685  
1390.000000	0.019163  
1389.000000	0.019948  
1388.000000	0.021337  
1387.000000	0.023334  
1386.000000	0.025478  
1385.000000	0.027497  
1384.000000	0.029613  
1383.000000	0.032133  
1382.000000	0.035139  
1381.000000	0.038469  
1380.000000	0.041732  
1379.000000	0.044293  
1378.000000	0.045557  
1377.000000	0.045348  
1376.000000	0.043781  
1375.000000	0.041018  
1374.000000	0.037589  
1373.000000	0.034408  
1372.000000	0.031993  
1371.000000	0.030290  
1370.000000	0.029147  
1369.000000	0.028499  
1368.000000	0.028226  
1367.000000	0.028047  
1366.000000	0.027683  
1365.000000	0.026983  
1364.000000	0.025919  
1363.000000	0.024624  
1362.000000	0.023395  
1361.000000	0.022455  
1360.000000	0.021818  
1359.000000	0.021406  
1358.000000	0.021141  
1357.000000	0.020953  
1356.000000	0.020797  
1355.000000	0.020669  
1354.000000	0.020575  
1353.000000	0.020511  
1352.000000	0.020457  
1351.000000	0.020391  
1350.000000	0.020289  
1349.000000	0.020132  
1348.000000	0.019933  
1347.000000	0.019713  
1346.000000	0.019482  
1345.000000	0.019257  
1344.000000	0.019079  
1343.000000	0.018975  
1342.000000	0.018901  
1341.000000	0.018755  
1340.000000	0.018462  
1339.000000	0.018047  
1338.000000	0.017588  
1337.000000	0.017142  
1336.000000	0.016746  
1335.000000	0.016416  
1334.000000	0.016134  
1333.000000	0.015871  
1332.000000	0.015652  
1331.000000	0.015545  
1330.000000	0.015560  
1329.000000	0.015622  
1328.000000	0.015667  
1327.000000	0.015708  
1326.000000	0.015786  
1325.000000	0.015903  
1324.000000	0.016032  
1323.000000	0.016157  
1322.000000	0.016273  
1321.000000	0.016371  
1320.000000	0.016445  
1319.000000	0.016502  
1318.000000	0.016552  
1317.000000	0.016618  
1316.000000	0.016736  
1315.000000	0.016925  
1314.000000	0.017145  
1313.000000	0.017312  
1312.000000	0.017401  
1311.000000	0.017469  
1310.000000	0.017574  
1309.000000	0.017711  
1308.000000	0.017834  
1307.000000	0.017915  
1306.000000	0.017959  
1305.000000	0.017978  
1304.000000	0.017987  
1303.000000	0.017990  
1302.000000	0.017972  
1301.000000	0.017901  
1300.000000	0.017764  
1299.000000	0.017585  
1298.000000	0.017400  
1297.000000	0.017213  
1296.000000	0.017010  
1295.000000	0.016789  
1294.000000	0.016569  
1293.000000	0.016370  
1292.000000	0.016216  
1291.000000	0.016130  
1290.000000	0.016121  
1289.000000	0.016179  
1288.000000	0.016288  
1287.000000	0.016443  
1286.000000	0.016648  
1285.000000	0.016898  
1284.000000	0.017167  
1283.000000	0.017412  
1282.000000	0.017607  
1281.000000	0.017767  
1280.000000	0.017940  
1279.000000	0.018147  
1278.000000	0.018364  
1277.000000	0.018555  
1276.000000	0.018716  
1275.000000	0.018862  
1274.000000	0.018985  
1273.000000	0.019066  
1272.000000	0.019117  
1271.000000	0.019169  
1270.000000	0.019223  
1269.000000	0.019246  
1268.000000	0.019232  
1267.000000	0.019236  
1266.000000	0.019318  
1265.000000	0.019466  
1264.000000	0.019624  
1263.000000	0.019755  
1262.000000	0.019877  
1261.000000	0.020024  
1260.000000	0.020193  
1259.000000	0.020341  
1258.000000	0.020435  
1257.000000	0.020498  
1256.000000	0.020600  
1255.000000	0.020803  
1254.000000	0.021105  
1253.000000	0.021445  
1252.000000	0.021770  
1251.000000	0.022093  
1250.000000	0.022455  
1249.000000	0.022864  
1248.000000	0.023262  
1247.000000	0.023575  
1246.000000	0.023781  
1245.000000	0.023912  
1244.000000	0.023985  
1243.000000	0.023967  
1242.000000	0.023821  
1241.000000	0.023569  
1240.000000	0.023280  
1239.000000	0.022994  
1238.000000	0.022696  
1237.000000	0.022356  
1236.000000	0.021983  
1235.000000	0.021613  
1234.000000	0.021268  
1233.000000	0.020948  
1232.000000	0.020648  
1231.000000	0.020361  
1230.000000	0.020078  
1229.000000	0.019795  
1228.000000	0.019542  
1227.000000	0.019352  
1226.000000	0.019221  
1225.000000	0.019114  
1224.000000	0.019014  
1223.000000	0.018946  
1222.000000	0.018937  
1221.000000	0.018991  
1220.000000	0.019100  
1219.000000	0.019249  
1218.000000	0.019410  
1217.000000	0.019548  
1216.000000	0.019659  
1215.000000	0.019783  
1214.000000	0.019956  
1213.000000	0.020173  
1212.000000	0.020390  
1211.000000	0.020575  
1210.000000	0.020735  
1209.000000	0.020904  
1208.000000	0.021115  
1207.000000	0.021366  
1206.000000	0.021639  
1205.000000	0.021920  
1204.000000	0.022225  
1203.000000	0.022573  
1202.000000	0.022969  
1201.000000	0.023402  
1200.000000	0.023858  
1199.000000	0.024327  
1198.000000	0.024813  
1197.000000	0.025342  
1196.000000	0.025945  
1195.000000	0.026611  
1194.000000	0.027292  
1193.000000	0.027946  
1192.000000	0.028571  
1191.000000	0.029193  
1190.000000	0.029827  
1189.000000	0.030474  
1188.000000	0.031135  
1187.000000	0.031807  
1186.000000	0.032486  
1185.000000	0.033172  
1184.000000	0.033878  
1183.000000	0.034591  
1182.000000	0.035262  
1181.000000	0.035839  
1180.000000	0.036312  
1179.000000	0.036702  
1178.000000	0.037009  
1177.000000	0.037206  
1176.000000	0.037277  
1175.000000	0.037242  
1174.000000	0.037145  
1173.000000	0.037000  
1172.000000	0.036789  
1171.000000	0.036480  
1170.000000	0.036055  
1169.000000	0.035514  
1168.000000	0.034882  
1167.000000	0.034196  
1166.000000	0.033463  
1165.000000	0.032660  
1164.000000	0.031777  
1163.000000	0.030851  
1162.000000	0.029938  
1161.000000	0.029051  
1160.000000	0.028184  
1159.000000	0.027348  
1158.000000	0.026558  
1157.000000	0.025787  
1156.000000	0.025001  
1155.000000	0.024234  
1154.000000	0.023577  
1153.000000	0.023061  
1152.000000	0.022616  
1151.000000	0.022147  
1150.000000	0.021627  
1149.000000	0.021098  
1148.000000	0.020609  
1147.000000	0.020180  
1146.000000	0.019788  
1145.000000	0.019387  
1144.000000	0.018940  
1143.000000	0.018448  
1142.000000	0.017951  
1141.000000	0.017486  
1140.000000	0.017057  
1139.000000	0.016658  
1138.000000	0.016288  
1137.000000	0.015952  
1136.000000	0.015664  
1135.000000	0.015442  
1134.000000	0.015290  
1133.000000	0.015184  
1132.000000	0.015079  
1131.000000	0.014968  
1130.000000	0.014914  
1129.000000	0.015019  
1128.000000	0.015350  
1127.000000	0.015882  
1126.000000	0.016520  
1125.000000	0.017168  
1124.000000	0.017798  
1123.000000	0.018437  
1122.000000	0.019114  
1121.000000	0.019799  
1120.000000	0.020415  
1119.000000	0.020887  
1118.000000	0.021192  
1117.000000	0.021355  
1116.000000	0.021398  
1115.000000	0.021329  
1114.000000	0.021164  
1113.000000	0.020940  
1112.000000	0.020685  
1111.000000	0.020392  
1110.000000	0.020049  
1109.000000	0.019691  
1108.000000	0.019395  
1107.000000	0.019212  
1106.000000	0.019121  
1105.000000	0.019063  
1104.000000	0.019006  
1103.000000	0.018962  
1102.000000	0.018944  
1101.000000	0.018935  
1100.000000	0.018906  
1099.000000	0.018836  
1098.000000	0.018733  
1097.000000	0.018633  
1096.000000	0.018571  
1095.000000	0.018545  
1094.000000	0.018511  
1093.000000	0.018446  
1092.000000	0.018404  
1091.000000	0.018484  
1090.000000	0.018722  
1089.000000	0.019059  
1088.000000	0.019414  
1087.000000	0.019764  
1086.000000	0.020151  
1085.000000	0.020632  
1084.000000	0.021250  
1083.000000	0.022024  
1082.000000	0.022927  
1081.000000	0.023891  
1080.000000	0.024860  
1079.000000	0.025842  
1078.000000	0.026889  
1077.000000	0.028032  
1076.000000	0.029223  
1075.000000	0.030361  
1074.000000	0.031338  
1073.000000	0.032065  
1072.000000	0.032473  
1071.000000	0.032536  
1070.000000	0.032309  
1069.000000	0.031916  
1068.000000	0.031486  
1067.000000	0.031107  
1066.000000	0.030815  
1065.000000	0.030612  
1064.000000	0.030473  
1063.000000	0.030357  
1062.000000	0.030192  
1061.000000	0.029875  
1060.000000	0.029315  
1059.000000	0.028524  
1058.000000	0.027637  
1057.000000	0.026839  
1056.000000	0.026252  
1055.000000	0.025909  
1054.000000	0.025790  
1053.000000	0.025868  
1052.000000	0.026121  
1051.000000	0.026518  
1050.000000	0.027021  
1049.000000	0.027571  
1048.000000	0.028090  
1047.000000	0.028508  
1046.000000	0.028801  
1045.000000	0.028978  
1044.000000	0.029039  
1043.000000	0.028972  
1042.000000	0.028792  
1041.000000	0.028553  
1040.000000	0.028301  
1039.000000	0.028039  
1038.000000	0.027746  
1037.000000	0.027442  
1036.000000	0.027196  
1035.000000	0.027085  
1034.000000	0.027150  
1033.000000	0.027383  
1032.000000	0.027730  
1031.000000	0.028083  
1030.000000	0.028271  
1029.000000	0.028115  
1028.000000	0.027519  
1027.000000	0.026536  
1026.000000	0.025343  
1025.000000	0.024145  
1024.000000	0.023070  
1023.000000	0.022144  
1022.000000	0.021324  
1021.000000	0.020567  
1020.000000	0.019872  
1019.000000	0.019271  
1018.000000	0.018807  
1017.000000	0.018508  
1016.000000	0.018389  
1015.000000	0.018433  
1014.000000	0.018576  
1013.000000	0.018731  
1012.000000	0.018824  
1011.000000	0.018799  
1010.000000	0.018620  
1009.000000	0.018284  
1008.000000	0.017839  
1007.000000	0.017361  
1006.000000	0.016883  
1005.000000	0.016389  
1004.000000	0.015879  
1003.000000	0.015413  
1002.000000	0.015060  
1001.000000	0.014823  
1000.000000	0.014663  
999.000000	 0.014577  
998.000000	 0.014610  
997.000000	 0.014785  
996.000000	 0.015056  
995.000000	 0.015335  
994.000000	 0.015553  
993.000000	 0.015680  
992.000000	 0.015705  
991.000000	 0.015628  
990.000000	 0.015458  
989.000000	 0.015212  
988.000000	 0.014903  
987.000000	 0.014553  
986.000000	 0.014196  
985.000000	 0.013863  
984.000000	 0.013563  
983.000000	 0.013297  
982.000000	 0.013091  
981.000000	 0.012988  
980.000000	 0.013009  
979.000000	 0.013124  
978.000000	 0.013287  
977.000000	 0.013489  
976.000000	 0.013753  
975.000000	 0.014096  
974.000000	 0.014478  
973.000000	 0.014827  
972.000000	 0.015095  
971.000000	 0.015297  
970.000000	 0.015478  
969.000000	 0.015669  
968.000000	 0.015856  
967.000000	 0.016001  
966.000000	 0.016081  
965.000000	 0.016107  
964.000000	 0.016087  
963.000000	 0.016007  
962.000000	 0.015869  
961.000000	 0.015731  
960.000000	 0.015688  
959.000000	 0.015783  
958.000000	 0.015971  
957.000000	 0.016190  
956.000000	 0.016428  
955.000000	 0.016712  
954.000000	 0.017025  
953.000000	 0.017279  
952.000000	 0.017367  
951.000000	 0.017233  
950.000000	 0.016902  
949.000000	 0.016473  
948.000000	 0.016051  
947.000000	 0.015678  
946.000000	 0.015307  
945.000000	 0.014885  
944.000000	 0.014448  
943.000000	 0.014093  
942.000000	 0.013856  
941.000000	 0.013644  
940.000000	 0.013329  
939.000000	 0.012872  
938.000000	 0.012338  
937.000000	 0.011815  
936.000000	 0.011373  
935.000000	 0.011056  
934.000000	 0.010870  
933.000000	 0.010778  
932.000000	 0.010709  
931.000000	 0.010616  
930.000000	 0.010484  
929.000000	 0.010332  
928.000000	 0.010215  
927.000000	 0.010207  
926.000000	 0.010329  
925.000000	 0.010520  
924.000000	 0.010694  
923.000000	 0.010831  
922.000000	 0.010985  
921.000000	 0.011180  
920.000000	 0.011359  
919.000000	 0.011434  
918.000000	 0.011373  
917.000000	 0.011212  
916.000000	 0.011024  
915.000000	 0.010879  
914.000000	 0.010813  
913.000000	 0.010791  
912.000000	 0.010729  
911.000000	 0.010576  
910.000000	 0.010364  
909.000000	 0.010173  
908.000000	 0.010049  
907.000000	 0.009995  
906.000000	 0.010003  
905.000000	 0.010059  
904.000000	 0.010121  
903.000000	 0.010148  
902.000000	 0.010150  
901.000000	 0.010168  
900.000000	 0.010192  
899.000000	 0.010148  
898.000000	 0.009999  
897.000000	 0.009819  
896.000000	 0.009717  
895.000000	 0.009717  
894.000000	 0.009746  
893.000000	 0.009738  
892.000000	 0.009693  
891.000000	 0.009655  
890.000000	 0.009656  
889.000000	 0.009708  
888.000000	 0.009789  
887.000000	 0.009830  
886.000000	 0.009759  
885.000000	 0.009587  
884.000000	 0.009423  
883.000000	 0.009386  
882.000000	 0.009495  
881.000000	 0.009667  
880.000000	 0.009804  
879.000000	 0.009846  
878.000000	 0.009795  
877.000000	 0.009706  
876.000000	 0.009672  
875.000000	 0.009757  
874.000000	 0.009937  
873.000000	 0.010126  
872.000000	 0.010238  
871.000000	 0.010243  
870.000000	 0.010174  
869.000000	 0.010114  
868.000000	 0.010143  
867.000000	 0.010261  
866.000000	 0.010379  
865.000000	 0.010408  
864.000000	 0.010357  
863.000000	 0.010325  
862.000000	 0.010385  
861.000000	 0.010529  
860.000000	 0.010711  
859.000000	 0.010918  
858.000000	 0.011176  
857.000000	 0.011510  
856.000000	 0.011899  
855.000000	 0.012275  
854.000000	 0.012585  
853.000000	 0.012857  
852.000000	 0.013207  
851.000000	 0.013736  
850.000000	 0.014418  
849.000000	 0.015122  
848.000000	 0.015716  
847.000000	 0.016141  
846.000000	 0.016365  
845.000000	 0.016346  
844.000000	 0.016073  
843.000000	 0.015622  
842.000000	 0.015115  
841.000000	 0.014621  
840.000000	 0.014123  
839.000000	 0.013580  
838.000000	 0.013000  
837.000000	 0.012459  
836.000000	 0.012052  
835.000000	 0.011813  
834.000000	 0.011665  
833.000000	 0.011492  
832.000000	 0.011270  
831.000000	 0.011097  
830.000000	 0.011059  
829.000000	 0.011091  
828.000000	 0.011053  
827.000000	 0.010935  
826.000000	 0.010886  
825.000000	 0.011006  
824.000000	 0.011196  
823.000000	 0.011299  
822.000000	 0.011285  
821.000000	 0.011210  
820.000000	 0.011108  
819.000000	 0.010996  
818.000000	 0.010943  
817.000000	 0.011016  
816.000000	 0.011175  
815.000000	 0.011295  
814.000000	 0.011306  
813.000000	 0.011278  
812.000000	 0.011328  
811.000000	 0.011493  
810.000000	 0.011718  
809.000000	 0.011940  
808.000000	 0.012152  
807.000000	 0.012377  
806.000000	 0.012605  
805.000000	 0.012757  
804.000000	 0.012720  
803.000000	 0.012439  
802.000000	 0.011975  
801.000000	 0.011471  
800.000000	 0.011043  
799.000000	 0.010735  
798.000000	 0.010544  
797.000000	 0.010465  
796.000000	 0.010463  
795.000000	 0.010467  
794.000000	 0.010426  
793.000000	 0.010385  
792.000000	 0.010443  
791.000000	 0.010641  
790.000000	 0.010905  
789.000000	 0.011132  
788.000000	 0.011298  
787.000000	 0.011476  
786.000000	 0.011747  
785.000000	 0.012131  
784.000000	 0.012584  
783.000000	 0.013041  
782.000000	 0.013459  
781.000000	 0.013841  
780.000000	 0.014196  
779.000000	 0.014504  
778.000000	 0.014713  
777.000000	 0.014810  
776.000000	 0.014875  
775.000000	 0.015027  
774.000000	 0.015321  
773.000000	 0.015706  
772.000000	 0.016116  
771.000000	 0.016544  
770.000000	 0.017001  
769.000000	 0.017429  
768.000000	 0.017721  
767.000000	 0.017842  
766.000000	 0.017874  
765.000000	 0.017921  
764.000000	 0.018000  
763.000000	 0.018055  
762.000000	 0.018044  
761.000000	 0.017971  
760.000000	 0.017856  
759.000000	 0.017752  
758.000000	 0.017776  
757.000000	 0.018045  
756.000000	 0.018564  
755.000000	 0.019199  
754.000000	 0.019789  
753.000000	 0.020266  
752.000000	 0.020671  
751.000000	 0.021093  
750.000000	 0.021599  
749.000000	 0.022186  
748.000000	 0.022812  
747.000000	 0.023495  
746.000000	 0.024381  
745.000000	 0.025616  
744.000000	 0.027139  
743.000000	 0.028666  
742.000000	 0.029938  
741.000000	 0.030912  
740.000000	 0.031684  
739.000000	 0.032306  
738.000000	 0.032759  
737.000000	 0.033051  
736.000000	 0.033228  
735.000000	 0.033309  
734.000000	 0.033291  
733.000000	 0.033250  
732.000000	 0.033360  
731.000000	 0.033780  
730.000000	 0.034541  
729.000000	 0.035537  
728.000000	 0.036619  
727.000000	 0.037691  
726.000000	 0.038737  
725.000000	 0.039759  
724.000000	 0.040671  
723.000000	 0.041242  
722.000000	 0.041197  
721.000000	 0.040422  
720.000000	 0.039097  
719.000000	 0.037565  
718.000000	 0.036071  
717.000000	 0.034702  
716.000000	 0.033500  
715.000000	 0.032518  
714.000000	 0.031752  
713.000000	 0.031108  
712.000000	 0.030471  
711.000000	 0.029785  
710.000000	 0.029082  
709.000000	 0.028455  
708.000000	 0.028006  
707.000000	 0.027777  
706.000000	 0.027700  
705.000000	 0.027664  
704.000000	 0.027635  
703.000000	 0.027639  
702.000000	 0.027669  
701.000000	 0.027678  
700.000000	 0.027644  
699.000000	 0.027561  
698.000000	 0.027343  
697.000000	 0.026837  
696.000000	 0.026015  
695.000000	 0.025059  
694.000000	 0.024216  
693.000000	 0.023584  
692.000000	 0.023095  
691.000000	 0.022689  
690.000000	 0.022384  
689.000000	 0.022201  
688.000000	 0.022064  
687.000000	 0.021831  
686.000000	 0.021452  
685.000000	 0.021053  
684.000000	 0.020817  
683.000000	 0.020789  
682.000000	 0.020802  
681.000000	 0.020634  
680.000000	 0.020247  
679.000000	 0.019819  
678.000000	 0.019501  
677.000000	 0.019245  
676.000000	 0.018973  
675.000000	 0.018692  
674.000000	 0.018458  
673.000000	 0.018315  
672.000000	 0.018326  
671.000000	 0.018613  
670.000000	 0.019334  
669.000000	 0.020313  
668.000000	 0.020212  
667.000000	 0.018361  
666.000000	 0.016827  
665.000000	 0.016387  
664.000000	 0.016478  
663.000000	 0.016696  
662.000000	 0.016897  
661.000000	 0.016983  
660.000000	 0.016916  
659.000000	 0.016761  
658.000000	 0.016662  
657.000000	 0.016672  
656.000000	 0.016738  
655.000000	 0.016755  
654.000000	 0.016621  
653.000000	 0.016292  
652.000000	 0.015791  
651.000000	 0.015268  
650.000000	 0.014921  

