PE IR                   SPECTRUM    ASCII       PEDS        1.60        
  -1
NB450~1.ASC
17/05/24
07:55:29.00
17/05/24
07:55:29.00
Admin

650.000000
4









SPECTRUM ONE,CPU32 MAIN 00.02.6000 25-JUNE-2003 12:00:00
MIR TGS
MIR
OPTKBR
68128
0.200000

4.000000
STRONG
RATIO
SPECTRUM
MAGNITUDE
UNIVERSAL ATR
DOUBLE

COMBINED


0


#HDR
-1
-1
#GR
CM-1
A
0.00000011920928955078
0.0
4000.000000
-1.000000
3351
8
0.190869
-0.001858
#DATA
4000.000000	0.003871  
3999.000000	0.003817  
3998.000000	0.003778  
3997.000000	0.003720  
3996.000000	0.003609  
3995.000000	0.003463  
3994.000000	0.003352  
3993.000000	0.003339  
3992.000000	0.003429  
3991.000000	0.003569  
3990.000000	0.003698  
3989.000000	0.003784  
3988.000000	0.003816  
3987.000000	0.003789  
3986.000000	0.003697  
3985.000000	0.003558  
3984.000000	0.003425  
3983.000000	0.003361  
3982.000000	0.003387  
3981.000000	0.003452  
3980.000000	0.003474  
3979.000000	0.003416  
3978.000000	0.003320  
3977.000000	0.003268  
3976.000000	0.003304  
3975.000000	0.003395  
3974.000000	0.003468  
3973.000000	0.003480  
3972.000000	0.003447  
3971.000000	0.003413  
3970.000000	0.003402  
3969.000000	0.003403  
3968.000000	0.003392  
3967.000000	0.003366  
3966.000000	0.003345  
3965.000000	0.003337  
3964.000000	0.003326  
3963.000000	0.003295  
3962.000000	0.003256  
3961.000000	0.003242  
3960.000000	0.003260  
3959.000000	0.003281  
3958.000000	0.003280  
3957.000000	0.003268  
3956.000000	0.003264  
3955.000000	0.003271  
3954.000000	0.003264  
3953.000000	0.003223  
3952.000000	0.003155  
3951.000000	0.003090  
3950.000000	0.003045  
3949.000000	0.003014  
3948.000000	0.002986  
3947.000000	0.002973  
3946.000000	0.002991  
3945.000000	0.003034  
3944.000000	0.003090  
3943.000000	0.003166  
3942.000000	0.003285  
3941.000000	0.003433  
3940.000000	0.003543  
3939.000000	0.003547  
3938.000000	0.003443  
3937.000000	0.003304  
3936.000000	0.003217  
3935.000000	0.003225  
3934.000000	0.003296  
3933.000000	0.003360  
3932.000000	0.003374  
3931.000000	0.003359  
3930.000000	0.003365  
3929.000000	0.003425  
3928.000000	0.003520  
3927.000000	0.003574  
3926.000000	0.003514  
3925.000000	0.003363  
3924.000000	0.003217  
3923.000000	0.003117  
3922.000000	0.003034  
3921.000000	0.002961  
3920.000000	0.002964  
3919.000000	0.003101  
3918.000000	0.003327  
3917.000000	0.003527  
3916.000000	0.003644  
3915.000000	0.003707  
3914.000000	0.003756  
3913.000000	0.003794  
3912.000000	0.003784  
3911.000000	0.003677  
3910.000000	0.003449  
3909.000000	0.003137  
3908.000000	0.002841  
3907.000000	0.002680  
3906.000000	0.002712  
3905.000000	0.002888  
3904.000000	0.003079  
3903.000000	0.003176  
3902.000000	0.003173  
3901.000000	0.003141  
3900.000000	0.003158  
3899.000000	0.003245  
3898.000000	0.003338  
3897.000000	0.003355  
3896.000000	0.003284  
3895.000000	0.003206  
3894.000000	0.003212  
3893.000000	0.003286  
3892.000000	0.003318  
3891.000000	0.003258  
3890.000000	0.003162  
3889.000000	0.003103  
3888.000000	0.003059  
3887.000000	0.002932  
3886.000000	0.002742  
3885.000000	0.002655  
3884.000000	0.002756  
3883.000000	0.002948  
3882.000000	0.003062  
3881.000000	0.003023  
3880.000000	0.002925  
3879.000000	0.002876  
3878.000000	0.002886  
3877.000000	0.002884  
3876.000000	0.002777  
3875.000000	0.002577  
3874.000000	0.002444  
3873.000000	0.002495  
3872.000000	0.002619  
3871.000000	0.002635  
3870.000000	0.002616  
3869.000000	0.002787  
3868.000000	0.003174  
3867.000000	0.003558  
3866.000000	0.003721  
3865.000000	0.003684  
3864.000000	0.003648  
3863.000000	0.003685  
3862.000000	0.003686  
3861.000000	0.003548  
3860.000000	0.003260  
3859.000000	0.002887  
3858.000000	0.002552  
3857.000000	0.002409  
3856.000000	0.002512  
3855.000000	0.002579  
3854.000000	0.002440  
3853.000000	0.002452  
3852.000000	0.002750  
3851.000000	0.003091  
3850.000000	0.003283  
3849.000000	0.003300  
3848.000000	0.003205  
3847.000000	0.003053  
3846.000000	0.002886  
3845.000000	0.002759  
3844.000000	0.002776  
3843.000000	0.003036  
3842.000000	0.003521  
3841.000000	0.004035  
3840.000000	0.004314  
3839.000000	0.004260  
3838.000000	0.004009  
3837.000000	0.003752  
3836.000000	0.003569  
3835.000000	0.003437  
3834.000000	0.003303  
3833.000000	0.003158  
3832.000000	0.003074  
3831.000000	0.003139  
3830.000000	0.003353  
3829.000000	0.003586  
3828.000000	0.003644  
3827.000000	0.003457  
3826.000000	0.003188  
3825.000000	0.003084  
3824.000000	0.003242  
3823.000000	0.003446  
3822.000000	0.003407  
3821.000000	0.003242  
3820.000000	0.003242  
3819.000000	0.003434  
3818.000000	0.003574  
3817.000000	0.003454  
3816.000000	0.003233  
3815.000000	0.003209  
3814.000000	0.003377  
3813.000000	0.003489  
3812.000000	0.003374  
3811.000000	0.003095  
3810.000000	0.002844  
3809.000000	0.002713  
3808.000000	0.002671  
3807.000000	0.002741  
3806.000000	0.002999  
3805.000000	0.003420  
3804.000000	0.003771  
3803.000000	0.003666  
3802.000000	0.003099  
3801.000000	0.002614  
3800.000000	0.002536  
3799.000000	0.002699  
3798.000000	0.002804  
3797.000000	0.002747  
3796.000000	0.002678  
3795.000000	0.002747  
3794.000000	0.002918  
3793.000000	0.003058  
3792.000000	0.003085  
3791.000000	0.003016  
3790.000000	0.002922  
3789.000000	0.002880  
3788.000000	0.002941  
3787.000000	0.003093  
3786.000000	0.003252  
3785.000000	0.003326  
3784.000000	0.003309  
3783.000000	0.003253  
3782.000000	0.003178  
3781.000000	0.003032  
3780.000000	0.002814  
3779.000000	0.002640  
3778.000000	0.002599  
3777.000000	0.002647  
3776.000000	0.002670  
3775.000000	0.002628  
3774.000000	0.002602  
3773.000000	0.002669  
3772.000000	0.002764  
3771.000000	0.002747  
3770.000000	0.002621  
3769.000000	0.002555  
3768.000000	0.002664  
3767.000000	0.002879  
3766.000000	0.003043  
3765.000000	0.003095  
3764.000000	0.003106  
3763.000000	0.003147  
3762.000000	0.003195  
3761.000000	0.003200  
3760.000000	0.003174  
3759.000000	0.003170  
3758.000000	0.003202  
3757.000000	0.003265  
3756.000000	0.003360  
3755.000000	0.003453  
3754.000000	0.003443  
3753.000000	0.003214  
3752.000000	0.002814  
3751.000000	0.002517  
3750.000000	0.002427  
3749.000000	0.002416  
3748.000000	0.002439  
3747.000000	0.002494  
3746.000000	0.002445  
3745.000000	0.002274  
3744.000000	0.002276  
3743.000000	0.002533  
3742.000000	0.002765  
3741.000000	0.002745  
3740.000000	0.002530  
3739.000000	0.002398  
3738.000000	0.002558  
3737.000000	0.002941  
3736.000000	0.003272  
3735.000000	0.003342  
3734.000000	0.003163  
3733.000000	0.002881  
3732.000000	0.002631  
3731.000000	0.002495  
3730.000000	0.002466  
3729.000000	0.002439  
3728.000000	0.002307  
3727.000000	0.002093  
3726.000000	0.001949  
3725.000000	0.001954  
3724.000000	0.002041  
3723.000000	0.002124  
3722.000000	0.002202  
3721.000000	0.002300  
3720.000000	0.002385  
3719.000000	0.002380  
3718.000000	0.002256  
3717.000000	0.002088  
3716.000000	0.001979  
3715.000000	0.001953  
3714.000000	0.001913  
3713.000000	0.001760  
3712.000000	0.001620  
3711.000000	0.001712  
3710.000000	0.001979  
3709.000000	0.002221  
3708.000000	0.002344  
3707.000000	0.002384  
3706.000000	0.002421  
3705.000000	0.002500  
3704.000000	0.002584  
3703.000000	0.002585  
3702.000000	0.002473  
3701.000000	0.002341  
3700.000000	0.002313  
3699.000000	0.002431  
3698.000000	0.002638  
3697.000000	0.002857  
3696.000000	0.003053  
3695.000000	0.003227  
3694.000000	0.003398  
3693.000000	0.003582  
3692.000000	0.003725  
3691.000000	0.003680  
3690.000000	0.003388  
3689.000000	0.003033  
3688.000000	0.002843  
3687.000000	0.002865  
3686.000000	0.002975  
3685.000000	0.003022  
3684.000000	0.002941  
3683.000000	0.002772  
3682.000000	0.002563  
3681.000000	0.002331  
3680.000000	0.002183  
3679.000000	0.002333  
3678.000000	0.002843  
3677.000000	0.003329  
3676.000000	0.003328  
3675.000000	0.002951  
3674.000000	0.002645  
3673.000000	0.002601  
3672.000000	0.002697  
3671.000000	0.002753  
3670.000000	0.002790  
3669.000000	0.002885  
3668.000000	0.002990  
3667.000000	0.003032  
3666.000000	0.003000  
3665.000000	0.002968  
3664.000000	0.003019  
3663.000000	0.003148  
3662.000000	0.003247  
3661.000000	0.003207  
3660.000000	0.003002  
3659.000000	0.002686  
3658.000000	0.002331  
3657.000000	0.002065  
3656.000000	0.002040  
3655.000000	0.002267  
3654.000000	0.002624  
3653.000000	0.002997  
3652.000000	0.003310  
3651.000000	0.003561  
3650.000000	0.003929  
3649.000000	0.004403  
3648.000000	0.004609  
3647.000000	0.004450  
3646.000000	0.004152  
3645.000000	0.003880  
3644.000000	0.003660  
3643.000000	0.003473  
3642.000000	0.003337  
3641.000000	0.003281  
3640.000000	0.003275  
3639.000000	0.003248  
3638.000000	0.003175  
3637.000000	0.003088  
3636.000000	0.002971  
3635.000000	0.002748  
3634.000000	0.002402  
3633.000000	0.002066  
3632.000000	0.001960  
3631.000000	0.002203  
3630.000000	0.002672  
3629.000000	0.003165  
3628.000000	0.003545  
3627.000000	0.003749  
3626.000000	0.003766  
3625.000000	0.003643  
3624.000000	0.003507  
3623.000000	0.003503  
3622.000000	0.003658  
3621.000000	0.003816  
3620.000000	0.003772  
3619.000000	0.003520  
3618.000000	0.003251  
3617.000000	0.003103  
3616.000000	0.003049  
3615.000000	0.002991  
3614.000000	0.002881  
3613.000000	0.002770  
3612.000000	0.002739  
3611.000000	0.002796  
3610.000000	0.002886  
3609.000000	0.002981  
3608.000000	0.003127  
3607.000000	0.003353  
3606.000000	0.003610  
3605.000000	0.003835  
3604.000000	0.003998  
3603.000000	0.004090  
3602.000000	0.004099  
3601.000000	0.004031  
3600.000000	0.003922  
3599.000000	0.003803  
3598.000000	0.003705  
3597.000000	0.003677  
3596.000000	0.003748  
3595.000000	0.003886  
3594.000000	0.004020  
3593.000000	0.004094  
3592.000000	0.004115  
3591.000000	0.004129  
3590.000000	0.004138  
3589.000000	0.004084  
3588.000000	0.004001  
3587.000000	0.004067  
3586.000000	0.004336  
3585.000000	0.004654  
3584.000000	0.004849  
3583.000000	0.004859  
3582.000000	0.004739  
3581.000000	0.004614  
3580.000000	0.004584  
3579.000000	0.004646  
3578.000000	0.004698  
3577.000000	0.004652  
3576.000000	0.004534  
3575.000000	0.004441  
3574.000000	0.004420  
3573.000000	0.004405  
3572.000000	0.004313  
3571.000000	0.004168  
3570.000000	0.004097  
3569.000000	0.004222  
3568.000000	0.004562  
3567.000000	0.004993  
3566.000000	0.005303  
3565.000000	0.005378  
3564.000000	0.005271  
3563.000000	0.005110  
3562.000000	0.005021  
3561.000000	0.005058  
3560.000000	0.005197  
3559.000000	0.005370  
3558.000000	0.005520  
3557.000000	0.005631  
3556.000000	0.005718  
3555.000000	0.005803  
3554.000000	0.005875  
3553.000000	0.005898  
3552.000000	0.005852  
3551.000000	0.005757  
3550.000000	0.005655  
3549.000000	0.005586  
3548.000000	0.005585  
3547.000000	0.005670  
3546.000000	0.005822  
3545.000000	0.005988  
3544.000000	0.006110  
3543.000000	0.006169  
3542.000000	0.006188  
3541.000000	0.006203  
3540.000000	0.006238  
3539.000000	0.006287  
3538.000000	0.006324  
3537.000000	0.006327  
3536.000000	0.006308  
3535.000000	0.006295  
3534.000000	0.006295  
3533.000000	0.006275  
3532.000000	0.006194  
3531.000000	0.006054  
3530.000000	0.005919  
3529.000000	0.005885  
3528.000000	0.006001  
3527.000000	0.006227  
3526.000000	0.006457  
3525.000000	0.006600  
3524.000000	0.006642  
3523.000000	0.006642  
3522.000000	0.006665  
3521.000000	0.006719  
3520.000000	0.006761  
3519.000000	0.006745  
3518.000000	0.006677  
3517.000000	0.006612  
3516.000000	0.006601  
3515.000000	0.006641  
3514.000000	0.006696  
3513.000000	0.006758  
3512.000000	0.006878  
3511.000000	0.007118  
3510.000000	0.007457  
3509.000000	0.007774  
3508.000000	0.007952  
3507.000000	0.007980  
3506.000000	0.007936  
3505.000000	0.007910  
3504.000000	0.007934  
3503.000000	0.007969  
3502.000000	0.007949  
3501.000000	0.007852  
3500.000000	0.007720  
3499.000000	0.007622  
3498.000000	0.007620  
3497.000000	0.007725  
3496.000000	0.007880  
3495.000000	0.007996  
3494.000000	0.008042  
3493.000000	0.008084  
3492.000000	0.008230  
3491.000000	0.008515  
3490.000000	0.008835  
3489.000000	0.009027  
3488.000000	0.009018  
3487.000000	0.008895  
3486.000000	0.008799  
3485.000000	0.008798  
3484.000000	0.008844  
3483.000000	0.008840  
3482.000000	0.008721  
3481.000000	0.008521  
3480.000000	0.008356  
3479.000000	0.008357  
3478.000000	0.008584  
3477.000000	0.008988  
3476.000000	0.009429  
3475.000000	0.009756  
3474.000000	0.009887  
3473.000000	0.009834  
3472.000000	0.009677  
3471.000000	0.009498  
3470.000000	0.009343  
3469.000000	0.009221  
3468.000000	0.009141  
3467.000000	0.009135  
3466.000000	0.009228  
3465.000000	0.009388  
3464.000000	0.009529  
3463.000000	0.009568  
3462.000000	0.009502  
3461.000000	0.009413  
3460.000000	0.009406  
3459.000000	0.009531  
3458.000000	0.009744  
3457.000000	0.009941  
3456.000000	0.010038  
3455.000000	0.010026  
3454.000000	0.009966  
3453.000000	0.009938  
3452.000000	0.010011  
3451.000000	0.010216  
3450.000000	0.010516  
3449.000000	0.010810  
3448.000000	0.011002  
3447.000000	0.011086  
3446.000000	0.011129  
3445.000000	0.011160  
3444.000000	0.011139  
3443.000000	0.011026  
3442.000000	0.010855  
3441.000000	0.010720  
3440.000000	0.010698  
3439.000000	0.010805  
3438.000000	0.010995  
3437.000000	0.011189  
3436.000000	0.011314  
3435.000000	0.011351  
3434.000000	0.011337  
3433.000000	0.011323  
3432.000000	0.011332  
3431.000000	0.011358  
3430.000000	0.011396  
3429.000000	0.011454  
3428.000000	0.011533  
3427.000000	0.011610  
3426.000000	0.011661  
3425.000000	0.011682  
3424.000000	0.011687  
3423.000000	0.011684  
3422.000000	0.011678  
3421.000000	0.011684  
3420.000000	0.011717  
3419.000000	0.011760  
3418.000000	0.011763  
3417.000000	0.011698  
3416.000000	0.011603  
3415.000000	0.011567  
3414.000000	0.011663  
3413.000000	0.011891  
3412.000000	0.012180  
3411.000000	0.012416  
3410.000000	0.012500  
3409.000000	0.012414  
3408.000000	0.012253  
3407.000000	0.012170  
3406.000000	0.012247  
3405.000000	0.012436  
3404.000000	0.012613  
3403.000000	0.012693  
3402.000000	0.012675  
3401.000000	0.012613  
3400.000000	0.012569  
3399.000000	0.012583  
3398.000000	0.012645  
3397.000000	0.012695  
3396.000000	0.012681  
3395.000000	0.012614  
3394.000000	0.012565  
3393.000000	0.012593  
3392.000000	0.012694  
3391.000000	0.012814  
3390.000000	0.012908  
3389.000000	0.012972  
3388.000000	0.013039  
3387.000000	0.013148  
3386.000000	0.013304  
3385.000000	0.013463  
3384.000000	0.013570  
3383.000000	0.013619  
3382.000000	0.013661  
3381.000000	0.013736  
3380.000000	0.013820  
3379.000000	0.013854  
3378.000000	0.013813  
3377.000000	0.013741  
3376.000000	0.013698  
3375.000000	0.013701  
3374.000000	0.013720  
3373.000000	0.013730  
3372.000000	0.013746  
3371.000000	0.013803  
3370.000000	0.013902  
3369.000000	0.013985  
3368.000000	0.013981  
3367.000000	0.013883  
3366.000000	0.013752  
3365.000000	0.013663  
3364.000000	0.013645  
3363.000000	0.013686  
3362.000000	0.013771  
3361.000000	0.013899  
3360.000000	0.014064  
3359.000000	0.014233  
3358.000000	0.014358  
3357.000000	0.014395  
3356.000000	0.014337  
3355.000000	0.014218  
3354.000000	0.014102  
3353.000000	0.014039  
3352.000000	0.014050  
3351.000000	0.014119  
3350.000000	0.014214  
3349.000000	0.014289  
3348.000000	0.014304  
3347.000000	0.014248  
3346.000000	0.014152  
3345.000000	0.014089  
3344.000000	0.014124  
3343.000000	0.014263  
3342.000000	0.014430  
3341.000000	0.014519  
3340.000000	0.014475  
3339.000000	0.014339  
3338.000000	0.014207  
3337.000000	0.014152  
3336.000000	0.014188  
3335.000000	0.014279  
3334.000000	0.014383  
3333.000000	0.014461  
3332.000000	0.014487  
3331.000000	0.014446  
3330.000000	0.014336  
3329.000000	0.014161  
3328.000000	0.013944  
3327.000000	0.013742  
3326.000000	0.013645  
3325.000000	0.013720  
3324.000000	0.013958  
3323.000000	0.014264  
3322.000000	0.014514  
3321.000000	0.014626  
3320.000000	0.014592  
3319.000000	0.014462  
3318.000000	0.014301  
3317.000000	0.014160  
3316.000000	0.014067  
3315.000000	0.014030  
3314.000000	0.014025  
3313.000000	0.014014  
3312.000000	0.013985  
3311.000000	0.013972  
3310.000000	0.014024  
3309.000000	0.014141  
3308.000000	0.014255  
3307.000000	0.014289  
3306.000000	0.014209  
3305.000000	0.014039  
3304.000000	0.013849  
3303.000000	0.013725  
3302.000000	0.013715  
3301.000000	0.013785  
3300.000000	0.013828  
3299.000000	0.013765  
3298.000000	0.013615  
3297.000000	0.013467  
3296.000000	0.013380  
3295.000000	0.013336  
3294.000000	0.013291  
3293.000000	0.013236  
3292.000000	0.013208  
3291.000000	0.013225  
3290.000000	0.013250  
3289.000000	0.013207  
3288.000000	0.013066  
3287.000000	0.012893  
3286.000000	0.012791  
3285.000000	0.012785  
3284.000000	0.012786  
3283.000000	0.012701  
3282.000000	0.012543  
3281.000000	0.012411  
3280.000000	0.012348  
3279.000000	0.012292  
3278.000000	0.012172  
3277.000000	0.012002  
3276.000000	0.011858  
3275.000000	0.011784  
3274.000000	0.011767  
3273.000000	0.011777  
3272.000000	0.011792  
3271.000000	0.011781  
3270.000000	0.011712  
3269.000000	0.011599  
3268.000000	0.011491  
3267.000000	0.011417  
3266.000000	0.011351  
3265.000000	0.011258  
3264.000000	0.011144  
3263.000000	0.011039  
3262.000000	0.010950  
3261.000000	0.010865  
3260.000000	0.010793  
3259.000000	0.010775  
3258.000000	0.010831  
3257.000000	0.010917  
3256.000000	0.010959  
3255.000000	0.010920  
3254.000000	0.010830  
3253.000000	0.010742  
3252.000000	0.010682  
3251.000000	0.010642  
3250.000000	0.010613  
3249.000000	0.010592  
3248.000000	0.010566  
3247.000000	0.010514  
3246.000000	0.010437  
3245.000000	0.010370  
3244.000000	0.010329  
3243.000000	0.010266  
3242.000000	0.010104  
3241.000000	0.009833  
3240.000000	0.009538  
3239.000000	0.009326  
3238.000000	0.009239  
3237.000000	0.009244  
3236.000000	0.009288  
3235.000000	0.009329  
3234.000000	0.009339  
3233.000000	0.009317  
3232.000000	0.009301  
3231.000000	0.009324  
3230.000000	0.009362  
3229.000000	0.009350  
3228.000000	0.009265  
3227.000000	0.009154  
3226.000000	0.009069  
3225.000000	0.009017  
3224.000000	0.008983  
3223.000000	0.008962  
3222.000000	0.008942  
3221.000000	0.008895  
3220.000000	0.008809  
3219.000000	0.008730  
3218.000000	0.008705  
3217.000000	0.008699  
3216.000000	0.008612  
3215.000000	0.008397  
3214.000000	0.008139  
3213.000000	0.007971  
3212.000000	0.007947  
3211.000000	0.007999  
3210.000000	0.008017  
3209.000000	0.007935  
3208.000000	0.007767  
3207.000000	0.007577  
3206.000000	0.007432  
3205.000000	0.007368  
3204.000000	0.007389  
3203.000000	0.007482  
3202.000000	0.007619  
3201.000000	0.007746  
3200.000000	0.007792  
3199.000000	0.007715  
3198.000000	0.007537  
3197.000000	0.007328  
3196.000000	0.007160  
3195.000000	0.007069  
3194.000000	0.007061  
3193.000000	0.007112  
3192.000000	0.007168  
3191.000000	0.007167  
3190.000000	0.007071  
3189.000000	0.006905  
3188.000000	0.006739  
3187.000000	0.006640  
3186.000000	0.006626  
3185.000000	0.006675  
3184.000000	0.006762  
3183.000000	0.006864  
3182.000000	0.006946  
3181.000000	0.006945  
3180.000000	0.006825  
3179.000000	0.006620  
3178.000000	0.006411  
3177.000000	0.006254  
3176.000000	0.006143  
3175.000000	0.006055  
3174.000000	0.005991  
3173.000000	0.005970  
3172.000000	0.005990  
3171.000000	0.006024  
3170.000000	0.006041  
3169.000000	0.006035  
3168.000000	0.006022  
3167.000000	0.006026  
3166.000000	0.006064  
3165.000000	0.006129  
3164.000000	0.006182  
3163.000000	0.006172  
3162.000000	0.006068  
3161.000000	0.005902  
3160.000000	0.005756  
3159.000000	0.005699  
3158.000000	0.005721  
3157.000000	0.005745  
3156.000000	0.005722  
3155.000000	0.005685  
3154.000000	0.005696  
3153.000000	0.005744  
3152.000000	0.005742  
3151.000000	0.005628  
3150.000000	0.005439  
3149.000000	0.005276  
3148.000000	0.005214  
3147.000000	0.005246  
3146.000000	0.005295  
3145.000000	0.005277  
3144.000000	0.005155  
3143.000000	0.004970  
3142.000000	0.004802  
3141.000000	0.004707  
3140.000000	0.004675  
3139.000000	0.004671  
3138.000000	0.004682  
3137.000000	0.004731  
3136.000000	0.004846  
3135.000000	0.005011  
3134.000000	0.005162  
3133.000000	0.005226  
3132.000000	0.005190  
3131.000000	0.005118  
3130.000000	0.005080  
3129.000000	0.005076  
3128.000000	0.005056  
3127.000000	0.005001  
3126.000000	0.004945  
3125.000000	0.004904  
3124.000000	0.004851  
3123.000000	0.004763  
3122.000000	0.004687  
3121.000000	0.004691  
3120.000000	0.004783  
3119.000000	0.004896  
3118.000000	0.004951  
3117.000000	0.004912  
3116.000000	0.004803  
3115.000000	0.004707  
3114.000000	0.004704  
3113.000000	0.004793  
3112.000000	0.004881  
3111.000000	0.004874  
3110.000000	0.004771  
3109.000000	0.004643  
3108.000000	0.004545  
3107.000000	0.004485  
3106.000000	0.004459  
3105.000000	0.004468  
3104.000000	0.004487  
3103.000000	0.004484  
3102.000000	0.004468  
3101.000000	0.004486  
3100.000000	0.004554  
3099.000000	0.004612  
3098.000000	0.004583  
3097.000000	0.004461  
3096.000000	0.004318  
3095.000000	0.004235  
3094.000000	0.004244  
3093.000000	0.004307  
3092.000000	0.004357  
3091.000000	0.004355  
3090.000000	0.004322  
3089.000000	0.004311  
3088.000000	0.004335  
3087.000000	0.004361  
3086.000000	0.004365  
3085.000000	0.004365  
3084.000000	0.004398  
3083.000000	0.004467  
3082.000000	0.004538  
3081.000000	0.004578  
3080.000000	0.004581  
3079.000000	0.004565  
3078.000000	0.004560  
3077.000000	0.004584  
3076.000000	0.004623  
3075.000000	0.004635  
3074.000000	0.004596  
3073.000000	0.004530  
3072.000000	0.004475  
3071.000000	0.004437  
3070.000000	0.004399  
3069.000000	0.004372  
3068.000000	0.004401  
3067.000000	0.004500  
3066.000000	0.004612  
3065.000000	0.004662  
3064.000000	0.004639  
3063.000000	0.004609  
3062.000000	0.004632  
3061.000000	0.004705  
3060.000000	0.004779  
3059.000000	0.004815  
3058.000000	0.004802  
3057.000000	0.004740  
3056.000000	0.004639  
3055.000000	0.004542  
3054.000000	0.004511  
3053.000000	0.004581  
3052.000000	0.004722  
3051.000000	0.004871  
3050.000000	0.004983  
3049.000000	0.005051  
3048.000000	0.005077  
3047.000000	0.005064  
3046.000000	0.005024  
3045.000000	0.004980  
3044.000000	0.004942  
3043.000000	0.004906  
3042.000000	0.004879  
3041.000000	0.004888  
3040.000000	0.004957  
3039.000000	0.005075  
3038.000000	0.005203  
3037.000000	0.005302  
3036.000000	0.005356  
3035.000000	0.005387  
3034.000000	0.005444  
3033.000000	0.005578  
3032.000000	0.005786  
3031.000000	0.005993  
3030.000000	0.006115  
3029.000000	0.006141  
3028.000000	0.006145  
3027.000000	0.006229  
3026.000000	0.006443  
3025.000000	0.006753  
3024.000000	0.007067  
3023.000000	0.007314  
3022.000000	0.007509  
3021.000000	0.007742  
3020.000000	0.008087  
3019.000000	0.008536  
3018.000000	0.009027  
3017.000000	0.009520  
3016.000000	0.010010  
3015.000000	0.010477  
3014.000000	0.010875  
3013.000000	0.011175  
3012.000000	0.011394  
3011.000000	0.011556  
3010.000000	0.011659  
3009.000000	0.011694  
3008.000000	0.011683  
3007.000000	0.011639  
3006.000000	0.011532  
3005.000000	0.011326  
3004.000000	0.011063  
3003.000000	0.010858  
3002.000000	0.010791  
3001.000000	0.010820  
3000.000000	0.010840  
2999.000000	0.010795  
2998.000000	0.010726  
2997.000000	0.010710  
2996.000000	0.010787  
2995.000000	0.010936  
2994.000000	0.011119  
2993.000000	0.011317  
2992.000000	0.011549  
2991.000000	0.011849  
2990.000000	0.012244  
2989.000000	0.012751  
2988.000000	0.013380  
2987.000000	0.014126  
2986.000000	0.014969  
2985.000000	0.015890  
2984.000000	0.016885  
2983.000000	0.017957  
2982.000000	0.019106  
2981.000000	0.020348  
2980.000000	0.021753  
2979.000000	0.023425  
2978.000000	0.025415  
2977.000000	0.027690  
2976.000000	0.030201  
2975.000000	0.032973  
2974.000000	0.036101  
2973.000000	0.039667  
2972.000000	0.043678  
2971.000000	0.048094  
2970.000000	0.052866  
2969.000000	0.057954  
2968.000000	0.063315  
2967.000000	0.068897  
2966.000000	0.074613  
2965.000000	0.080335  
2964.000000	0.085912  
2963.000000	0.091210  
2962.000000	0.096119  
2961.000000	0.100544  
2960.000000	0.104396  
2959.000000	0.107580  
2958.000000	0.109995  
2957.000000	0.111550  
2956.000000	0.112181  
2955.000000	0.111868  
2954.000000	0.110651  
2953.000000	0.108670  
2952.000000	0.106191  
2951.000000	0.103556  
2950.000000	0.101075  
2949.000000	0.098947  
2948.000000	0.097259  
2947.000000	0.096044  
2946.000000	0.095354  
2945.000000	0.095303  
2944.000000	0.096052  
2943.000000	0.097725  
2942.000000	0.100339  
2941.000000	0.103800  
2940.000000	0.107987  
2939.000000	0.112799  
2938.000000	0.118146  
2937.000000	0.123914  
2936.000000	0.129979  
2935.000000	0.136223  
2934.000000	0.142523  
2933.000000	0.148765  
2932.000000	0.154882  
2931.000000	0.160872  
2930.000000	0.166722  
2929.000000	0.172336  
2928.000000	0.177541  
2927.000000	0.182151  
2926.000000	0.185984  
2925.000000	0.188847  
2924.000000	0.190538  
2923.000000	0.190869  
2922.000000	0.189754  
2921.000000	0.187296  
2920.000000	0.183783  
2919.000000	0.179558  
2918.000000	0.174877  
2917.000000	0.169902  
2916.000000	0.164787  
2915.000000	0.159687  
2914.000000	0.154713  
2913.000000	0.149919  
2912.000000	0.145344  
2911.000000	0.141013  
2910.000000	0.136913  
2909.000000	0.132987  
2908.000000	0.129190  
2907.000000	0.125526  
2906.000000	0.122006  
2905.000000	0.118603  
2904.000000	0.115278  
2903.000000	0.112042  
2902.000000	0.108954  
2901.000000	0.106029  
2900.000000	0.103172  
2899.000000	0.100241  
2898.000000	0.097178  
2897.000000	0.094074  
2896.000000	0.091088  
2895.000000	0.088315  
2894.000000	0.085738  
2893.000000	0.083284  
2892.000000	0.080895  
2891.000000	0.078556  
2890.000000	0.076283  
2889.000000	0.074133  
2888.000000	0.072201  
2887.000000	0.070593  
2886.000000	0.069387  
2885.000000	0.068617  
2884.000000	0.068288  
2883.000000	0.068418  
2882.000000	0.069063  
2881.000000	0.070305  
2880.000000	0.072205  
2879.000000	0.074737  
2878.000000	0.077779  
2877.000000	0.081129  
2876.000000	0.084535  
2875.000000	0.087703  
2874.000000	0.090326  
2873.000000	0.092180  
2872.000000	0.093228  
2871.000000	0.093646  
2870.000000	0.093720  
2869.000000	0.093705  
2868.000000	0.093758  
2867.000000	0.093978  
2866.000000	0.094496  
2865.000000	0.095494  
2864.000000	0.097125  
2863.000000	0.099408  
2862.000000	0.102216  
2861.000000	0.105363  
2860.000000	0.108665  
2859.000000	0.111923  
2858.000000	0.114911  
2857.000000	0.117412  
2856.000000	0.119228  
2855.000000	0.120123  
2854.000000	0.119802  
2853.000000	0.118041  
2852.000000	0.114850  
2851.000000	0.110471  
2850.000000	0.105224  
2849.000000	0.099393  
2848.000000	0.093244  
2847.000000	0.087050  
2846.000000	0.081053  
2845.000000	0.075388  
2844.000000	0.070072  
2843.000000	0.065042  
2842.000000	0.060232  
2841.000000	0.055626  
2840.000000	0.051265  
2839.000000	0.047214  
2838.000000	0.043511  
2837.000000	0.040161  
2836.000000	0.037166  
2835.000000	0.034537  
2834.000000	0.032264  
2833.000000	0.030288  
2832.000000	0.028515  
2831.000000	0.026866  
2830.000000	0.025317  
2829.000000	0.023885  
2828.000000	0.022596  
2827.000000	0.021456  
2826.000000	0.020445  
2825.000000	0.019525  
2824.000000	0.018661  
2823.000000	0.017837  
2822.000000	0.017060  
2821.000000	0.016351  
2820.000000	0.015734  
2819.000000	0.015211  
2818.000000	0.014762  
2817.000000	0.014348  
2816.000000	0.013938  
2815.000000	0.013526  
2814.000000	0.013121  
2813.000000	0.012723  
2812.000000	0.012328  
2811.000000	0.011931  
2810.000000	0.011538  
2809.000000	0.011168  
2808.000000	0.010856  
2807.000000	0.010631  
2806.000000	0.010487  
2805.000000	0.010370  
2804.000000	0.010219  
2803.000000	0.010018  
2802.000000	0.009788  
2801.000000	0.009538  
2800.000000	0.009263  
2799.000000	0.008997  
2798.000000	0.008811  
2797.000000	0.008747  
2796.000000	0.008757  
2795.000000	0.008745  
2794.000000	0.008656  
2793.000000	0.008502  
2792.000000	0.008310  
2791.000000	0.008091  
2790.000000	0.007856  
2789.000000	0.007632  
2788.000000	0.007445  
2787.000000	0.007296  
2786.000000	0.007172  
2785.000000	0.007068  
2784.000000	0.006990  
2783.000000	0.006928  
2782.000000	0.006858  
2781.000000	0.006754  
2780.000000	0.006612  
2779.000000	0.006443  
2778.000000	0.006256  
2777.000000	0.006064  
2776.000000	0.005895  
2775.000000	0.005791  
2774.000000	0.005761  
2773.000000	0.005759  
2772.000000	0.005725  
2771.000000	0.005647  
2770.000000	0.005563  
2769.000000	0.005505  
2768.000000	0.005471  
2767.000000	0.005443  
2766.000000	0.005424  
2765.000000	0.005427  
2764.000000	0.005444  
2763.000000	0.005442  
2762.000000	0.005394  
2761.000000	0.005298  
2760.000000	0.005184  
2759.000000	0.005085  
2758.000000	0.005025  
2757.000000	0.004991  
2756.000000	0.004953  
2755.000000	0.004890  
2754.000000	0.004808  
2753.000000	0.004726  
2752.000000	0.004660  
2751.000000	0.004628  
2750.000000	0.004657  
2749.000000	0.004751  
2748.000000	0.004866  
2747.000000	0.004937  
2746.000000	0.004932  
2745.000000	0.004875  
2744.000000	0.004814  
2743.000000	0.004775  
2742.000000	0.004760  
2741.000000	0.004772  
2740.000000	0.004823  
2739.000000	0.004919  
2738.000000	0.005031  
2737.000000	0.005120  
2736.000000	0.005164  
2735.000000	0.005180  
2734.000000	0.005192  
2733.000000	0.005208  
2732.000000	0.005221  
2731.000000	0.005226  
2730.000000	0.005222  
2729.000000	0.005204  
2728.000000	0.005162  
2727.000000	0.005097  
2726.000000	0.005018  
2725.000000	0.004932  
2724.000000	0.004858  
2723.000000	0.004826  
2722.000000	0.004853  
2721.000000	0.004901  
2720.000000	0.004918  
2719.000000	0.004892  
2718.000000	0.004864  
2717.000000	0.004857  
2716.000000	0.004847  
2715.000000	0.004800  
2714.000000	0.004728  
2713.000000	0.004651  
2712.000000	0.004560  
2711.000000	0.004439  
2710.000000	0.004308  
2709.000000	0.004211  
2708.000000	0.004157  
2707.000000	0.004114  
2706.000000	0.004057  
2705.000000	0.003992  
2704.000000	0.003930  
2703.000000	0.003873  
2702.000000	0.003824  
2701.000000	0.003790  
2700.000000	0.003769  
2699.000000	0.003743  
2698.000000	0.003711  
2697.000000	0.003697  
2696.000000	0.003727  
2695.000000	0.003801  
2694.000000	0.003889  
2693.000000	0.003954  
2692.000000	0.003965  
2691.000000	0.003910  
2690.000000	0.003812  
2689.000000	0.003724  
2688.000000	0.003687  
2687.000000	0.003697  
2686.000000	0.003714  
2685.000000	0.003706  
2684.000000	0.003685  
2683.000000	0.003691  
2682.000000	0.003759  
2681.000000	0.003880  
2680.000000	0.004001  
2679.000000	0.004071  
2678.000000	0.004081  
2677.000000	0.004062  
2676.000000	0.004048  
2675.000000	0.004052  
2674.000000	0.004067  
2673.000000	0.004084  
2672.000000	0.004095  
2671.000000	0.004089  
2670.000000	0.004055  
2669.000000	0.003994  
2668.000000	0.003935  
2667.000000	0.003913  
2666.000000	0.003933  
2665.000000	0.003964  
2664.000000	0.003962  
2663.000000	0.003913  
2662.000000	0.003832  
2661.000000	0.003740  
2660.000000	0.003649  
2659.000000	0.003581  
2658.000000	0.003568  
2657.000000	0.003615  
2656.000000	0.003684  
2655.000000	0.003721  
2654.000000	0.003685  
2653.000000	0.003574  
2652.000000	0.003424  
2651.000000	0.003294  
2650.000000	0.003233  
2649.000000	0.003228  
2648.000000	0.003214  
2647.000000	0.003143  
2646.000000	0.003034  
2645.000000	0.002945  
2644.000000	0.002907  
2643.000000	0.002915  
2642.000000	0.002956  
2641.000000	0.003010  
2640.000000	0.003045  
2639.000000	0.003031  
2638.000000	0.002973  
2637.000000	0.002906  
2636.000000	0.002851  
2635.000000	0.002809  
2634.000000	0.002789  
2633.000000	0.002810  
2632.000000	0.002863  
2631.000000	0.002899  
2630.000000	0.002882  
2629.000000	0.002823  
2628.000000	0.002768  
2627.000000	0.002748  
2626.000000	0.002755  
2625.000000	0.002761  
2624.000000	0.002738  
2623.000000	0.002692  
2622.000000	0.002663  
2621.000000	0.002686  
2620.000000	0.002752  
2619.000000	0.002809  
2618.000000	0.002817  
2617.000000	0.002781  
2616.000000	0.002738  
2615.000000	0.002716  
2614.000000	0.002708  
2613.000000	0.002691  
2612.000000	0.002645  
2611.000000	0.002570  
2610.000000	0.002488  
2609.000000	0.002426  
2608.000000	0.002405  
2607.000000	0.002432  
2606.000000	0.002509  
2605.000000	0.002615  
2604.000000	0.002706  
2603.000000	0.002741  
2602.000000	0.002717  
2601.000000	0.002657  
2600.000000	0.002578  
2599.000000	0.002471  
2598.000000	0.002349  
2597.000000	0.002257  
2596.000000	0.002240  
2595.000000	0.002280  
2594.000000	0.002312  
2593.000000	0.002292  
2592.000000	0.002243  
2591.000000	0.002232  
2590.000000	0.002298  
2589.000000	0.002402  
2588.000000	0.002452  
2587.000000	0.002387  
2586.000000	0.002240  
2585.000000	0.002130  
2584.000000	0.002149  
2583.000000	0.002265  
2582.000000	0.002346  
2581.000000	0.002286  
2580.000000	0.002115  
2579.000000	0.001939  
2578.000000	0.001819  
2577.000000	0.001724  
2576.000000	0.001622  
2575.000000	0.001557  
2574.000000	0.001607  
2573.000000	0.001772  
2572.000000	0.001956  
2571.000000	0.002052  
2570.000000	0.002028  
2569.000000	0.001938  
2568.000000	0.001865  
2567.000000	0.001864  
2566.000000	0.001927  
2565.000000	0.001982  
2564.000000	0.001954  
2563.000000	0.001836  
2562.000000	0.001679  
2561.000000	0.001540  
2560.000000	0.001455  
2559.000000	0.001450  
2558.000000	0.001527  
2557.000000	0.001632  
2556.000000	0.001692  
2555.000000	0.001683  
2554.000000	0.001642  
2553.000000	0.001598  
2552.000000	0.001538  
2551.000000	0.001462  
2550.000000	0.001397  
2549.000000	0.001345  
2548.000000	0.001265  
2547.000000	0.001148  
2546.000000	0.001071  
2545.000000	0.001113  
2544.000000	0.001257  
2543.000000	0.001424  
2542.000000	0.001573  
2541.000000	0.001715  
2540.000000	0.001838  
2539.000000	0.001899  
2538.000000	0.001881  
2537.000000	0.001814  
2536.000000	0.001729  
2535.000000	0.001624  
2534.000000	0.001488  
2533.000000	0.001315  
2532.000000	0.001117  
2531.000000	0.000948  
2530.000000	0.000905  
2529.000000	0.001048  
2528.000000	0.001300  
2527.000000	0.001491  
2526.000000	0.001513  
2525.000000	0.001404  
2524.000000	0.001263  
2523.000000	0.001151  
2522.000000	0.001096  
2521.000000	0.001117  
2520.000000	0.001192  
2519.000000	0.001238  
2518.000000	0.001186  
2517.000000	0.001085  
2516.000000	0.001061  
2515.000000	0.001171  
2514.000000	0.001355  
2513.000000	0.001515  
2512.000000	0.001604  
2511.000000	0.001620  
2510.000000	0.001575  
2509.000000	0.001505  
2508.000000	0.001482  
2507.000000	0.001530  
2506.000000	0.001568  
2505.000000	0.001490  
2504.000000	0.001315  
2503.000000	0.001175  
2502.000000	0.001158  
2501.000000	0.001213  
2500.000000	0.001245  
2499.000000	0.001239  
2498.000000	0.001238  
2497.000000	0.001245  
2496.000000	0.001226  
2495.000000	0.001190  
2494.000000	0.001183  
2493.000000	0.001202  
2492.000000	0.001181  
2491.000000	0.001093  
2490.000000	0.001012  
2489.000000	0.001025  
2488.000000	0.001138  
2487.000000	0.001274  
2486.000000	0.001350  
2485.000000	0.001333  
2484.000000	0.001252  
2483.000000	0.001180  
2482.000000	0.001175  
2481.000000	0.001228  
2480.000000	0.001274  
2479.000000	0.001274  
2478.000000	0.001235  
2477.000000	0.001176  
2476.000000	0.001096  
2475.000000	0.001007  
2474.000000	0.000938  
2473.000000	0.000887  
2472.000000	0.000814  
2471.000000	0.000710  
2470.000000	0.000624  
2469.000000	0.000598  
2468.000000	0.000608  
2467.000000	0.000610  
2466.000000	0.000600  
2465.000000	0.000599  
2464.000000	0.000610  
2463.000000	0.000643  
2462.000000	0.000720  
2461.000000	0.000817  
2460.000000	0.000849  
2459.000000	0.000757  
2458.000000	0.000587  
2457.000000	0.000425  
2456.000000	0.000304  
2455.000000	0.000223  
2454.000000	0.000218  
2453.000000	0.000335  
2452.000000	0.000534  
2451.000000	0.000716  
2450.000000	0.000835  
2449.000000	0.000918  
2448.000000	0.000977  
2447.000000	0.000965  
2446.000000	0.000853  
2445.000000	0.000682  
2444.000000	0.000529  
2443.000000	0.000444  
2442.000000	0.000434  
2441.000000	0.000464  
2440.000000	0.000469  
2439.000000	0.000412  
2438.000000	0.000340  
2437.000000	0.000350  
2436.000000	0.000479  
2435.000000	0.000654  
2434.000000	0.000767  
2433.000000	0.000771  
2432.000000	0.000701  
2431.000000	0.000639  
2430.000000	0.000660  
2429.000000	0.000764  
2428.000000	0.000852  
2427.000000	0.000815  
2426.000000	0.000665  
2425.000000	0.000552  
2424.000000	0.000597  
2423.000000	0.000762  
2422.000000	0.000888  
2421.000000	0.000869  
2420.000000	0.000731  
2419.000000	0.000587  
2418.000000	0.000528  
2417.000000	0.000578  
2416.000000	0.000702  
2415.000000	0.000841  
2414.000000	0.000957  
2413.000000	0.001048  
2412.000000	0.001119  
2411.000000	0.001145  
2410.000000	0.001079  
2409.000000	0.000925  
2408.000000	0.000766  
2407.000000	0.000704  
2406.000000	0.000752  
2405.000000	0.000824  
2404.000000	0.000836  
2403.000000	0.000796  
2402.000000	0.000767  
2401.000000	0.000772  
2400.000000	0.000775  
2399.000000	0.000752  
2398.000000	0.000727  
2397.000000	0.000730  
2396.000000	0.000751  
2395.000000	0.000769  
2394.000000	0.000787  
2393.000000	0.000831  
2392.000000	0.000909  
2391.000000	0.000994  
2390.000000	0.001033  
2389.000000	0.000968  
2388.000000	0.000780  
2387.000000	0.000523  
2386.000000	0.000295  
2385.000000	0.000169  
2384.000000	0.000161  
2383.000000	0.000262  
2382.000000	0.000460  
2381.000000	0.000693  
2380.000000	0.000836  
2379.000000	0.000827  
2378.000000	0.000752  
2377.000000	0.000744  
2376.000000	0.000782  
2375.000000	0.000714  
2374.000000	0.000510  
2373.000000	0.000371  
2372.000000	0.000471  
2371.000000	0.000702  
2370.000000	0.000795  
2369.000000	0.000633  
2368.000000	0.000354  
2367.000000	0.000191  
2366.000000	0.000303  
2365.000000	0.000630  
2364.000000	0.000857  
2363.000000	0.000682  
2362.000000	0.000220  
2361.000000	-0.000018 
2360.000000	0.000250  
2359.000000	0.000700  
2358.000000	0.000833  
2357.000000	0.000579  
2356.000000	0.000300  
2355.000000	0.000321  
2354.000000	0.000577  
2353.000000	0.000718  
2352.000000	0.000503  
2351.000000	0.000104  
2350.000000	-0.000099 
2349.000000	0.000083  
2348.000000	0.000499  
2347.000000	0.000734  
2346.000000	0.000493  
2345.000000	-0.000063 
2344.000000	-0.000548 
2343.000000	-0.000767 
2342.000000	-0.000701 
2341.000000	-0.000338 
2340.000000	0.000195  
2339.000000	0.000647  
2338.000000	0.000840  
2337.000000	0.000766  
2336.000000	0.000521  
2335.000000	0.000247  
2334.000000	0.000083  
2333.000000	0.000029  
2332.000000	-0.000075 
2331.000000	-0.000319 
2330.000000	-0.000536 
2329.000000	-0.000510 
2328.000000	-0.000246 
2327.000000	0.000042  
2326.000000	0.000181  
2325.000000	0.000128  
2324.000000	-0.000060 
2323.000000	-0.000283 
2322.000000	-0.000455 
2321.000000	-0.000563 
2320.000000	-0.000668 
2319.000000	-0.000773 
2318.000000	-0.000790 
2317.000000	-0.000653 
2316.000000	-0.000435 
2315.000000	-0.000278 
2314.000000	-0.000242 
2313.000000	-0.000299 
2312.000000	-0.000400 
2311.000000	-0.000519 
2310.000000	-0.000617 
2309.000000	-0.000670 
2308.000000	-0.000693 
2307.000000	-0.000713 
2306.000000	-0.000722 
2305.000000	-0.000709 
2304.000000	-0.000693 
2303.000000	-0.000688 
2302.000000	-0.000653 
2301.000000	-0.000547 
2300.000000	-0.000420 
2299.000000	-0.000386 
2298.000000	-0.000489 
2297.000000	-0.000649 
2296.000000	-0.000732 
2295.000000	-0.000656 
2294.000000	-0.000438 
2293.000000	-0.000191 
2292.000000	-0.000057 
2291.000000	-0.000086 
2290.000000	-0.000183 
2289.000000	-0.000223 
2288.000000	-0.000185 
2287.000000	-0.000139 
2286.000000	-0.000130 
2285.000000	-0.000145 
2284.000000	-0.000179 
2283.000000	-0.000231 
2282.000000	-0.000250 
2281.000000	-0.000182 
2280.000000	-0.000065 
2279.000000	0.000013  
2278.000000	0.000056  
2277.000000	0.000143  
2276.000000	0.000262  
2275.000000	0.000292  
2274.000000	0.000185  
2273.000000	0.000052  
2272.000000	-0.000002 
2271.000000	-0.000005 
2270.000000	0.000000  
2269.000000	0.000068  
2268.000000	0.000238  
2267.000000	0.000408  
2266.000000	0.000428  
2265.000000	0.000269  
2264.000000	0.000005  
2263.000000	-0.000321 
2262.000000	-0.000680 
2261.000000	-0.000948 
2260.000000	-0.000969 
2259.000000	-0.000762 
2258.000000	-0.000534 
2257.000000	-0.000460 
2256.000000	-0.000490 
2255.000000	-0.000438 
2254.000000	-0.000206 
2253.000000	0.000125  
2252.000000	0.000395  
2251.000000	0.000496  
2250.000000	0.000428  
2249.000000	0.000253  
2248.000000	0.000067  
2247.000000	-0.000025 
2246.000000	0.000036  
2245.000000	0.000212  
2244.000000	0.000369  
2243.000000	0.000411  
2242.000000	0.000365  
2241.000000	0.000320  
2240.000000	0.000306  
2239.000000	0.000293  
2238.000000	0.000267  
2237.000000	0.000227  
2236.000000	0.000115  
2235.000000	-0.000142 
2234.000000	-0.000477 
2233.000000	-0.000669 
2232.000000	-0.000564 
2231.000000	-0.000266 
2230.000000	-0.000046 
2229.000000	-0.000091 
2228.000000	-0.000367 
2227.000000	-0.000683 
2226.000000	-0.000830 
2225.000000	-0.000702 
2224.000000	-0.000338 
2223.000000	0.000115  
2222.000000	0.000492  
2221.000000	0.000652  
2220.000000	0.000513  
2219.000000	0.000105  
2218.000000	-0.000393 
2217.000000	-0.000717 
2216.000000	-0.000670 
2215.000000	-0.000238 
2214.000000	0.000407  
2213.000000	0.000975  
2212.000000	0.001188  
2211.000000	0.000992  
2210.000000	0.000647  
2209.000000	0.000533  
2208.000000	0.000778  
2207.000000	0.001131  
2206.000000	0.001251  
2205.000000	0.001063  
2204.000000	0.000807  
2203.000000	0.000754  
2202.000000	0.000924  
2201.000000	0.001086  
2200.000000	0.001001  
2199.000000	0.000663  
2198.000000	0.000271  
2197.000000	-0.000010 
2196.000000	-0.000218 
2195.000000	-0.000444 
2194.000000	-0.000601 
2193.000000	-0.000490 
2192.000000	-0.000113 
2191.000000	0.000220  
2190.000000	0.000185  
2189.000000	-0.000246 
2188.000000	-0.000834 
2187.000000	-0.001344 
2186.000000	-0.001690 
2185.000000	-0.001858 
2184.000000	-0.001824 
2183.000000	-0.001592 
2182.000000	-0.001245 
2181.000000	-0.000909 
2180.000000	-0.000636 
2179.000000	-0.000343 
2178.000000	0.000086  
2177.000000	0.000621  
2176.000000	0.001031  
2175.000000	0.001071  
2174.000000	0.000725  
2173.000000	0.000236  
2172.000000	-0.000107 
2171.000000	-0.000187 
2170.000000	-0.000061 
2169.000000	0.000159  
2168.000000	0.000392  
2167.000000	0.000562  
2166.000000	0.000582  
2165.000000	0.000445  
2164.000000	0.000326  
2163.000000	0.000480  
2162.000000	0.000937  
2161.000000	0.001347  
2160.000000	0.001296  
2159.000000	0.000796  
2158.000000	0.000250  
2157.000000	-0.000087 
2156.000000	-0.000341 
2155.000000	-0.000657 
2154.000000	-0.000919 
2153.000000	-0.000920 
2152.000000	-0.000668 
2151.000000	-0.000385 
2150.000000	-0.000299 
2149.000000	-0.000493 
2148.000000	-0.000849 
2147.000000	-0.001090 
2146.000000	-0.000965 
2145.000000	-0.000507 
2144.000000	-0.000027 
2143.000000	0.000210  
2142.000000	0.000224  
2141.000000	0.000169  
2140.000000	0.000106  
2139.000000	0.000023  
2138.000000	-0.000042 
2137.000000	-0.000056 
2136.000000	-0.000070 
2135.000000	-0.000113 
2134.000000	-0.000079 
2133.000000	0.000114  
2132.000000	0.000328  
2131.000000	0.000328  
2130.000000	0.000088  
2129.000000	-0.000183 
2128.000000	-0.000300 
2127.000000	-0.000257 
2126.000000	-0.000125 
2125.000000	0.000064  
2124.000000	0.000269  
2123.000000	0.000399  
2122.000000	0.000402  
2121.000000	0.000330  
2120.000000	0.000267  
2119.000000	0.000228  
2118.000000	0.000181  
2117.000000	0.000120  
2116.000000	0.000088  
2115.000000	0.000132  
2114.000000	0.000241  
2113.000000	0.000329  
2112.000000	0.000294  
2111.000000	0.000140  
2110.000000	0.000002  
2109.000000	0.000005  
2108.000000	0.000111  
2107.000000	0.000168  
2106.000000	0.000102  
2105.000000	-0.000025 
2104.000000	-0.000127 
2103.000000	-0.000181 
2102.000000	-0.000190 
2101.000000	-0.000159 
2100.000000	-0.000128 
2099.000000	-0.000169 
2098.000000	-0.000285 
2097.000000	-0.000363 
2096.000000	-0.000257 
2095.000000	0.000095  
2094.000000	0.000612  
2093.000000	0.001094  
2092.000000	0.001324  
2091.000000	0.001228  
2090.000000	0.000930  
2089.000000	0.000616  
2088.000000	0.000359  
2087.000000	0.000136  
2086.000000	-0.000018 
2085.000000	-0.000018 
2084.000000	0.000124  
2083.000000	0.000265  
2082.000000	0.000275  
2081.000000	0.000153  
2080.000000	-0.000034 
2079.000000	-0.000231 
2078.000000	-0.000372 
2077.000000	-0.000380 
2076.000000	-0.000245 
2075.000000	-0.000071 
2074.000000	0.000002  
2073.000000	-0.000088 
2072.000000	-0.000293 
2071.000000	-0.000463 
2070.000000	-0.000452 
2069.000000	-0.000276 
2068.000000	-0.000146 
2067.000000	-0.000247 
2066.000000	-0.000495 
2065.000000	-0.000616 
2064.000000	-0.000475 
2063.000000	-0.000167 
2062.000000	0.000199  
2061.000000	0.000600  
2060.000000	0.000948  
2059.000000	0.001050  
2058.000000	0.000825  
2057.000000	0.000442  
2056.000000	0.000149  
2055.000000	0.000021  
2054.000000	-0.000015 
2053.000000	-0.000025 
2052.000000	0.000006  
2051.000000	0.000117  
2050.000000	0.000318  
2049.000000	0.000542  
2048.000000	0.000631  
2047.000000	0.000496  
2046.000000	0.000282  
2045.000000	0.000255  
2044.000000	0.000485  
2043.000000	0.000776  
2042.000000	0.000954  
2041.000000	0.001034  
2040.000000	0.001057  
2039.000000	0.000947  
2038.000000	0.000686  
2037.000000	0.000440  
2036.000000	0.000340  
2035.000000	0.000282  
2034.000000	0.000127  
2033.000000	-0.000038 
2032.000000	-0.000050 
2031.000000	0.000063  
2030.000000	0.000158  
2029.000000	0.000220  
2028.000000	0.000347  
2027.000000	0.000541  
2026.000000	0.000691  
2025.000000	0.000729  
2024.000000	0.000659  
2023.000000	0.000501  
2022.000000	0.000311  
2021.000000	0.000210  
2020.000000	0.000238  
2019.000000	0.000234  
2018.000000	0.000015  
2017.000000	-0.000348 
2016.000000	-0.000573 
2015.000000	-0.000488 
2014.000000	-0.000182 
2013.000000	0.000111  
2012.000000	0.000169  
2011.000000	-0.000074 
2010.000000	-0.000441 
2009.000000	-0.000623 
2008.000000	-0.000480 
2007.000000	-0.000171 
2006.000000	0.000103  
2005.000000	0.000326  
2004.000000	0.000519  
2003.000000	0.000545  
2002.000000	0.000264  
2001.000000	-0.000170 
2000.000000	-0.000376 
1999.000000	-0.000173 
1998.000000	0.000210  
1997.000000	0.000416  
1996.000000	0.000325  
1995.000000	0.000082  
1994.000000	-0.000113 
1993.000000	-0.000143 
1992.000000	-0.000007 
1991.000000	0.000179  
1990.000000	0.000250  
1989.000000	0.000124  
1988.000000	-0.000115 
1987.000000	-0.000306 
1986.000000	-0.000373 
1985.000000	-0.000384 
1984.000000	-0.000404 
1983.000000	-0.000381 
1982.000000	-0.000240 
1981.000000	-0.000062 
1980.000000	-0.000043 
1979.000000	-0.000233 
1978.000000	-0.000421 
1977.000000	-0.000393 
1976.000000	-0.000206 
1975.000000	-0.000074 
1974.000000	-0.000066 
1973.000000	-0.000071 
1972.000000	-0.000012 
1971.000000	0.000076  
1970.000000	0.000165  
1969.000000	0.000267  
1968.000000	0.000342  
1967.000000	0.000294  
1966.000000	0.000143  
1965.000000	0.000067  
1964.000000	0.000214  
1963.000000	0.000547  
1962.000000	0.000900  
1961.000000	0.001106  
1960.000000	0.001110  
1959.000000	0.000979  
1958.000000	0.000830  
1957.000000	0.000711  
1956.000000	0.000556  
1955.000000	0.000320  
1954.000000	0.000111  
1953.000000	0.000088  
1952.000000	0.000208  
1951.000000	0.000232  
1950.000000	0.000033  
1949.000000	-0.000185 
1948.000000	-0.000078 
1947.000000	0.000451  
1946.000000	0.001123  
1945.000000	0.001541  
1944.000000	0.001530  
1943.000000	0.001233  
1942.000000	0.000930  
1941.000000	0.000752  
1940.000000	0.000660  
1939.000000	0.000624  
1938.000000	0.000668  
1937.000000	0.000754  
1936.000000	0.000743  
1935.000000	0.000544  
1934.000000	0.000253  
1933.000000	0.000059  
1932.000000	0.000033  
1931.000000	0.000096  
1930.000000	0.000167  
1929.000000	0.000215  
1928.000000	0.000220  
1927.000000	0.000153  
1926.000000	0.000037  
1925.000000	-0.000062 
1924.000000	-0.000113 
1923.000000	-0.000141 
1922.000000	-0.000178 
1921.000000	-0.000227 
1920.000000	-0.000276 
1919.000000	-0.000278 
1918.000000	-0.000123 
1917.000000	0.000202  
1916.000000	0.000518  
1915.000000	0.000623  
1914.000000	0.000489  
1913.000000	0.000273  
1912.000000	0.000164  
1911.000000	0.000217  
1910.000000	0.000366  
1909.000000	0.000523  
1908.000000	0.000635  
1907.000000	0.000668  
1906.000000	0.000595  
1905.000000	0.000407  
1904.000000	0.000130  
1903.000000	-0.000149 
1902.000000	-0.000310 
1901.000000	-0.000283 
1900.000000	-0.000115 
1899.000000	0.000079  
1898.000000	0.000224  
1897.000000	0.000299  
1896.000000	0.000305  
1895.000000	0.000277  
1894.000000	0.000295  
1893.000000	0.000417  
1892.000000	0.000591  
1891.000000	0.000697  
1890.000000	0.000660  
1889.000000	0.000530  
1888.000000	0.000403  
1887.000000	0.000326  
1886.000000	0.000308  
1885.000000	0.000337  
1884.000000	0.000347  
1883.000000	0.000276  
1882.000000	0.000152  
1881.000000	0.000072  
1880.000000	0.000081  
1879.000000	0.000132  
1878.000000	0.000181  
1877.000000	0.000245  
1876.000000	0.000324  
1875.000000	0.000373  
1874.000000	0.000386  
1873.000000	0.000412  
1872.000000	0.000474  
1871.000000	0.000503  
1870.000000	0.000425  
1869.000000	0.000307  
1868.000000	0.000288  
1867.000000	0.000362  
1866.000000	0.000438  
1865.000000	0.000473  
1864.000000	0.000461  
1863.000000	0.000400  
1862.000000	0.000303  
1861.000000	0.000201  
1860.000000	0.000104  
1859.000000	-0.000003 
1858.000000	-0.000108 
1857.000000	-0.000142 
1856.000000	-0.000068 
1855.000000	0.000075  
1854.000000	0.000229  
1853.000000	0.000351  
1852.000000	0.000419  
1851.000000	0.000411  
1850.000000	0.000333  
1849.000000	0.000256  
1848.000000	0.000252  
1847.000000	0.000293  
1846.000000	0.000291  
1845.000000	0.000224  
1844.000000	0.000185  
1843.000000	0.000225  
1842.000000	0.000299  
1841.000000	0.000356  
1840.000000	0.000361  
1839.000000	0.000292  
1838.000000	0.000171  
1837.000000	0.000063  
1836.000000	0.000015  
1835.000000	0.000023  
1834.000000	0.000067  
1833.000000	0.000141  
1832.000000	0.000239  
1831.000000	0.000320  
1830.000000	0.000352  
1829.000000	0.000350  
1828.000000	0.000339  
1827.000000	0.000324  
1826.000000	0.000302  
1825.000000	0.000292  
1824.000000	0.000290  
1823.000000	0.000241  
1822.000000	0.000109  
1821.000000	-0.000061 
1820.000000	-0.000177 
1819.000000	-0.000175 
1818.000000	-0.000042 
1817.000000	0.000176  
1816.000000	0.000390  
1815.000000	0.000525  
1814.000000	0.000565  
1813.000000	0.000542  
1812.000000	0.000479  
1811.000000	0.000384  
1810.000000	0.000295  
1809.000000	0.000255  
1808.000000	0.000244  
1807.000000	0.000214  
1806.000000	0.000174  
1805.000000	0.000186  
1804.000000	0.000276  
1803.000000	0.000409  
1802.000000	0.000528  
1801.000000	0.000621  
1800.000000	0.000674  
1799.000000	0.000653  
1798.000000	0.000584  
1797.000000	0.000566  
1796.000000	0.000651  
1795.000000	0.000769  
1794.000000	0.000813  
1793.000000	0.000804  
1792.000000	0.000845  
1791.000000	0.000903  
1790.000000	0.000886  
1789.000000	0.000805  
1788.000000	0.000710  
1787.000000	0.000644  
1786.000000	0.000652  
1785.000000	0.000757  
1784.000000	0.000904  
1783.000000	0.000997  
1782.000000	0.000986  
1781.000000	0.000966  
1780.000000	0.001070  
1779.000000	0.001266  
1778.000000	0.001416  
1777.000000	0.001467  
1776.000000	0.001485  
1775.000000	0.001525  
1774.000000	0.001538  
1773.000000	0.001483  
1772.000000	0.001459  
1771.000000	0.001486  
1770.000000	0.001532  
1769.000000	0.001651  
1768.000000	0.001875  
1767.000000	0.002131  
1766.000000	0.002331  
1765.000000	0.002489  
1764.000000	0.002647  
1763.000000	0.002807  
1762.000000	0.002947  
1761.000000	0.003125  
1760.000000	0.003408  
1759.000000	0.003792  
1758.000000	0.004250  
1757.000000	0.004810  
1756.000000	0.005472  
1755.000000	0.006140  
1754.000000	0.006788  
1753.000000	0.007601  
1752.000000	0.008916  
1751.000000	0.010960  
1750.000000	0.013753  
1749.000000	0.017309  
1748.000000	0.021430  
1747.000000	0.025614  
1746.000000	0.029701  
1745.000000	0.033994  
1744.000000	0.038445  
1743.000000	0.042284  
1742.000000	0.044806  
1741.000000	0.045830  
1740.000000	0.045305  
1739.000000	0.043525  
1738.000000	0.041323  
1737.000000	0.039145  
1736.000000	0.036526  
1735.000000	0.032520  
1734.000000	0.027704  
1733.000000	0.024338  
1732.000000	0.022666  
1731.000000	0.021713  
1730.000000	0.021041  
1729.000000	0.020550  
1728.000000	0.020197  
1727.000000	0.019973  
1726.000000	0.019889  
1725.000000	0.019938  
1724.000000	0.020040  
1723.000000	0.020102  
1722.000000	0.020088  
1721.000000	0.019972  
1720.000000	0.019668  
1719.000000	0.019028  
1718.000000	0.018037  
1717.000000	0.016925  
1716.000000	0.015818  
1715.000000	0.014740  
1714.000000	0.013756  
1713.000000	0.012855  
1712.000000	0.011940  
1711.000000	0.010965  
1710.000000	0.010003  
1709.000000	0.009152  
1708.000000	0.008393  
1707.000000	0.007584  
1706.000000	0.006719  
1705.000000	0.006048  
1704.000000	0.005706  
1703.000000	0.005581  
1702.000000	0.005446  
1701.000000	0.005009  
1700.000000	0.004349  
1699.000000	0.003892  
1698.000000	0.003768  
1697.000000	0.003780  
1696.000000	0.003688  
1695.000000	0.003481  
1694.000000	0.003333  
1693.000000	0.003286  
1692.000000	0.003224  
1691.000000	0.003059  
1690.000000	0.002838  
1689.000000	0.002670  
1688.000000	0.002619  
1687.000000	0.002666  
1686.000000	0.002737  
1685.000000	0.002750  
1684.000000	0.002735  
1683.000000	0.002692  
1682.000000	0.002676  
1681.000000	0.002690  
1680.000000	0.002659  
1679.000000	0.002590  
1678.000000	0.002542  
1677.000000	0.002524  
1676.000000	0.002478  
1675.000000	0.002420  
1674.000000	0.002403  
1673.000000	0.002428  
1672.000000	0.002418  
1671.000000	0.002332  
1670.000000	0.002296  
1669.000000	0.002410  
1668.000000	0.002544  
1667.000000	0.002615  
1666.000000	0.002647  
1665.000000	0.002654  
1664.000000	0.002626  
1663.000000	0.002636  
1662.000000	0.002761  
1661.000000	0.002927  
1660.000000	0.003036  
1659.000000	0.003068  
1658.000000	0.003061  
1657.000000	0.003066  
1656.000000	0.003120  
1655.000000	0.003147  
1654.000000	0.003129  
1653.000000	0.003345  
1652.000000	0.003468  
1651.000000	0.003399  
1650.000000	0.003337  
1649.000000	0.003264  
1648.000000	0.003109  
1647.000000	0.003027  
1646.000000	0.003181  
1645.000000	0.003383  
1644.000000	0.003486  
1643.000000	0.003500  
1642.000000	0.003485  
1641.000000	0.003484  
1640.000000	0.003486  
1639.000000	0.003464  
1638.000000	0.003431  
1637.000000	0.003410  
1636.000000	0.003407  
1635.000000	0.003325  
1634.000000	0.003180  
1633.000000	0.003100  
1632.000000	0.003066  
1631.000000	0.003006  
1630.000000	0.002895  
1629.000000	0.002769  
1628.000000	0.002667  
1627.000000	0.002604  
1626.000000	0.002573  
1625.000000	0.002571  
1624.000000	0.002590  
1623.000000	0.002637  
1622.000000	0.002690  
1621.000000	0.002719  
1620.000000	0.002726  
1619.000000	0.002687  
1618.000000	0.002575  
1617.000000	0.002459  
1616.000000	0.002432  
1615.000000	0.002469  
1614.000000	0.002560  
1613.000000	0.002685  
1612.000000	0.002771  
1611.000000	0.002769  
1610.000000	0.002701  
1609.000000	0.002618  
1608.000000	0.002550  
1607.000000	0.002507  
1606.000000	0.002493  
1605.000000	0.002488  
1604.000000	0.002465  
1603.000000	0.002418  
1602.000000	0.002377  
1601.000000	0.002357  
1600.000000	0.002316  
1599.000000	0.002222  
1598.000000	0.002106  
1597.000000	0.002037  
1596.000000	0.002045  
1595.000000	0.002098  
1594.000000	0.002154  
1593.000000	0.002192  
1592.000000	0.002218  
1591.000000	0.002260  
1590.000000	0.002342  
1589.000000	0.002449  
1588.000000	0.002534  
1587.000000	0.002573  
1586.000000	0.002591  
1585.000000	0.002613  
1584.000000	0.002652  
1583.000000	0.002709  
1582.000000	0.002764  
1581.000000	0.002784  
1580.000000	0.002757  
1579.000000	0.002699  
1578.000000	0.002622  
1577.000000	0.002562  
1576.000000	0.002576  
1575.000000	0.002629  
1574.000000	0.002690  
1573.000000	0.002787  
1572.000000	0.002891  
1571.000000	0.002942  
1570.000000	0.002962  
1569.000000	0.002992  
1568.000000	0.002995  
1567.000000	0.002961  
1566.000000	0.002926  
1565.000000	0.002884  
1564.000000	0.002819  
1563.000000	0.002736  
1562.000000	0.002710  
1561.000000	0.002768  
1560.000000	0.002716  
1559.000000	0.002432  
1558.000000	0.002219  
1557.000000	0.002146  
1556.000000	0.002165  
1555.000000	0.002192  
1554.000000	0.002186  
1553.000000	0.002188  
1552.000000	0.002210  
1551.000000	0.002239  
1550.000000	0.002287  
1549.000000	0.002348  
1548.000000	0.002353  
1547.000000	0.002261  
1546.000000	0.002121  
1545.000000	0.002053  
1544.000000	0.002079  
1543.000000	0.002085  
1542.000000	0.002054  
1541.000000	0.002243  
1540.000000	0.002659  
1539.000000	0.002772  
1538.000000	0.002647  
1537.000000	0.002611  
1536.000000	0.002659  
1535.000000	0.002676  
1534.000000	0.002650  
1533.000000	0.002724  
1532.000000	0.002864  
1531.000000	0.002937  
1530.000000	0.002933  
1529.000000	0.002901  
1528.000000	0.002879  
1527.000000	0.002872  
1526.000000	0.002901  
1525.000000	0.002996  
1524.000000	0.003109  
1523.000000	0.003150  
1522.000000	0.003202  
1521.000000	0.003400  
1520.000000	0.003588  
1519.000000	0.003654  
1518.000000	0.003666  
1517.000000	0.003725  
1516.000000	0.003816  
1515.000000	0.003879  
1514.000000	0.003968  
1513.000000	0.004132  
1512.000000	0.004312  
1511.000000	0.004436  
1510.000000	0.004581  
1509.000000	0.004932  
1508.000000	0.005485  
1507.000000	0.005821  
1506.000000	0.005841  
1505.000000	0.005891  
1504.000000	0.006036  
1503.000000	0.006183  
1502.000000	0.006324  
1501.000000	0.006484  
1500.000000	0.006624  
1499.000000	0.006669  
1498.000000	0.006737  
1497.000000	0.007077  
1496.000000	0.007547  
1495.000000	0.007796  
1494.000000	0.007848  
1493.000000	0.007887  
1492.000000	0.007972  
1491.000000	0.008179  
1490.000000	0.008748  
1489.000000	0.009667  
1488.000000	0.010491  
1487.000000	0.011044  
1486.000000	0.011562  
1485.000000	0.012207  
1484.000000	0.012960  
1483.000000	0.013829  
1482.000000	0.014951  
1481.000000	0.016321  
1480.000000	0.017663  
1479.000000	0.018838  
1478.000000	0.020096  
1477.000000	0.021700  
1476.000000	0.023532  
1475.000000	0.025552  
1474.000000	0.028836  
1473.000000	0.034859  
1472.000000	0.042339  
1471.000000	0.048740  
1470.000000	0.054037  
1469.000000	0.058972  
1468.000000	0.063537  
1467.000000	0.067495  
1466.000000	0.070828  
1465.000000	0.073494  
1464.000000	0.075155  
1463.000000	0.075879  
1462.000000	0.076186  
1461.000000	0.076386  
1460.000000	0.076555  
1459.000000	0.076853  
1458.000000	0.077535  
1457.000000	0.077671  
1456.000000	0.076115  
1455.000000	0.073736  
1454.000000	0.071292  
1453.000000	0.068667  
1452.000000	0.065853  
1451.000000	0.063132  
1450.000000	0.060700  
1449.000000	0.058315  
1448.000000	0.055723  
1447.000000	0.053073  
1446.000000	0.050552  
1445.000000	0.048069  
1444.000000	0.045541  
1443.000000	0.043078  
1442.000000	0.040826  
1441.000000	0.038816  
1440.000000	0.037028  
1439.000000	0.035416  
1438.000000	0.033837  
1437.000000	0.032164  
1436.000000	0.030631  
1435.000000	0.029506  
1434.000000	0.028572  
1433.000000	0.027480  
1432.000000	0.026127  
1431.000000	0.024665  
1430.000000	0.023293  
1429.000000	0.022114  
1428.000000	0.021179  
1427.000000	0.020496  
1426.000000	0.019972  
1425.000000	0.019516  
1424.000000	0.019169  
1423.000000	0.018958  
1422.000000	0.018758  
1421.000000	0.018428  
1420.000000	0.018009  
1419.000000	0.017683  
1418.000000	0.017452  
1417.000000	0.017166  
1416.000000	0.016824  
1415.000000	0.016479  
1414.000000	0.016111  
1413.000000	0.015714  
1412.000000	0.015373  
1411.000000	0.015175  
1410.000000	0.015066  
1409.000000	0.014944  
1408.000000	0.014816  
1407.000000	0.014779  
1406.000000	0.014866  
1405.000000	0.015023  
1404.000000	0.015218  
1403.000000	0.015451  
1402.000000	0.015704  
1401.000000	0.015989  
1400.000000	0.016387  
1399.000000	0.016889  
1398.000000	0.017309  
1397.000000	0.017546  
1396.000000	0.017736  
1395.000000	0.018043  
1394.000000	0.018425  
1393.000000	0.018771  
1392.000000	0.019095  
1391.000000	0.019452  
1390.000000	0.019911  
1389.000000	0.020666  
1388.000000	0.022033  
1387.000000	0.024024  
1386.000000	0.026177  
1385.000000	0.028217  
1384.000000	0.030373  
1383.000000	0.032959  
1382.000000	0.036061  
1381.000000	0.039495  
1380.000000	0.042837  
1379.000000	0.045420  
1378.000000	0.046618  
1377.000000	0.046243  
1376.000000	0.044417  
1375.000000	0.041363  
1374.000000	0.037723  
1373.000000	0.034485  
1372.000000	0.032124  
1371.000000	0.030503  
1370.000000	0.029412  
1369.000000	0.028752  
1368.000000	0.028391  
1367.000000	0.028081  
1366.000000	0.027582  
1365.000000	0.026764  
1364.000000	0.025626  
1363.000000	0.024343  
1362.000000	0.023224  
1361.000000	0.022439  
1360.000000	0.021921  
1359.000000	0.021558  
1358.000000	0.021286  
1357.000000	0.021066  
1356.000000	0.020875  
1355.000000	0.020724  
1354.000000	0.020640  
1353.000000	0.020617  
1352.000000	0.020608  
1351.000000	0.020564  
1350.000000	0.020456  
1349.000000	0.020287  
1348.000000	0.020096  
1347.000000	0.019925  
1346.000000	0.019790  
1345.000000	0.019675  
1344.000000	0.019566  
1343.000000	0.019465  
1342.000000	0.019369  
1341.000000	0.019256  
1340.000000	0.019070  
1339.000000	0.018775  
1338.000000	0.018403  
1337.000000	0.018031  
1336.000000	0.017711  
1335.000000	0.017454  
1334.000000	0.017230  
1333.000000	0.017018  
1332.000000	0.016841  
1331.000000	0.016743  
1330.000000	0.016723  
1329.000000	0.016732  
1328.000000	0.016733  
1327.000000	0.016738  
1326.000000	0.016763  
1325.000000	0.016805  
1324.000000	0.016858  
1323.000000	0.016929  
1322.000000	0.017002  
1321.000000	0.017044  
1320.000000	0.017045  
1319.000000	0.017049  
1318.000000	0.017100  
1317.000000	0.017199  
1316.000000	0.017321  
1315.000000	0.017458  
1314.000000	0.017610  
1313.000000	0.017760  
1312.000000	0.017882  
1311.000000	0.017964  
1310.000000	0.018014  
1309.000000	0.018046  
1308.000000	0.018067  
1307.000000	0.018080  
1306.000000	0.018082  
1305.000000	0.018077  
1304.000000	0.018079  
1303.000000	0.018087  
1302.000000	0.018072  
1301.000000	0.017994  
1300.000000	0.017854  
1299.000000	0.017688  
1298.000000	0.017533  
1297.000000	0.017400  
1296.000000	0.017284  
1295.000000	0.017176  
1294.000000	0.017057  
1293.000000	0.016908  
1292.000000	0.016739  
1291.000000	0.016589  
1290.000000	0.016503  
1289.000000	0.016508  
1288.000000	0.016603  
1287.000000	0.016754  
1286.000000	0.016913  
1285.000000	0.017049  
1284.000000	0.017163  
1283.000000	0.017269  
1282.000000	0.017372  
1281.000000	0.017481  
1280.000000	0.017629  
1279.000000	0.017835  
1278.000000	0.018061  
1277.000000	0.018249  
1276.000000	0.018381  
1275.000000	0.018488  
1274.000000	0.018590  
1273.000000	0.018676  
1272.000000	0.018740  
1271.000000	0.018788  
1270.000000	0.018805  
1269.000000	0.018771  
1268.000000	0.018710  
1267.000000	0.018697  
1266.000000	0.018774  
1265.000000	0.018887  
1264.000000	0.018963  
1263.000000	0.019003  
1262.000000	0.019073  
1261.000000	0.019219  
1260.000000	0.019411  
1259.000000	0.019595  
1258.000000	0.019747  
1257.000000	0.019890  
1256.000000	0.020062  
1255.000000	0.020289  
1254.000000	0.020571  
1253.000000	0.020878  
1252.000000	0.021181  
1251.000000	0.021478  
1250.000000	0.021790  
1249.000000	0.022122  
1248.000000	0.022438  
1247.000000	0.022676  
1246.000000	0.022807  
1245.000000	0.022848  
1244.000000	0.022836  
1243.000000	0.022779  
1242.000000	0.022655  
1241.000000	0.022443  
1240.000000	0.022146  
1239.000000	0.021781  
1238.000000	0.021369  
1237.000000	0.020939  
1236.000000	0.020535  
1235.000000	0.020191  
1234.000000	0.019909  
1233.000000	0.019666  
1232.000000	0.019452  
1231.000000	0.019267  
1230.000000	0.019102  
1229.000000	0.018940  
1228.000000	0.018780  
1227.000000	0.018638  
1226.000000	0.018528  
1225.000000	0.018458  
1224.000000	0.018452  
1223.000000	0.018536  
1222.000000	0.018708  
1221.000000	0.018937  
1220.000000	0.019201  
1219.000000	0.019490  
1218.000000	0.019775  
1217.000000	0.020003  
1216.000000	0.020152  
1215.000000	0.020258  
1214.000000	0.020368  
1213.000000	0.020493  
1212.000000	0.020613  
1211.000000	0.020721  
1210.000000	0.020837  
1209.000000	0.020984  
1208.000000	0.021170  
1207.000000	0.021393  
1206.000000	0.021643  
1205.000000	0.021907  
1204.000000	0.022188  
1203.000000	0.022494  
1202.000000	0.022825  
1201.000000	0.023162  
1200.000000	0.023483  
1199.000000	0.023788  
1198.000000	0.024110  
1197.000000	0.024495  
1196.000000	0.024960  
1195.000000	0.025484  
1194.000000	0.026014  
1193.000000	0.026514  
1192.000000	0.026979  
1191.000000	0.027427  
1190.000000	0.027877  
1189.000000	0.028339  
1188.000000	0.028825  
1187.000000	0.029330  
1186.000000	0.029838  
1185.000000	0.030331  
1184.000000	0.030811  
1183.000000	0.031276  
1182.000000	0.031698  
1181.000000	0.032032  
1180.000000	0.032264  
1179.000000	0.032424  
1178.000000	0.032548  
1177.000000	0.032643  
1176.000000	0.032681  
1175.000000	0.032628  
1174.000000	0.032470  
1173.000000	0.032217  
1172.000000	0.031911  
1171.000000	0.031597  
1170.000000	0.031280  
1169.000000	0.030910  
1168.000000	0.030440  
1167.000000	0.029874  
1166.000000	0.029244  
1165.000000	0.028548  
1164.000000	0.027765  
1163.000000	0.026906  
1162.000000	0.026027  
1161.000000	0.025191  
1160.000000	0.024440  
1159.000000	0.023801  
1158.000000	0.023259  
1157.000000	0.022741  
1156.000000	0.022182  
1155.000000	0.021615  
1154.000000	0.021137  
1153.000000	0.020784  
1152.000000	0.020480  
1151.000000	0.020127  
1150.000000	0.019703  
1149.000000	0.019250  
1148.000000	0.018813  
1147.000000	0.018416  
1146.000000	0.018074  
1145.000000	0.017785  
1144.000000	0.017518  
1143.000000	0.017240  
1142.000000	0.016946  
1141.000000	0.016649  
1140.000000	0.016353  
1139.000000	0.016046  
1138.000000	0.015735  
1137.000000	0.015451  
1136.000000	0.015222  
1135.000000	0.015039  
1134.000000	0.014872  
1133.000000	0.014713  
1132.000000	0.014588  
1131.000000	0.014534  
1130.000000	0.014563  
1129.000000	0.014693  
1128.000000	0.014962  
1127.000000	0.015403  
1126.000000	0.015992  
1125.000000	0.016658  
1124.000000	0.017339  
1123.000000	0.018025  
1122.000000	0.018736  
1121.000000	0.019487  
1120.000000	0.020275  
1119.000000	0.021074  
1118.000000	0.021818  
1117.000000	0.022409  
1116.000000	0.022764  
1115.000000	0.022863  
1114.000000	0.022756  
1113.000000	0.022502  
1112.000000	0.022134  
1111.000000	0.021670  
1110.000000	0.021162  
1109.000000	0.020694  
1108.000000	0.020340  
1107.000000	0.020117  
1106.000000	0.019984  
1105.000000	0.019881  
1104.000000	0.019772  
1103.000000	0.019652  
1102.000000	0.019528  
1101.000000	0.019397  
1100.000000	0.019245  
1099.000000	0.019070  
1098.000000	0.018894  
1097.000000	0.018766  
1096.000000	0.018718  
1095.000000	0.018722  
1094.000000	0.018723  
1093.000000	0.018719  
1092.000000	0.018804  
1091.000000	0.019069  
1090.000000	0.019506  
1089.000000	0.020040  
1088.000000	0.020668  
1087.000000	0.021490  
1086.000000	0.022615  
1085.000000	0.024068  
1084.000000	0.025818  
1083.000000	0.027820  
1082.000000	0.030007  
1081.000000	0.032282  
1080.000000	0.034564  
1079.000000	0.036851  
1078.000000	0.039194  
1077.000000	0.041600  
1076.000000	0.043968  
1075.000000	0.046101  
1074.000000	0.047782  
1073.000000	0.048822  
1072.000000	0.049095  
1071.000000	0.048600  
1070.000000	0.047477  
1069.000000	0.045945  
1068.000000	0.044232  
1067.000000	0.042564  
1066.000000	0.041167  
1065.000000	0.040202  
1064.000000	0.039672  
1063.000000	0.039429  
1062.000000	0.039225  
1061.000000	0.038804  
1060.000000	0.037982  
1059.000000	0.036728  
1058.000000	0.035182  
1057.000000	0.033583  
1056.000000	0.032186  
1055.000000	0.031223  
1054.000000	0.030855  
1053.000000	0.031113  
1052.000000	0.031882  
1051.000000	0.032969  
1050.000000	0.034180  
1049.000000	0.035335  
1048.000000	0.036272  
1047.000000	0.036889  
1046.000000	0.037203  
1045.000000	0.037309  
1044.000000	0.037294  
1043.000000	0.037200  
1042.000000	0.037040  
1041.000000	0.036815  
1040.000000	0.036496  
1039.000000	0.036042  
1038.000000	0.035454  
1037.000000	0.034817  
1036.000000	0.034295  
1035.000000	0.034085  
1034.000000	0.034339  
1033.000000	0.035090  
1032.000000	0.036206  
1031.000000	0.037383  
1030.000000	0.038203  
1029.000000	0.038259  
1028.000000	0.037346  
1027.000000	0.035586  
1026.000000	0.033368  
1025.000000	0.031111  
1024.000000	0.029071  
1023.000000	0.027332  
1022.000000	0.025896  
1021.000000	0.024737  
1020.000000	0.023812  
1019.000000	0.023092  
1018.000000	0.022603  
1017.000000	0.022418  
1016.000000	0.022593  
1015.000000	0.023106  
1014.000000	0.023833  
1013.000000	0.024587  
1012.000000	0.025170  
1011.000000	0.025426  
1010.000000	0.025269  
1009.000000	0.024697  
1008.000000	0.023784  
1007.000000	0.022649  
1006.000000	0.021411  
1005.000000	0.020161  
1004.000000	0.018975  
1003.000000	0.017929  
1002.000000	0.017090  
1001.000000	0.016477  
1000.000000	0.016097  
999.000000	 0.015980  
998.000000	 0.016182  
997.000000	 0.016719  
996.000000	 0.017521  
995.000000	 0.018443  
994.000000	 0.019306  
993.000000	 0.019934  
992.000000	 0.020204  
991.000000	 0.020090  
990.000000	 0.019659  
989.000000	 0.019009  
988.000000	 0.018227  
987.000000	 0.017381  
986.000000	 0.016547  
985.000000	 0.015791  
984.000000	 0.015140  
983.000000	 0.014595  
982.000000	 0.014161  
981.000000	 0.013860  
980.000000	 0.013709  
979.000000	 0.013694  
978.000000	 0.013780  
977.000000	 0.013942  
976.000000	 0.014192  
975.000000	 0.014551  
974.000000	 0.015003  
973.000000	 0.015486  
972.000000	 0.015951  
971.000000	 0.016399  
970.000000	 0.016867  
969.000000	 0.017364  
968.000000	 0.017856  
967.000000	 0.018303  
966.000000	 0.018703  
965.000000	 0.019052  
964.000000	 0.019309  
963.000000	 0.019430  
962.000000	 0.019449  
961.000000	 0.019503  
960.000000	 0.019729  
959.000000	 0.020172  
958.000000	 0.020786  
957.000000	 0.021519  
956.000000	 0.022344  
955.000000	 0.023216  
954.000000	 0.024017  
953.000000	 0.024570  
952.000000	 0.024709  
951.000000	 0.024359  
950.000000	 0.023582  
949.000000	 0.022554  
948.000000	 0.021477  
947.000000	 0.020467  
946.000000	 0.019529  
945.000000	 0.018637  
944.000000	 0.017817  
943.000000	 0.017113  
942.000000	 0.016501  
941.000000	 0.015882  
940.000000	 0.015185  
939.000000	 0.014437  
938.000000	 0.013710  
937.000000	 0.013035  
936.000000	 0.012409  
935.000000	 0.011849  
934.000000	 0.011389  
933.000000	 0.011032  
932.000000	 0.010741  
931.000000	 0.010477  
930.000000	 0.010228  
929.000000	 0.010018  
928.000000	 0.009891  
927.000000	 0.009873  
926.000000	 0.009922  
925.000000	 0.009945  
924.000000	 0.009902  
923.000000	 0.009867  
922.000000	 0.009948  
921.000000	 0.010148  
920.000000	 0.010347  
919.000000	 0.010420  
918.000000	 0.010333  
917.000000	 0.010141  
916.000000	 0.009945  
915.000000	 0.009846  
914.000000	 0.009885  
913.000000	 0.010000  
912.000000	 0.010070  
911.000000	 0.010034  
910.000000	 0.009947  
909.000000	 0.009904  
908.000000	 0.009958  
907.000000	 0.010118  
906.000000	 0.010371  
905.000000	 0.010665  
904.000000	 0.010912  
903.000000	 0.011067  
902.000000	 0.011173  
901.000000	 0.011285  
900.000000	 0.011353  
899.000000	 0.011250  
898.000000	 0.010926  
897.000000	 0.010490  
896.000000	 0.010107  
895.000000	 0.009862  
894.000000	 0.009744  
893.000000	 0.009713  
892.000000	 0.009745  
891.000000	 0.009808  
890.000000	 0.009853  
889.000000	 0.009847  
888.000000	 0.009801  
887.000000	 0.009746  
886.000000	 0.009699  
885.000000	 0.009670  
884.000000	 0.009684  
883.000000	 0.009786  
882.000000	 0.009980  
881.000000	 0.010196  
880.000000	 0.010312  
879.000000	 0.010247  
878.000000	 0.010033  
877.000000	 0.009786  
876.000000	 0.009612  
875.000000	 0.009533  
874.000000	 0.009507  
873.000000	 0.009499  
872.000000	 0.009521  
871.000000	 0.009591  
870.000000	 0.009687  
869.000000	 0.009775  
868.000000	 0.009842  
867.000000	 0.009898  
866.000000	 0.009943  
865.000000	 0.009969  
864.000000	 0.010003  
863.000000	 0.010110  
862.000000	 0.010313  
861.000000	 0.010559  
860.000000	 0.010791  
859.000000	 0.011052  
858.000000	 0.011457  
857.000000	 0.012059  
856.000000	 0.012763  
855.000000	 0.013425  
854.000000	 0.014021  
853.000000	 0.014706  
852.000000	 0.015659  
851.000000	 0.016897  
850.000000	 0.018235  
849.000000	 0.019408  
848.000000	 0.020218  
847.000000	 0.020588  
846.000000	 0.020529  
845.000000	 0.020099  
844.000000	 0.019374  
843.000000	 0.018443  
842.000000	 0.017399  
841.000000	 0.016347  
840.000000	 0.015402  
839.000000	 0.014646  
838.000000	 0.014060  
837.000000	 0.013540  
836.000000	 0.012992  
835.000000	 0.012430  
834.000000	 0.011933  
833.000000	 0.011566  
832.000000	 0.011357  
831.000000	 0.011317  
830.000000	 0.011414  
829.000000	 0.011521  
828.000000	 0.011492  
827.000000	 0.011342  
826.000000	 0.011254  
825.000000	 0.011344  
824.000000	 0.011485  
823.000000	 0.011497  
822.000000	 0.011404  
821.000000	 0.011361  
820.000000	 0.011405  
819.000000	 0.011435  
818.000000	 0.011414  
817.000000	 0.011452  
816.000000	 0.011644  
815.000000	 0.011915  
814.000000	 0.012088  
813.000000	 0.012105  
812.000000	 0.012096  
811.000000	 0.012228  
810.000000	 0.012506  
809.000000	 0.012790  
808.000000	 0.012967  
807.000000	 0.013061  
806.000000	 0.013150  
805.000000	 0.013215  
804.000000	 0.013136  
803.000000	 0.012849  
802.000000	 0.012440  
801.000000	 0.012055  
800.000000	 0.011749  
799.000000	 0.011489  
798.000000	 0.011278  
797.000000	 0.011179  
796.000000	 0.011207  
795.000000	 0.011268  
794.000000	 0.011264  
793.000000	 0.011221  
792.000000	 0.011246  
791.000000	 0.011394  
790.000000	 0.011614  
789.000000	 0.011842  
788.000000	 0.012070  
787.000000	 0.012313  
786.000000	 0.012572  
785.000000	 0.012851  
784.000000	 0.013180  
783.000000	 0.013574  
782.000000	 0.013983  
781.000000	 0.014339  
780.000000	 0.014632  
779.000000	 0.014905  
778.000000	 0.015177  
777.000000	 0.015418  
776.000000	 0.015609  
775.000000	 0.015784  
774.000000	 0.015996  
773.000000	 0.016272  
772.000000	 0.016624  
771.000000	 0.017070  
770.000000	 0.017575  
769.000000	 0.018017  
768.000000	 0.018271  
767.000000	 0.018355  
766.000000	 0.018420  
765.000000	 0.018578  
764.000000	 0.018786  
763.000000	 0.018941  
762.000000	 0.019013  
761.000000	 0.019050  
760.000000	 0.019085  
759.000000	 0.019137  
758.000000	 0.019262  
757.000000	 0.019542  
756.000000	 0.019988  
755.000000	 0.020515  
754.000000	 0.021034  
753.000000	 0.021529  
752.000000	 0.022045  
751.000000	 0.022624  
750.000000	 0.023259  
749.000000	 0.023899  
748.000000	 0.024503  
747.000000	 0.025122  
746.000000	 0.025925  
745.000000	 0.027070  
744.000000	 0.028535  
743.000000	 0.030115  
742.000000	 0.031611  
741.000000	 0.032946  
740.000000	 0.034093  
739.000000	 0.034975  
738.000000	 0.035509  
737.000000	 0.035700  
736.000000	 0.035645  
735.000000	 0.035455  
734.000000	 0.035220  
733.000000	 0.035035  
732.000000	 0.034998  
731.000000	 0.035176  
730.000000	 0.035589  
729.000000	 0.036202  
728.000000	 0.036950  
727.000000	 0.037769  
726.000000	 0.038629  
725.000000	 0.039507  
724.000000	 0.040310  
723.000000	 0.040830  
722.000000	 0.040821  
721.000000	 0.040165  
720.000000	 0.038994  
719.000000	 0.037605  
718.000000	 0.036248  
717.000000	 0.035022  
716.000000	 0.033939  
715.000000	 0.033011  
714.000000	 0.032257  
713.000000	 0.031664  
712.000000	 0.031152  
711.000000	 0.030606  
710.000000	 0.029988  
709.000000	 0.029408  
708.000000	 0.029043  
707.000000	 0.028949  
706.000000	 0.028997  
705.000000	 0.029036  
704.000000	 0.029085  
703.000000	 0.029253  
702.000000	 0.029526  
701.000000	 0.029751  
700.000000	 0.029814  
699.000000	 0.029730  
698.000000	 0.029506  
697.000000	 0.029048  
696.000000	 0.028314  
695.000000	 0.027451  
694.000000	 0.026716  
693.000000	 0.026252  
692.000000	 0.026009  
691.000000	 0.025859  
690.000000	 0.025692  
689.000000	 0.025440  
688.000000	 0.025085  
687.000000	 0.024668  
686.000000	 0.024272  
685.000000	 0.023979  
684.000000	 0.023831  
683.000000	 0.023796  
682.000000	 0.023742  
681.000000	 0.023520  
680.000000	 0.023142  
679.000000	 0.022829  
678.000000	 0.022747  
677.000000	 0.022791  
676.000000	 0.022751  
675.000000	 0.022594  
674.000000	 0.022434  
673.000000	 0.022369  
672.000000	 0.022435  
671.000000	 0.022841  
670.000000	 0.023830  
669.000000	 0.025309  
668.000000	 0.025879  
667.000000	 0.024433  
666.000000	 0.022442  
665.000000	 0.021117  
664.000000	 0.020426  
663.000000	 0.020148  
662.000000	 0.020193  
661.000000	 0.020508  
660.000000	 0.020963  
659.000000	 0.021511  
658.000000	 0.021903  
657.000000	 0.022399  
656.000000	 0.022194  
655.000000	 0.022360  
654.000000	 0.020290  
653.000000	 0.016989  
652.000000	 0.017253  
651.000000	 0.016892  
650.000000	 0.017073  

