PE IR                   SPECTRUM    ASCII       PEDS        1.60        
  -1
NB422~1.ASC
17/05/24
07:49:03.00
17/05/24
07:49:03.00
Admin

650.000000
4









SPECTRUM ONE,CPU32 MAIN 00.02.6000 25-JUNE-2003 12:00:00
MIR TGS
MIR
OPTKBR
68128
0.200000

4.000000
STRONG
RATIO
SPECTRUM
MAGNITUDE
UNIVERSAL ATR
DOUBLE

COMBINED


0


#HDR
-1
-1
#GR
CM-1
A
0.00000011920928955078
0.0
4000.000000
-1.000000
3351
8
0.198589
-0.001724
#DATA
4000.000000	0.002678  
3999.000000	0.002576  
3998.000000	0.002492  
3997.000000	0.002438  
3996.000000	0.002401  
3995.000000	0.002366  
3994.000000	0.002329  
3993.000000	0.002291  
3992.000000	0.002254  
3991.000000	0.002232  
3990.000000	0.002253  
3989.000000	0.002342  
3988.000000	0.002492  
3987.000000	0.002655  
3986.000000	0.002765  
3985.000000	0.002773  
3984.000000	0.002685  
3983.000000	0.002557  
3982.000000	0.002447  
3981.000000	0.002377  
3980.000000	0.002325  
3979.000000	0.002259  
3978.000000	0.002181  
3977.000000	0.002128  
3976.000000	0.002146  
3975.000000	0.002243  
3974.000000	0.002384  
3973.000000	0.002513  
3972.000000	0.002591  
3971.000000	0.002605  
3970.000000	0.002563  
3969.000000	0.002480  
3968.000000	0.002379  
3967.000000	0.002286  
3966.000000	0.002224  
3965.000000	0.002195  
3964.000000	0.002186  
3963.000000	0.002183  
3962.000000	0.002195  
3961.000000	0.002242  
3960.000000	0.002315  
3959.000000	0.002372  
3958.000000	0.002369  
3957.000000	0.002319  
3956.000000	0.002280  
3955.000000	0.002296  
3954.000000	0.002358  
3953.000000	0.002415  
3952.000000	0.002429  
3951.000000	0.002400  
3950.000000	0.002349  
3949.000000	0.002289  
3948.000000	0.002236  
3947.000000	0.002218  
3946.000000	0.002258  
3945.000000	0.002327  
3944.000000	0.002351  
3943.000000	0.002295  
3942.000000	0.002219  
3941.000000	0.002206  
3940.000000	0.002258  
3939.000000	0.002293  
3938.000000	0.002235  
3937.000000	0.002108  
3936.000000	0.002007  
3935.000000	0.001999  
3934.000000	0.002056  
3933.000000	0.002087  
3932.000000	0.002040  
3931.000000	0.001950  
3930.000000	0.001889  
3929.000000	0.001896  
3928.000000	0.001969  
3927.000000	0.002072  
3926.000000	0.002136  
3925.000000	0.002121  
3924.000000	0.002044  
3923.000000	0.001946  
3922.000000	0.001844  
3921.000000	0.001766  
3920.000000	0.001782  
3919.000000	0.001944  
3918.000000	0.002190  
3917.000000	0.002372  
3916.000000	0.002423  
3915.000000	0.002410  
3914.000000	0.002421  
3913.000000	0.002483  
3912.000000	0.002556  
3911.000000	0.002579  
3910.000000	0.002501  
3909.000000	0.002316  
3908.000000	0.002080  
3907.000000	0.001901  
3906.000000	0.001874  
3905.000000	0.001995  
3904.000000	0.002138  
3903.000000	0.002170  
3902.000000	0.002086  
3901.000000	0.001980  
3900.000000	0.001948  
3899.000000	0.002011  
3898.000000	0.002111  
3897.000000	0.002167  
3896.000000	0.002132  
3895.000000	0.002042  
3894.000000	0.001978  
3893.000000	0.001970  
3892.000000	0.001933  
3891.000000	0.001811  
3890.000000	0.001683  
3889.000000	0.001666  
3888.000000	0.001743  
3887.000000	0.001770  
3886.000000	0.001682  
3885.000000	0.001649  
3884.000000	0.001862  
3883.000000	0.002291  
3882.000000	0.002697  
3881.000000	0.002831  
3880.000000	0.002668  
3879.000000	0.002416  
3878.000000	0.002257  
3877.000000	0.002202  
3876.000000	0.002126  
3875.000000	0.001931  
3874.000000	0.001699  
3873.000000	0.001622  
3872.000000	0.001753  
3871.000000	0.001912  
3870.000000	0.001928  
3869.000000	0.001900  
3868.000000	0.002008  
3867.000000	0.002220  
3866.000000	0.002340  
3865.000000	0.002286  
3864.000000	0.002177  
3863.000000	0.002112  
3862.000000	0.002039  
3861.000000	0.001892  
3860.000000	0.001653  
3859.000000	0.001348  
3858.000000	0.001033  
3857.000000	0.000837  
3856.000000	0.000887  
3855.000000	0.001090  
3854.000000	0.001159  
3853.000000	0.001133  
3852.000000	0.001258  
3851.000000	0.001549  
3850.000000	0.001840  
3849.000000	0.002006  
3848.000000	0.002046  
3847.000000	0.002010  
3846.000000	0.001936  
3845.000000	0.001861  
3844.000000	0.001839  
3843.000000	0.001936  
3842.000000	0.002166  
3841.000000	0.002431  
3840.000000	0.002558  
3839.000000	0.002469  
3838.000000	0.002259  
3837.000000	0.002076  
3836.000000	0.001994  
3835.000000	0.002008  
3834.000000	0.002063  
3833.000000	0.002083  
3832.000000	0.002014  
3831.000000	0.001884  
3830.000000	0.001773  
3829.000000	0.001736  
3828.000000	0.001743  
3827.000000	0.001717  
3826.000000	0.001652  
3825.000000	0.001652  
3824.000000	0.001803  
3823.000000	0.002015  
3822.000000	0.002058  
3821.000000	0.001915  
3820.000000	0.001844  
3819.000000	0.002020  
3818.000000	0.002320  
3817.000000	0.002416  
3816.000000	0.002187  
3815.000000	0.001902  
3814.000000	0.001822  
3813.000000	0.001890  
3812.000000	0.001913  
3811.000000	0.001831  
3810.000000	0.001737  
3809.000000	0.001692  
3808.000000	0.001619  
3807.000000	0.001493  
3806.000000	0.001484  
3805.000000	0.001756  
3804.000000	0.002221  
3803.000000	0.002493  
3802.000000	0.002247  
3801.000000	0.001716  
3800.000000	0.001395  
3799.000000	0.001439  
3798.000000	0.001664  
3797.000000	0.001837  
3796.000000	0.001900  
3795.000000	0.001931  
3794.000000	0.001979  
3793.000000	0.002003  
3792.000000	0.001970  
3791.000000	0.001914  
3790.000000	0.001887  
3789.000000	0.001912  
3788.000000	0.001986  
3787.000000	0.002085  
3786.000000	0.002167  
3785.000000	0.002199  
3784.000000	0.002202  
3783.000000	0.002235  
3782.000000	0.002297  
3781.000000	0.002288  
3780.000000	0.002124  
3779.000000	0.001884  
3778.000000	0.001718  
3777.000000	0.001670  
3776.000000	0.001647  
3775.000000	0.001560  
3774.000000	0.001448  
3773.000000	0.001422  
3772.000000	0.001500  
3771.000000	0.001573  
3770.000000	0.001581  
3769.000000	0.001614  
3768.000000	0.001757  
3767.000000	0.001940  
3766.000000	0.002014  
3765.000000	0.001959  
3764.000000	0.001926  
3763.000000	0.002041  
3762.000000	0.002242  
3761.000000	0.002355  
3760.000000	0.002289  
3759.000000	0.002109  
3758.000000	0.001909  
3757.000000	0.001751  
3756.000000	0.001671  
3755.000000	0.001662  
3754.000000	0.001637  
3753.000000	0.001497  
3752.000000	0.001322  
3751.000000	0.001347  
3750.000000	0.001579  
3749.000000	0.001834  
3748.000000	0.002091  
3747.000000	0.002373  
3746.000000	0.002453  
3745.000000	0.002026  
3744.000000	0.001375  
3743.000000	0.001073  
3742.000000	0.001166  
3741.000000	0.001317  
3740.000000	0.001315  
3739.000000	0.001232  
3738.000000	0.001219  
3737.000000	0.001302  
3736.000000	0.001436  
3735.000000	0.001606  
3734.000000	0.001764  
3733.000000	0.001773  
3732.000000	0.001573  
3731.000000	0.001280  
3730.000000	0.001070  
3729.000000	0.001005  
3728.000000	0.001019  
3727.000000	0.001033  
3726.000000	0.001064  
3725.000000	0.001157  
3724.000000	0.001273  
3723.000000	0.001337  
3722.000000	0.001331  
3721.000000	0.001311  
3720.000000	0.001317  
3719.000000	0.001332  
3718.000000	0.001306  
3717.000000	0.001242  
3716.000000	0.001195  
3715.000000	0.001177  
3714.000000	0.001115  
3713.000000	0.000972  
3712.000000	0.000919  
3711.000000	0.001146  
3710.000000	0.001510  
3709.000000	0.001747  
3708.000000	0.001774  
3707.000000	0.001676  
3706.000000	0.001606  
3705.000000	0.001685  
3704.000000	0.001925  
3703.000000	0.002189  
3702.000000	0.002283  
3701.000000	0.002151  
3700.000000	0.001931  
3699.000000	0.001785  
3698.000000	0.001744  
3697.000000	0.001747  
3696.000000	0.001765  
3695.000000	0.001823  
3694.000000	0.001941  
3693.000000	0.002107  
3692.000000	0.002253  
3691.000000	0.002268  
3690.000000	0.002078  
3689.000000	0.001773  
3688.000000	0.001558  
3687.000000	0.001569  
3686.000000	0.001759  
3685.000000	0.001954  
3684.000000	0.002011  
3683.000000	0.001913  
3682.000000	0.001716  
3681.000000	0.001460  
3680.000000	0.001230  
3679.000000	0.001222  
3678.000000	0.001594  
3677.000000	0.002114  
3676.000000	0.002234  
3675.000000	0.001824  
3674.000000	0.001326  
3673.000000	0.001083  
3672.000000	0.001068  
3671.000000	0.001138  
3670.000000	0.001268  
3669.000000	0.001460  
3668.000000	0.001640  
3667.000000	0.001731  
3666.000000	0.001720  
3665.000000	0.001678  
3664.000000	0.001706  
3663.000000	0.001822  
3662.000000	0.001938  
3661.000000	0.001949  
3660.000000	0.001845  
3659.000000	0.001684  
3658.000000	0.001531  
3657.000000	0.001429  
3656.000000	0.001431  
3655.000000	0.001561  
3654.000000	0.001754  
3653.000000	0.001880  
3652.000000	0.001815  
3651.000000	0.001624  
3650.000000	0.001727  
3649.000000	0.002327  
3648.000000	0.002908  
3647.000000	0.003087  
3646.000000	0.002990  
3645.000000	0.002827  
3644.000000	0.002673  
3643.000000	0.002532  
3642.000000	0.002421  
3641.000000	0.002374  
3640.000000	0.002365  
3639.000000	0.002307  
3638.000000	0.002153  
3637.000000	0.001946  
3636.000000	0.001733  
3635.000000	0.001491  
3634.000000	0.001207  
3633.000000	0.000980  
3632.000000	0.000975  
3631.000000	0.001263  
3630.000000	0.001686  
3629.000000	0.002032  
3628.000000	0.002286  
3627.000000	0.002519  
3626.000000	0.002685  
3625.000000	0.002691  
3624.000000	0.002561  
3623.000000	0.002431  
3622.000000	0.002397  
3621.000000	0.002404  
3620.000000	0.002332  
3619.000000	0.002196  
3618.000000	0.002134  
3617.000000	0.002207  
3616.000000	0.002330  
3615.000000	0.002352  
3614.000000	0.002209  
3613.000000	0.002011  
3612.000000	0.001948  
3611.000000	0.002112  
3610.000000	0.002425  
3609.000000	0.002718  
3608.000000	0.002882  
3607.000000	0.002934  
3606.000000	0.002955  
3605.000000	0.002999  
3604.000000	0.003078  
3603.000000	0.003157  
3602.000000	0.003182  
3601.000000	0.003111  
3600.000000	0.002976  
3599.000000	0.002831  
3598.000000	0.002709  
3597.000000	0.002626  
3596.000000	0.002607  
3595.000000	0.002654  
3594.000000	0.002725  
3593.000000	0.002773  
3592.000000	0.002811  
3591.000000	0.002911  
3590.000000	0.003123  
3589.000000	0.003395  
3588.000000	0.003617  
3587.000000	0.003759  
3586.000000	0.003873  
3585.000000	0.003955  
3584.000000	0.003935  
3583.000000	0.003775  
3582.000000	0.003557  
3581.000000	0.003433  
3580.000000	0.003515  
3579.000000	0.003776  
3578.000000	0.004079  
3577.000000	0.004293  
3576.000000	0.004373  
3575.000000	0.004359  
3574.000000	0.004313  
3573.000000	0.004266  
3572.000000	0.004225  
3571.000000	0.004206  
3570.000000	0.004237  
3569.000000	0.004326  
3568.000000	0.004474  
3567.000000	0.004678  
3566.000000	0.004883  
3565.000000	0.005006  
3564.000000	0.005023  
3563.000000	0.004962  
3562.000000	0.004880  
3561.000000	0.004818  
3560.000000	0.004787  
3559.000000	0.004782  
3558.000000	0.004801  
3557.000000	0.004841  
3556.000000	0.004891  
3555.000000	0.004930  
3554.000000	0.004940  
3553.000000	0.004928  
3552.000000	0.004923  
3551.000000	0.004949  
3550.000000	0.005009  
3549.000000	0.005087  
3548.000000	0.005165  
3547.000000	0.005228  
3546.000000	0.005265  
3545.000000	0.005280  
3544.000000	0.005305  
3543.000000	0.005367  
3542.000000	0.005448  
3541.000000	0.005496  
3540.000000	0.005486  
3539.000000	0.005452  
3538.000000	0.005455  
3537.000000	0.005502  
3536.000000	0.005530  
3535.000000	0.005481  
3534.000000	0.005378  
3533.000000	0.005292  
3532.000000	0.005270  
3531.000000	0.005296  
3530.000000	0.005322  
3529.000000	0.005335  
3528.000000	0.005369  
3527.000000	0.005460  
3526.000000	0.005585  
3525.000000	0.005681  
3524.000000	0.005727  
3523.000000	0.005772  
3522.000000	0.005877  
3521.000000	0.006042  
3520.000000	0.006202  
3519.000000	0.006290  
3518.000000	0.006297  
3517.000000	0.006274  
3516.000000	0.006282  
3515.000000	0.006332  
3514.000000	0.006386  
3513.000000	0.006408  
3512.000000	0.006423  
3511.000000	0.006513  
3510.000000	0.006732  
3509.000000	0.007014  
3508.000000	0.007234  
3507.000000	0.007332  
3506.000000	0.007351  
3505.000000	0.007355  
3504.000000	0.007344  
3503.000000	0.007259  
3502.000000	0.007092  
3501.000000	0.006931  
3500.000000	0.006874  
3499.000000	0.006949  
3498.000000	0.007102  
3497.000000	0.007259  
3496.000000	0.007370  
3495.000000	0.007420  
3494.000000	0.007435  
3493.000000	0.007477  
3492.000000	0.007605  
3491.000000	0.007801  
3490.000000	0.007958  
3489.000000	0.007968  
3488.000000	0.007846  
3487.000000	0.007736  
3486.000000	0.007760  
3485.000000	0.007906  
3484.000000	0.008043  
3483.000000	0.008057  
3482.000000	0.007945  
3481.000000	0.007807  
3480.000000	0.007738  
3479.000000	0.007768  
3478.000000	0.007878  
3477.000000	0.008048  
3476.000000	0.008272  
3475.000000	0.008528  
3474.000000	0.008749  
3473.000000	0.008860  
3472.000000	0.008832  
3471.000000	0.008709  
3470.000000	0.008563  
3469.000000	0.008443  
3468.000000	0.008370  
3467.000000	0.008361  
3466.000000	0.008435  
3465.000000	0.008591  
3464.000000	0.008795  
3463.000000	0.008993  
3462.000000	0.009142  
3461.000000	0.009227  
3460.000000	0.009264  
3459.000000	0.009278  
3458.000000	0.009278  
3457.000000	0.009252  
3456.000000	0.009195  
3455.000000	0.009131  
3454.000000	0.009100  
3453.000000	0.009122  
3452.000000	0.009208  
3451.000000	0.009373  
3450.000000	0.009615  
3449.000000	0.009871  
3448.000000	0.010050  
3447.000000	0.010121  
3446.000000	0.010143  
3445.000000	0.010168  
3444.000000	0.010165  
3443.000000	0.010085  
3442.000000	0.009957  
3441.000000	0.009888  
3440.000000	0.009941  
3439.000000	0.010078  
3438.000000	0.010194  
3437.000000	0.010215  
3436.000000	0.010146  
3435.000000	0.010054  
3434.000000	0.010019  
3433.000000	0.010075  
3432.000000	0.010195  
3431.000000	0.010319  
3430.000000	0.010403  
3429.000000	0.010445  
3428.000000	0.010469  
3427.000000	0.010487  
3426.000000	0.010497  
3425.000000	0.010487  
3424.000000	0.010450  
3423.000000	0.010397  
3422.000000	0.010359  
3421.000000	0.010373  
3420.000000	0.010443  
3419.000000	0.010536  
3418.000000	0.010616  
3417.000000	0.010694  
3416.000000	0.010820  
3415.000000	0.011015  
3414.000000	0.011218  
3413.000000	0.011330  
3412.000000	0.011298  
3411.000000	0.011162  
3410.000000	0.010997  
3409.000000	0.010864  
3408.000000	0.010798  
3407.000000	0.010824  
3406.000000	0.010940  
3405.000000	0.011109  
3404.000000	0.011277  
3403.000000	0.011411  
3402.000000	0.011502  
3401.000000	0.011544  
3400.000000	0.011533  
3399.000000	0.011480  
3398.000000	0.011418  
3397.000000	0.011369  
3396.000000	0.011345  
3395.000000	0.011355  
3394.000000	0.011419  
3393.000000	0.011538  
3392.000000	0.011679  
3391.000000	0.011787  
3390.000000	0.011820  
3389.000000	0.011779  
3388.000000	0.011711  
3387.000000	0.011683  
3386.000000	0.011731  
3385.000000	0.011825  
3384.000000	0.011902  
3383.000000	0.011934  
3382.000000	0.011947  
3381.000000	0.011970  
3380.000000	0.011985  
3379.000000	0.011945  
3378.000000	0.011841  
3377.000000	0.011736  
3376.000000	0.011715  
3375.000000	0.011790  
3374.000000	0.011870  
3373.000000	0.011839  
3372.000000	0.011689  
3371.000000	0.011545  
3370.000000	0.011552  
3369.000000	0.011727  
3368.000000	0.011946  
3367.000000	0.012075  
3366.000000	0.012071  
3365.000000	0.011982  
3364.000000	0.011866  
3363.000000	0.011763  
3362.000000	0.011704  
3361.000000	0.011720  
3360.000000	0.011821  
3359.000000	0.011975  
3358.000000	0.012117  
3357.000000	0.012177  
3356.000000	0.012127  
3355.000000	0.012012  
3354.000000	0.011925  
3353.000000	0.011936  
3352.000000	0.012041  
3351.000000	0.012182  
3350.000000	0.012297  
3349.000000	0.012344  
3348.000000	0.012311  
3347.000000	0.012220  
3346.000000	0.012129  
3345.000000	0.012098  
3344.000000	0.012143  
3343.000000	0.012227  
3342.000000	0.012289  
3341.000000	0.012291  
3340.000000	0.012235  
3339.000000	0.012154  
3338.000000	0.012086  
3337.000000	0.012055  
3336.000000	0.012070  
3335.000000	0.012128  
3334.000000	0.012214  
3333.000000	0.012301  
3332.000000	0.012362  
3331.000000	0.012387  
3330.000000	0.012384  
3329.000000	0.012347  
3328.000000	0.012258  
3327.000000	0.012124  
3326.000000	0.012000  
3325.000000	0.011961  
3324.000000	0.012040  
3323.000000	0.012201  
3322.000000	0.012364  
3321.000000	0.012463  
3320.000000	0.012491  
3319.000000	0.012498  
3318.000000	0.012537  
3317.000000	0.012599  
3316.000000	0.012625  
3315.000000	0.012578  
3314.000000	0.012483  
3313.000000	0.012399  
3312.000000	0.012352  
3311.000000	0.012339  
3310.000000	0.012356  
3309.000000	0.012411  
3308.000000	0.012498  
3307.000000	0.012587  
3306.000000	0.012644  
3305.000000	0.012650  
3304.000000	0.012608  
3303.000000	0.012536  
3302.000000	0.012457  
3301.000000	0.012378  
3300.000000	0.012299  
3299.000000	0.012235  
3298.000000	0.012223  
3297.000000	0.012278  
3296.000000	0.012362  
3295.000000	0.012409  
3294.000000	0.012388  
3293.000000	0.012328  
3292.000000	0.012276  
3291.000000	0.012247  
3290.000000	0.012213  
3289.000000	0.012137  
3288.000000	0.012025  
3287.000000	0.011950  
3286.000000	0.011998  
3285.000000	0.012164  
3284.000000	0.012326  
3283.000000	0.012356  
3282.000000	0.012240  
3281.000000	0.012073  
3280.000000	0.011934  
3279.000000	0.011818  
3278.000000	0.011695  
3277.000000	0.011576  
3276.000000	0.011509  
3275.000000	0.011524  
3274.000000	0.011608  
3273.000000	0.011711  
3272.000000	0.011769  
3271.000000	0.011755  
3270.000000	0.011709  
3269.000000	0.011706  
3268.000000	0.011761  
3267.000000	0.011803  
3266.000000	0.011763  
3265.000000	0.011661  
3264.000000	0.011576  
3263.000000	0.011551  
3262.000000	0.011558  
3261.000000	0.011553  
3260.000000	0.011521  
3259.000000	0.011475  
3258.000000	0.011442  
3257.000000	0.011451  
3256.000000	0.011513  
3255.000000	0.011596  
3254.000000	0.011637  
3253.000000	0.011603  
3252.000000	0.011513  
3251.000000	0.011410  
3250.000000	0.011320  
3249.000000	0.011249  
3248.000000	0.011194  
3247.000000	0.011151  
3246.000000	0.011125  
3245.000000	0.011126  
3244.000000	0.011150  
3243.000000	0.011160  
3242.000000	0.011105  
3241.000000	0.010974  
3240.000000	0.010824  
3239.000000	0.010738  
3238.000000	0.010754  
3237.000000	0.010852  
3236.000000	0.010978  
3235.000000	0.011081  
3234.000000	0.011135  
3233.000000	0.011132  
3232.000000	0.011085  
3231.000000	0.011011  
3230.000000	0.010918  
3229.000000	0.010818  
3228.000000	0.010736  
3227.000000	0.010708  
3226.000000	0.010743  
3225.000000	0.010817  
3224.000000	0.010887  
3223.000000	0.010920  
3222.000000	0.010890  
3221.000000	0.010787  
3220.000000	0.010640  
3219.000000	0.010525  
3218.000000	0.010503  
3217.000000	0.010553  
3216.000000	0.010583  
3215.000000	0.010537  
3214.000000	0.010451  
3213.000000	0.010407  
3212.000000	0.010435  
3211.000000	0.010495  
3210.000000	0.010528  
3209.000000	0.010504  
3208.000000	0.010417  
3207.000000	0.010286  
3206.000000	0.010162  
3205.000000	0.010107  
3204.000000	0.010140  
3203.000000	0.010222  
3202.000000	0.010281  
3201.000000	0.010274  
3200.000000	0.010199  
3199.000000	0.010093  
3198.000000	0.010005  
3197.000000	0.009960  
3196.000000	0.009924  
3195.000000	0.009833  
3194.000000	0.009668  
3193.000000	0.009493  
3192.000000	0.009403  
3191.000000	0.009444  
3190.000000	0.009575  
3189.000000	0.009704  
3188.000000	0.009747  
3187.000000	0.009673  
3186.000000	0.009530  
3185.000000	0.009417  
3184.000000	0.009418  
3183.000000	0.009535  
3182.000000	0.009689  
3181.000000	0.009780  
3180.000000	0.009745  
3179.000000	0.009591  
3178.000000	0.009379  
3177.000000	0.009183  
3176.000000	0.009036  
3175.000000	0.008928  
3174.000000	0.008833  
3173.000000	0.008745  
3172.000000	0.008674  
3171.000000	0.008635  
3170.000000	0.008630  
3169.000000	0.008659  
3168.000000	0.008713  
3167.000000	0.008765  
3166.000000	0.008791  
3165.000000	0.008780  
3164.000000	0.008735  
3163.000000	0.008649  
3162.000000	0.008511  
3161.000000	0.008330  
3160.000000	0.008145  
3159.000000	0.008002  
3158.000000	0.007918  
3157.000000	0.007887  
3156.000000	0.007907  
3155.000000	0.007992  
3154.000000	0.008136  
3153.000000	0.008285  
3152.000000	0.008354  
3151.000000	0.008294  
3150.000000	0.008145  
3149.000000	0.008015  
3148.000000	0.007994  
3147.000000	0.008075  
3146.000000	0.008156  
3145.000000	0.008121  
3144.000000	0.007933  
3143.000000	0.007660  
3142.000000	0.007422  
3141.000000	0.007306  
3140.000000	0.007321  
3139.000000	0.007420  
3138.000000	0.007552  
3137.000000	0.007691  
3136.000000	0.007820  
3135.000000	0.007918  
3134.000000	0.007953  
3133.000000	0.007900  
3132.000000	0.007764  
3131.000000	0.007588  
3130.000000	0.007424  
3129.000000	0.007308  
3128.000000	0.007249  
3127.000000	0.007256  
3126.000000	0.007335  
3125.000000	0.007467  
3124.000000	0.007591  
3123.000000	0.007652  
3122.000000	0.007649  
3121.000000	0.007629  
3120.000000	0.007617  
3119.000000	0.007590  
3118.000000	0.007520  
3117.000000	0.007429  
3116.000000	0.007377  
3115.000000	0.007407  
3114.000000	0.007513  
3113.000000	0.007651  
3112.000000	0.007757  
3111.000000	0.007769  
3110.000000	0.007654  
3109.000000	0.007444  
3108.000000	0.007225  
3107.000000	0.007085  
3106.000000	0.007064  
3105.000000	0.007129  
3104.000000	0.007205  
3103.000000	0.007235  
3102.000000	0.007213  
3101.000000	0.007174  
3100.000000	0.007135  
3099.000000	0.007086  
3098.000000	0.007017  
3097.000000	0.006948  
3096.000000	0.006905  
3095.000000	0.006897  
3094.000000	0.006908  
3093.000000	0.006929  
3092.000000	0.006954  
3091.000000	0.006965  
3090.000000	0.006941  
3089.000000	0.006891  
3088.000000	0.006850  
3087.000000	0.006850  
3086.000000	0.006886  
3085.000000	0.006943  
3084.000000	0.007018  
3083.000000	0.007117  
3082.000000	0.007215  
3081.000000	0.007257  
3080.000000	0.007207  
3079.000000	0.007082  
3078.000000	0.006955  
3077.000000	0.006905  
3076.000000	0.006960  
3075.000000	0.007069  
3074.000000	0.007144  
3073.000000	0.007122  
3072.000000	0.007018  
3071.000000	0.006890  
3070.000000	0.006788  
3069.000000	0.006737  
3068.000000	0.006751  
3067.000000	0.006834  
3066.000000	0.006939  
3065.000000	0.006981  
3064.000000	0.006909  
3063.000000	0.006762  
3062.000000	0.006628  
3061.000000	0.006562  
3060.000000	0.006560  
3059.000000	0.006593  
3058.000000	0.006635  
3057.000000	0.006662  
3056.000000	0.006657  
3055.000000	0.006636  
3054.000000	0.006646  
3053.000000	0.006717  
3052.000000	0.006830  
3051.000000	0.006934  
3050.000000	0.007001  
3049.000000	0.007038  
3048.000000	0.007062  
3047.000000	0.007072  
3046.000000	0.007060  
3045.000000	0.007027  
3044.000000	0.006986  
3043.000000	0.006954  
3042.000000	0.006937  
3041.000000	0.006921  
3040.000000	0.006891  
3039.000000	0.006868  
3038.000000	0.006905  
3037.000000	0.007039  
3036.000000	0.007236  
3035.000000	0.007425  
3034.000000	0.007571  
3033.000000	0.007713  
3032.000000	0.007896  
3031.000000	0.008094  
3030.000000	0.008236  
3029.000000	0.008300  
3028.000000	0.008352  
3027.000000	0.008475  
3026.000000	0.008681  
3025.000000	0.008912  
3024.000000	0.009116  
3023.000000	0.009313  
3022.000000	0.009572  
3021.000000	0.009938  
3020.000000	0.010406  
3019.000000	0.010938  
3018.000000	0.011500  
3017.000000	0.012060  
3016.000000	0.012571  
3015.000000	0.012994  
3014.000000	0.013339  
3013.000000	0.013664  
3012.000000	0.014009  
3011.000000	0.014336  
3010.000000	0.014558  
3009.000000	0.014619  
3008.000000	0.014540  
3007.000000	0.014384  
3006.000000	0.014189  
3005.000000	0.013966  
3004.000000	0.013723  
3003.000000	0.013480  
3002.000000	0.013248  
3001.000000	0.013029  
3000.000000	0.012841  
2999.000000	0.012720  
2998.000000	0.012680  
2997.000000	0.012691  
2996.000000	0.012711  
2995.000000	0.012739  
2994.000000	0.012812  
2993.000000	0.012954  
2992.000000	0.013163  
2991.000000	0.013434  
2990.000000	0.013792  
2989.000000	0.014280  
2988.000000	0.014911  
2987.000000	0.015654  
2986.000000	0.016468  
2985.000000	0.017346  
2984.000000	0.018320  
2983.000000	0.019403  
2982.000000	0.020556  
2981.000000	0.021742  
2980.000000	0.023010  
2979.000000	0.024493  
2978.000000	0.026285  
2977.000000	0.028353  
2976.000000	0.030615  
2975.000000	0.033076  
2974.000000	0.035847  
2973.000000	0.039026  
2972.000000	0.042614  
2971.000000	0.046553  
2970.000000	0.050810  
2969.000000	0.055389  
2968.000000	0.060275  
2967.000000	0.065389  
2966.000000	0.070611  
2965.000000	0.075815  
2964.000000	0.080896  
2963.000000	0.085772  
2962.000000	0.090378  
2961.000000	0.094664  
2960.000000	0.098581  
2959.000000	0.102043  
2958.000000	0.104910  
2957.000000	0.107021  
2956.000000	0.108276  
2955.000000	0.108678  
2954.000000	0.108299  
2953.000000	0.107229  
2952.000000	0.105590  
2951.000000	0.103573  
2950.000000	0.101439  
2949.000000	0.099454  
2948.000000	0.097824  
2947.000000	0.096684  
2946.000000	0.096117  
2945.000000	0.096187  
2944.000000	0.096956  
2943.000000	0.098487  
2942.000000	0.100820  
2941.000000	0.103943  
2940.000000	0.107795  
2939.000000	0.112301  
2938.000000	0.117385  
2937.000000	0.122955  
2936.000000	0.128889  
2935.000000	0.135071  
2934.000000	0.141450  
2933.000000	0.148036  
2932.000000	0.154820  
2931.000000	0.161693  
2930.000000	0.168454  
2929.000000	0.174896  
2928.000000	0.180885  
2927.000000	0.186325  
2926.000000	0.191068  
2925.000000	0.194873  
2924.000000	0.197456  
2923.000000	0.198589  
2922.000000	0.198198  
2921.000000	0.196399  
2920.000000	0.193466  
2919.000000	0.189706  
2918.000000	0.185372  
2917.000000	0.180645  
2916.000000	0.175657  
2915.000000	0.170507  
2914.000000	0.165285  
2913.000000	0.160093  
2912.000000	0.155035  
2911.000000	0.150162  
2910.000000	0.145479  
2909.000000	0.140987  
2908.000000	0.136707  
2907.000000	0.132651  
2906.000000	0.128801  
2905.000000	0.125131  
2904.000000	0.121623  
2903.000000	0.118253  
2902.000000	0.114980  
2901.000000	0.111769  
2900.000000	0.108598  
2899.000000	0.105448  
2898.000000	0.102301  
2897.000000	0.099165  
2896.000000	0.096071  
2895.000000	0.093058  
2894.000000	0.090156  
2893.000000	0.087393  
2892.000000	0.084767  
2891.000000	0.082232  
2890.000000	0.079734  
2889.000000	0.077286  
2888.000000	0.074985  
2887.000000	0.072954  
2886.000000	0.071280  
2885.000000	0.070012  
2884.000000	0.069190  
2883.000000	0.068847  
2882.000000	0.069009  
2881.000000	0.069701  
2880.000000	0.070948  
2879.000000	0.072770  
2878.000000	0.075152  
2877.000000	0.078006  
2876.000000	0.081131  
2875.000000	0.084200  
2874.000000	0.086850  
2873.000000	0.088834  
2872.000000	0.090120  
2871.000000	0.090856  
2870.000000	0.091260  
2869.000000	0.091542  
2868.000000	0.091875  
2867.000000	0.092408  
2866.000000	0.093297  
2865.000000	0.094722  
2864.000000	0.096838  
2863.000000	0.099684  
2862.000000	0.103149  
2861.000000	0.107056  
2860.000000	0.111245  
2859.000000	0.115547  
2858.000000	0.119739  
2857.000000	0.123550  
2856.000000	0.126679  
2855.000000	0.128766  
2854.000000	0.129406  
2853.000000	0.128314  
2852.000000	0.125494  
2851.000000	0.121196  
2850.000000	0.115747  
2849.000000	0.109462  
2848.000000	0.102692  
2847.000000	0.095826  
2846.000000	0.089172  
2845.000000	0.082865  
2844.000000	0.076901  
2843.000000	0.071228  
2842.000000	0.065816  
2841.000000	0.060678  
2840.000000	0.055868  
2839.000000	0.051456  
2838.000000	0.047490  
2837.000000	0.043975  
2836.000000	0.040886  
2835.000000	0.038194  
2834.000000	0.035855  
2833.000000	0.033802  
2832.000000	0.031960  
2831.000000	0.030283  
2830.000000	0.028765  
2829.000000	0.027403  
2828.000000	0.026177  
2827.000000	0.025059  
2826.000000	0.024025  
2825.000000	0.023051  
2824.000000	0.022104  
2823.000000	0.021155  
2822.000000	0.020225  
2821.000000	0.019381  
2820.000000	0.018694  
2819.000000	0.018160  
2818.000000	0.017706  
2817.000000	0.017248  
2816.000000	0.016761  
2815.000000	0.016274  
2814.000000	0.015816  
2813.000000	0.015395  
2812.000000	0.015005  
2811.000000	0.014641  
2810.000000	0.014290  
2809.000000	0.013936  
2808.000000	0.013577  
2807.000000	0.013243  
2806.000000	0.012959  
2805.000000	0.012716  
2804.000000	0.012492  
2803.000000	0.012287  
2802.000000	0.012110  
2801.000000	0.011943  
2800.000000	0.011754  
2799.000000	0.011547  
2798.000000	0.011374  
2797.000000	0.011270  
2796.000000	0.011209  
2795.000000	0.011137  
2794.000000	0.011042  
2793.000000	0.010956  
2792.000000	0.010892  
2791.000000	0.010817  
2790.000000	0.010685  
2789.000000	0.010490  
2788.000000	0.010265  
2787.000000	0.010054  
2786.000000	0.009891  
2785.000000	0.009795  
2784.000000	0.009758  
2783.000000	0.009737  
2782.000000	0.009665  
2781.000000	0.009496  
2780.000000	0.009243  
2779.000000	0.008975  
2778.000000	0.008766  
2777.000000	0.008640  
2776.000000	0.008561  
2775.000000	0.008469  
2774.000000	0.008332  
2773.000000	0.008165  
2772.000000	0.007999  
2771.000000	0.007850  
2770.000000	0.007715  
2769.000000	0.007591  
2768.000000	0.007481  
2767.000000	0.007379  
2766.000000	0.007270  
2765.000000	0.007153  
2764.000000	0.007063  
2763.000000	0.007039  
2762.000000	0.007069  
2761.000000	0.007075  
2760.000000	0.006983  
2759.000000	0.006797  
2758.000000	0.006597  
2757.000000	0.006465  
2756.000000	0.006411  
2755.000000	0.006378  
2754.000000	0.006307  
2753.000000	0.006196  
2752.000000	0.006091  
2751.000000	0.006037  
2750.000000	0.006034  
2749.000000	0.006046  
2748.000000	0.006039  
2747.000000	0.006002  
2746.000000	0.005949  
2745.000000	0.005908  
2744.000000	0.005905  
2743.000000	0.005944  
2742.000000	0.005992  
2741.000000	0.006004  
2740.000000	0.005981  
2739.000000	0.005971  
2738.000000	0.006005  
2737.000000	0.006060  
2736.000000	0.006092  
2735.000000	0.006102  
2734.000000	0.006125  
2733.000000	0.006165  
2732.000000	0.006186  
2731.000000	0.006160  
2730.000000	0.006110  
2729.000000	0.006087  
2728.000000	0.006124  
2727.000000	0.006210  
2726.000000	0.006290  
2725.000000	0.006295  
2724.000000	0.006198  
2723.000000	0.006062  
2722.000000	0.005986  
2721.000000	0.006008  
2720.000000	0.006078  
2719.000000	0.006116  
2718.000000	0.006085  
2717.000000	0.005984  
2716.000000	0.005825  
2715.000000	0.005644  
2714.000000	0.005502  
2713.000000	0.005430  
2712.000000	0.005398  
2711.000000	0.005347  
2710.000000	0.005256  
2709.000000	0.005145  
2708.000000	0.005040  
2707.000000	0.004955  
2706.000000	0.004910  
2705.000000	0.004915  
2704.000000	0.004935  
2703.000000	0.004920  
2702.000000	0.004860  
2701.000000	0.004797  
2700.000000	0.004761  
2699.000000	0.004738  
2698.000000	0.004709  
2697.000000	0.004703  
2696.000000	0.004771  
2695.000000	0.004911  
2694.000000	0.005061  
2693.000000	0.005149  
2692.000000	0.005150  
2691.000000	0.005086  
2690.000000	0.004995  
2689.000000	0.004903  
2688.000000	0.004824  
2687.000000	0.004758  
2686.000000	0.004702  
2685.000000	0.004663  
2684.000000	0.004662  
2683.000000	0.004710  
2682.000000	0.004777  
2681.000000	0.004812  
2680.000000	0.004795  
2679.000000	0.004754  
2678.000000	0.004729  
2677.000000	0.004720  
2676.000000	0.004697  
2675.000000	0.004659  
2674.000000	0.004651  
2673.000000	0.004708  
2672.000000	0.004810  
2671.000000	0.004895  
2670.000000	0.004919  
2669.000000	0.004874  
2668.000000	0.004784  
2667.000000	0.004685  
2666.000000	0.004602  
2665.000000	0.004552  
2664.000000	0.004536  
2663.000000	0.004547  
2662.000000	0.004560  
2661.000000	0.004538  
2660.000000	0.004466  
2659.000000	0.004381  
2658.000000	0.004349  
2657.000000	0.004387  
2656.000000	0.004437  
2655.000000	0.004422  
2654.000000	0.004322  
2653.000000	0.004176  
2652.000000	0.004044  
2651.000000	0.003964  
2650.000000	0.003933  
2649.000000	0.003903  
2648.000000	0.003826  
2647.000000	0.003709  
2646.000000	0.003617  
2645.000000	0.003595  
2644.000000	0.003621  
2643.000000	0.003649  
2642.000000	0.003683  
2641.000000	0.003744  
2640.000000	0.003797  
2639.000000	0.003753  
2638.000000	0.003583  
2637.000000	0.003361  
2636.000000	0.003208  
2635.000000	0.003194  
2634.000000	0.003307  
2633.000000	0.003486  
2632.000000	0.003646  
2631.000000	0.003712  
2630.000000	0.003660  
2629.000000	0.003530  
2628.000000	0.003403  
2627.000000	0.003348  
2626.000000	0.003378  
2625.000000	0.003442  
2624.000000	0.003459  
2623.000000	0.003399  
2622.000000	0.003319  
2621.000000	0.003297  
2620.000000	0.003344  
2619.000000	0.003398  
2618.000000	0.003403  
2617.000000	0.003361  
2616.000000	0.003305  
2615.000000	0.003251  
2614.000000	0.003207  
2613.000000	0.003181  
2612.000000	0.003169  
2611.000000	0.003152  
2610.000000	0.003127  
2609.000000	0.003124  
2608.000000	0.003166  
2607.000000	0.003233  
2606.000000	0.003274  
2605.000000	0.003238  
2604.000000	0.003099  
2603.000000	0.002865  
2602.000000	0.002593  
2601.000000	0.002384  
2600.000000	0.002308  
2599.000000	0.002344  
2598.000000	0.002405  
2597.000000	0.002417  
2596.000000	0.002368  
2595.000000	0.002288  
2594.000000	0.002209  
2593.000000	0.002154  
2592.000000	0.002143  
2591.000000	0.002191  
2590.000000	0.002293  
2589.000000	0.002415  
2588.000000	0.002507  
2587.000000	0.002532  
2586.000000	0.002501  
2585.000000	0.002466  
2584.000000	0.002466  
2583.000000	0.002471  
2582.000000	0.002417  
2581.000000	0.002278  
2580.000000	0.002102  
2579.000000	0.001965  
2578.000000	0.001896  
2577.000000	0.001866  
2576.000000	0.001830  
2575.000000	0.001768  
2574.000000	0.001708  
2573.000000	0.001701  
2572.000000	0.001771  
2571.000000	0.001872  
2570.000000	0.001912  
2569.000000	0.001842  
2568.000000	0.001724  
2567.000000	0.001677  
2566.000000	0.001742  
2565.000000	0.001844  
2564.000000	0.001884  
2563.000000	0.001837  
2562.000000	0.001742  
2561.000000	0.001642  
2560.000000	0.001571  
2559.000000	0.001573  
2558.000000	0.001667  
2557.000000	0.001809  
2556.000000	0.001924  
2555.000000	0.001978  
2554.000000	0.001979  
2553.000000	0.001918  
2552.000000	0.001787  
2551.000000	0.001639  
2550.000000	0.001552  
2549.000000	0.001525  
2548.000000	0.001476  
2547.000000	0.001365  
2546.000000	0.001273  
2545.000000	0.001291  
2544.000000	0.001400  
2543.000000	0.001510  
2542.000000	0.001577  
2541.000000	0.001627  
2540.000000	0.001688  
2539.000000	0.001758  
2538.000000	0.001813  
2537.000000	0.001811  
2536.000000	0.001703  
2535.000000	0.001490  
2534.000000	0.001263  
2533.000000	0.001121  
2532.000000	0.001077  
2531.000000	0.001091  
2530.000000	0.001163  
2529.000000	0.001330  
2528.000000	0.001565  
2527.000000	0.001760  
2526.000000	0.001818  
2525.000000	0.001727  
2524.000000	0.001537  
2523.000000	0.001323  
2522.000000	0.001178  
2521.000000	0.001176  
2520.000000	0.001293  
2519.000000	0.001405  
2518.000000	0.001414  
2517.000000	0.001349  
2516.000000	0.001318  
2515.000000	0.001376  
2514.000000	0.001480  
2513.000000	0.001545  
2512.000000	0.001518  
2511.000000	0.001412  
2510.000000	0.001296  
2509.000000	0.001258  
2508.000000	0.001334  
2507.000000	0.001460  
2506.000000	0.001517  
2505.000000	0.001446  
2504.000000	0.001304  
2503.000000	0.001209  
2502.000000	0.001230  
2501.000000	0.001339  
2500.000000	0.001459  
2499.000000	0.001520  
2498.000000	0.001503  
2497.000000	0.001434  
2496.000000	0.001381  
2495.000000	0.001396  
2494.000000	0.001458  
2493.000000	0.001461  
2492.000000	0.001320  
2491.000000	0.001086  
2490.000000	0.000921  
2489.000000	0.000940  
2488.000000	0.001097  
2487.000000	0.001240  
2486.000000	0.001252  
2485.000000	0.001136  
2484.000000	0.000971  
2483.000000	0.000837  
2482.000000	0.000778  
2481.000000	0.000798  
2480.000000	0.000867  
2479.000000	0.000937  
2478.000000	0.000956  
2477.000000	0.000898  
2476.000000	0.000783  
2475.000000	0.000666  
2474.000000	0.000581  
2473.000000	0.000506  
2472.000000	0.000413  
2471.000000	0.000334  
2470.000000	0.000349  
2469.000000	0.000483  
2468.000000	0.000658  
2467.000000	0.000768  
2466.000000	0.000771  
2465.000000	0.000692  
2464.000000	0.000573  
2463.000000	0.000449  
2462.000000	0.000347  
2461.000000	0.000281  
2460.000000	0.000263  
2459.000000	0.000320  
2458.000000	0.000467  
2457.000000	0.000650  
2456.000000	0.000746  
2455.000000	0.000678  
2454.000000	0.000507  
2453.000000	0.000375  
2452.000000	0.000377  
2451.000000	0.000501  
2450.000000	0.000672  
2449.000000	0.000809  
2448.000000	0.000851  
2447.000000	0.000793  
2446.000000	0.000692  
2445.000000	0.000622  
2444.000000	0.000625  
2443.000000	0.000702  
2442.000000	0.000827  
2441.000000	0.000932  
2440.000000	0.000917  
2439.000000	0.000742  
2438.000000	0.000501  
2437.000000	0.000357  
2436.000000	0.000381  
2435.000000	0.000506  
2434.000000	0.000618  
2433.000000	0.000660  
2432.000000	0.000651  
2431.000000	0.000633  
2430.000000	0.000635  
2429.000000	0.000648  
2428.000000	0.000634  
2427.000000	0.000579  
2426.000000	0.000531  
2425.000000	0.000542  
2424.000000	0.000596  
2423.000000	0.000617  
2422.000000	0.000571  
2421.000000	0.000506  
2420.000000	0.000486  
2419.000000	0.000524  
2418.000000	0.000587  
2417.000000	0.000640  
2416.000000	0.000658  
2415.000000	0.000633  
2414.000000	0.000587  
2413.000000	0.000571  
2412.000000	0.000607  
2411.000000	0.000652  
2410.000000	0.000655  
2409.000000	0.000629  
2408.000000	0.000628  
2407.000000	0.000652  
2406.000000	0.000634  
2405.000000	0.000531  
2404.000000	0.000406  
2403.000000	0.000362  
2402.000000	0.000418  
2401.000000	0.000486  
2400.000000	0.000486  
2399.000000	0.000437  
2398.000000	0.000414  
2397.000000	0.000456  
2396.000000	0.000543  
2395.000000	0.000641  
2394.000000	0.000729  
2393.000000	0.000786  
2392.000000	0.000818  
2391.000000	0.000854  
2390.000000	0.000907  
2389.000000	0.000917  
2388.000000	0.000816  
2387.000000	0.000626  
2386.000000	0.000454  
2385.000000	0.000374  
2384.000000	0.000374  
2383.000000	0.000429  
2382.000000	0.000573  
2381.000000	0.000824  
2380.000000	0.001092  
2379.000000	0.001229  
2378.000000	0.001177  
2377.000000	0.000988  
2376.000000	0.000707  
2375.000000	0.000349  
2374.000000	0.000011  
2373.000000	-0.000098 
2372.000000	0.000123  
2371.000000	0.000522  
2370.000000	0.000824  
2369.000000	0.000910  
2368.000000	0.000898  
2367.000000	0.001000  
2366.000000	0.001332  
2365.000000	0.001736  
2364.000000	0.001784  
2363.000000	0.001179  
2362.000000	0.000189  
2361.000000	-0.000512 
2360.000000	-0.000552 
2359.000000	-0.000165 
2358.000000	0.000222  
2357.000000	0.000448  
2356.000000	0.000584  
2355.000000	0.000730  
2354.000000	0.000914  
2353.000000	0.001024  
2352.000000	0.000926  
2351.000000	0.000664  
2350.000000	0.000445  
2349.000000	0.000425  
2348.000000	0.000555  
2347.000000	0.000637  
2346.000000	0.000529  
2345.000000	0.000348  
2344.000000	0.000258  
2343.000000	0.000214  
2342.000000	0.000166  
2341.000000	0.000182  
2340.000000	0.000280  
2339.000000	0.000356  
2338.000000	0.000376  
2337.000000	0.000406  
2336.000000	0.000466  
2335.000000	0.000485  
2334.000000	0.000422  
2333.000000	0.000277  
2332.000000	0.000054  
2331.000000	-0.000218 
2330.000000	-0.000413 
2329.000000	-0.000423 
2328.000000	-0.000324 
2327.000000	-0.000272 
2326.000000	-0.000310 
2325.000000	-0.000316 
2324.000000	-0.000189 
2323.000000	-0.000012 
2322.000000	0.000015  
2321.000000	-0.000218 
2320.000000	-0.000592 
2319.000000	-0.000851 
2318.000000	-0.000801 
2317.000000	-0.000471 
2316.000000	-0.000059 
2315.000000	0.000226  
2314.000000	0.000285  
2313.000000	0.000123  
2312.000000	-0.000173 
2311.000000	-0.000457 
2310.000000	-0.000580 
2309.000000	-0.000512 
2308.000000	-0.000379 
2307.000000	-0.000319 
2306.000000	-0.000361 
2305.000000	-0.000448 
2304.000000	-0.000537 
2303.000000	-0.000618 
2302.000000	-0.000662 
2301.000000	-0.000647 
2300.000000	-0.000613 
2299.000000	-0.000634 
2298.000000	-0.000739 
2297.000000	-0.000877 
2296.000000	-0.000967 
2295.000000	-0.000940 
2294.000000	-0.000768 
2293.000000	-0.000508 
2292.000000	-0.000312 
2291.000000	-0.000298 
2290.000000	-0.000427 
2289.000000	-0.000530 
2288.000000	-0.000486 
2287.000000	-0.000332 
2286.000000	-0.000179 
2285.000000	-0.000097 
2284.000000	-0.000078 
2283.000000	-0.000074 
2282.000000	-0.000043 
2281.000000	0.000018  
2280.000000	0.000073  
2279.000000	0.000076  
2278.000000	0.000037  
2277.000000	-0.000007 
2276.000000	-0.000044 
2275.000000	-0.000087 
2274.000000	-0.000125 
2273.000000	-0.000137 
2272.000000	-0.000147 
2271.000000	-0.000198 
2270.000000	-0.000259 
2269.000000	-0.000230 
2268.000000	-0.000065 
2267.000000	0.000154  
2266.000000	0.000301  
2265.000000	0.000294  
2264.000000	0.000116  
2263.000000	-0.000209 
2262.000000	-0.000596 
2261.000000	-0.000900 
2260.000000	-0.000994 
2259.000000	-0.000870 
2258.000000	-0.000635 
2257.000000	-0.000436 
2256.000000	-0.000370 
2255.000000	-0.000436 
2254.000000	-0.000539 
2253.000000	-0.000557 
2252.000000	-0.000425 
2251.000000	-0.000194 
2250.000000	-0.000002 
2249.000000	0.000031  
2248.000000	-0.000070 
2247.000000	-0.000159 
2246.000000	-0.000134 
2245.000000	-0.000081 
2244.000000	-0.000159 
2243.000000	-0.000357 
2242.000000	-0.000501 
2241.000000	-0.000512 
2240.000000	-0.000502 
2239.000000	-0.000542 
2238.000000	-0.000509 
2237.000000	-0.000311 
2236.000000	-0.000128 
2235.000000	-0.000222 
2234.000000	-0.000557 
2233.000000	-0.000816 
2232.000000	-0.000775 
2231.000000	-0.000508 
2230.000000	-0.000212 
2229.000000	-0.000032 
2228.000000	-0.000048 
2227.000000	-0.000264 
2226.000000	-0.000512 
2225.000000	-0.000532 
2224.000000	-0.000230 
2223.000000	0.000234  
2222.000000	0.000649  
2221.000000	0.000928  
2220.000000	0.001060  
2219.000000	0.001011  
2218.000000	0.000767  
2217.000000	0.000414  
2216.000000	0.000098  
2215.000000	-0.000059 
2214.000000	-0.000015 
2213.000000	0.000157  
2212.000000	0.000279  
2211.000000	0.000240  
2210.000000	0.000174  
2209.000000	0.000322  
2208.000000	0.000701  
2207.000000	0.001027  
2206.000000	0.001043  
2205.000000	0.000800  
2204.000000	0.000555  
2203.000000	0.000498  
2202.000000	0.000636  
2201.000000	0.000832  
2200.000000	0.000887  
2199.000000	0.000674  
2198.000000	0.000286  
2197.000000	-0.000018 
2196.000000	-0.000076 
2195.000000	0.000018  
2194.000000	0.000079  
2193.000000	0.000057  
2192.000000	0.000046  
2191.000000	0.000119  
2190.000000	0.000248  
2189.000000	0.000325  
2188.000000	0.000215  
2187.000000	-0.000131 
2186.000000	-0.000557 
2185.000000	-0.000756 
2184.000000	-0.000585 
2183.000000	-0.000249 
2182.000000	-0.000098 
2181.000000	-0.000233 
2180.000000	-0.000408 
2179.000000	-0.000325 
2178.000000	0.000038  
2177.000000	0.000414  
2176.000000	0.000512  
2175.000000	0.000313  
2174.000000	0.000047  
2173.000000	-0.000100 
2172.000000	-0.000200 
2171.000000	-0.000425 
2170.000000	-0.000748 
2169.000000	-0.000924 
2168.000000	-0.000791 
2167.000000	-0.000475 
2166.000000	-0.000222 
2165.000000	-0.000119 
2164.000000	-0.000043 
2163.000000	0.000110  
2162.000000	0.000245  
2161.000000	0.000138  
2160.000000	-0.000274 
2159.000000	-0.000744 
2158.000000	-0.000927 
2157.000000	-0.000761 
2156.000000	-0.000488 
2155.000000	-0.000349 
2154.000000	-0.000382 
2153.000000	-0.000508 
2152.000000	-0.000645 
2151.000000	-0.000714 
2150.000000	-0.000674 
2149.000000	-0.000621 
2148.000000	-0.000717 
2147.000000	-0.000922 
2146.000000	-0.000943 
2145.000000	-0.000593 
2144.000000	-0.000071 
2143.000000	0.000262  
2142.000000	0.000297  
2141.000000	0.000176  
2140.000000	0.000019  
2139.000000	-0.000182 
2138.000000	-0.000405 
2137.000000	-0.000555 
2136.000000	-0.000606 
2135.000000	-0.000625 
2134.000000	-0.000628 
2133.000000	-0.000568 
2132.000000	-0.000460 
2131.000000	-0.000406 
2130.000000	-0.000450 
2129.000000	-0.000523 
2128.000000	-0.000546 
2127.000000	-0.000491 
2126.000000	-0.000327 
2125.000000	-0.000032 
2124.000000	0.000326  
2123.000000	0.000600  
2122.000000	0.000695  
2121.000000	0.000646  
2120.000000	0.000524  
2119.000000	0.000357  
2118.000000	0.000151  
2117.000000	-0.000071 
2116.000000	-0.000290 
2115.000000	-0.000476 
2114.000000	-0.000566 
2113.000000	-0.000513 
2112.000000	-0.000373 
2111.000000	-0.000254 
2110.000000	-0.000179 
2109.000000	-0.000077 
2108.000000	0.000056  
2107.000000	0.000120  
2106.000000	0.000062  
2105.000000	-0.000039 
2104.000000	-0.000119 
2103.000000	-0.000235 
2102.000000	-0.000461 
2101.000000	-0.000723 
2100.000000	-0.000872 
2099.000000	-0.000850 
2098.000000	-0.000709 
2097.000000	-0.000519 
2096.000000	-0.000326 
2095.000000	-0.000178 
2094.000000	-0.000094 
2093.000000	-0.000029 
2092.000000	0.000074  
2091.000000	0.000204  
2090.000000	0.000293  
2089.000000	0.000306  
2088.000000	0.000264  
2087.000000	0.000199  
2086.000000	0.000130  
2085.000000	0.000080  
2084.000000	0.000069  
2083.000000	0.000072  
2082.000000	0.000027  
2081.000000	-0.000108 
2080.000000	-0.000314 
2079.000000	-0.000504 
2078.000000	-0.000589 
2077.000000	-0.000552 
2076.000000	-0.000476 
2075.000000	-0.000462 
2074.000000	-0.000525 
2073.000000	-0.000600 
2072.000000	-0.000617 
2071.000000	-0.000563 
2070.000000	-0.000462 
2069.000000	-0.000363 
2068.000000	-0.000325 
2067.000000	-0.000353 
2066.000000	-0.000367 
2065.000000	-0.000287 
2064.000000	-0.000146 
2063.000000	-0.000043 
2062.000000	-0.000015 
2061.000000	-0.000021 
2060.000000	-0.000028 
2059.000000	-0.000029 
2058.000000	0.000019  
2057.000000	0.000167  
2056.000000	0.000367  
2055.000000	0.000487  
2054.000000	0.000435  
2053.000000	0.000207  
2052.000000	-0.000153 
2051.000000	-0.000538 
2050.000000	-0.000746 
2049.000000	-0.000641 
2048.000000	-0.000377 
2047.000000	-0.000262 
2046.000000	-0.000360 
2045.000000	-0.000413 
2044.000000	-0.000237 
2043.000000	0.000019  
2042.000000	0.000111  
2041.000000	0.000027  
2040.000000	-0.000054 
2039.000000	-0.000042 
2038.000000	0.000032  
2037.000000	0.000126  
2036.000000	0.000199  
2035.000000	0.000167  
2034.000000	-0.000002 
2033.000000	-0.000197 
2032.000000	-0.000271 
2031.000000	-0.000237 
2030.000000	-0.000237 
2029.000000	-0.000349 
2028.000000	-0.000490 
2027.000000	-0.000507 
2026.000000	-0.000339 
2025.000000	-0.000106 
2024.000000	-0.000023 
2023.000000	-0.000170 
2022.000000	-0.000400 
2021.000000	-0.000548 
2020.000000	-0.000673 
2019.000000	-0.000953 
2018.000000	-0.001375 
2017.000000	-0.001686 
2016.000000	-0.001724 
2015.000000	-0.001571 
2014.000000	-0.001345 
2013.000000	-0.001070 
2012.000000	-0.000804 
2011.000000	-0.000676 
2010.000000	-0.000734 
2009.000000	-0.000880 
2008.000000	-0.001017 
2007.000000	-0.001100 
2006.000000	-0.001008 
2005.000000	-0.000609 
2004.000000	-0.000038 
2003.000000	0.000301  
2002.000000	0.000162  
2001.000000	-0.000244 
2000.000000	-0.000491 
1999.000000	-0.000388 
1998.000000	-0.000082 
1997.000000	0.000183  
1996.000000	0.000235  
1995.000000	-0.000019 
1994.000000	-0.000529 
1993.000000	-0.000972 
1992.000000	-0.000949 
1991.000000	-0.000443 
1990.000000	0.000111  
1989.000000	0.000292  
1988.000000	0.000032  
1987.000000	-0.000435 
1986.000000	-0.000864 
1985.000000	-0.001137 
1984.000000	-0.001189 
1983.000000	-0.000969 
1982.000000	-0.000538 
1981.000000	-0.000155 
1980.000000	-0.000097 
1979.000000	-0.000381 
1978.000000	-0.000761 
1977.000000	-0.001057 
1976.000000	-0.001314 
1975.000000	-0.001560 
1974.000000	-0.001595 
1973.000000	-0.001267 
1972.000000	-0.000778 
1971.000000	-0.000480 
1970.000000	-0.000423 
1969.000000	-0.000337 
1968.000000	-0.000069 
1967.000000	0.000177  
1966.000000	0.000169  
1965.000000	-0.000005 
1964.000000	-0.000102 
1963.000000	-0.000018 
1962.000000	0.000164  
1961.000000	0.000304  
1960.000000	0.000279  
1959.000000	0.000053  
1958.000000	-0.000271 
1957.000000	-0.000525 
1956.000000	-0.000615 
1955.000000	-0.000580 
1954.000000	-0.000475 
1953.000000	-0.000316 
1952.000000	-0.000165 
1951.000000	-0.000166 
1950.000000	-0.000369 
1949.000000	-0.000617 
1948.000000	-0.000673 
1947.000000	-0.000470 
1946.000000	-0.000174 
1945.000000	-0.000004 
1944.000000	-0.000057 
1943.000000	-0.000253 
1942.000000	-0.000439 
1941.000000	-0.000542 
1940.000000	-0.000585 
1939.000000	-0.000588 
1938.000000	-0.000537 
1937.000000	-0.000455 
1936.000000	-0.000413 
1935.000000	-0.000440 
1934.000000	-0.000455 
1933.000000	-0.000368 
1932.000000	-0.000218 
1931.000000	-0.000121 
1930.000000	-0.000120 
1929.000000	-0.000181 
1928.000000	-0.000293 
1927.000000	-0.000466 
1926.000000	-0.000649 
1925.000000	-0.000745 
1924.000000	-0.000727 
1923.000000	-0.000679 
1922.000000	-0.000671 
1921.000000	-0.000683 
1920.000000	-0.000674 
1919.000000	-0.000621 
1918.000000	-0.000484 
1917.000000	-0.000259 
1916.000000	-0.000066 
1915.000000	-0.000056 
1914.000000	-0.000258 
1913.000000	-0.000522 
1912.000000	-0.000645 
1911.000000	-0.000541 
1910.000000	-0.000276 
1909.000000	-0.000008 
1908.000000	0.000118  
1907.000000	0.000075  
1906.000000	-0.000043 
1905.000000	-0.000115 
1904.000000	-0.000117 
1903.000000	-0.000120 
1902.000000	-0.000175 
1901.000000	-0.000247 
1900.000000	-0.000282 
1899.000000	-0.000265 
1898.000000	-0.000220 
1897.000000	-0.000181 
1896.000000	-0.000203 
1895.000000	-0.000312 
1894.000000	-0.000441 
1893.000000	-0.000487 
1892.000000	-0.000424 
1891.000000	-0.000310 
1890.000000	-0.000212 
1889.000000	-0.000161 
1888.000000	-0.000161 
1887.000000	-0.000184 
1886.000000	-0.000173 
1885.000000	-0.000100 
1884.000000	-0.000019 
1883.000000	-0.000011 
1882.000000	-0.000073 
1881.000000	-0.000135 
1880.000000	-0.000159 
1879.000000	-0.000159 
1878.000000	-0.000114 
1877.000000	0.000016  
1876.000000	0.000192  
1875.000000	0.000293  
1874.000000	0.000276  
1873.000000	0.000222  
1872.000000	0.000204  
1871.000000	0.000173  
1870.000000	0.000039  
1869.000000	-0.000151 
1868.000000	-0.000270 
1867.000000	-0.000294 
1866.000000	-0.000279 
1865.000000	-0.000255 
1864.000000	-0.000252 
1863.000000	-0.000291 
1862.000000	-0.000341 
1861.000000	-0.000330 
1860.000000	-0.000265 
1859.000000	-0.000239 
1858.000000	-0.000292 
1857.000000	-0.000334 
1856.000000	-0.000268 
1855.000000	-0.000122 
1854.000000	0.000012  
1853.000000	0.000091  
1852.000000	0.000135  
1851.000000	0.000169  
1850.000000	0.000189  
1849.000000	0.000209  
1848.000000	0.000241  
1847.000000	0.000247  
1846.000000	0.000158  
1845.000000	-0.000019 
1844.000000	-0.000173 
1843.000000	-0.000217 
1842.000000	-0.000171 
1841.000000	-0.000102 
1840.000000	-0.000072 
1839.000000	-0.000114 
1838.000000	-0.000190 
1837.000000	-0.000209 
1836.000000	-0.000130 
1835.000000	-0.000005 
1834.000000	0.000093  
1833.000000	0.000141  
1832.000000	0.000146  
1831.000000	0.000112  
1830.000000	0.000058  
1829.000000	0.000004  
1828.000000	-0.000051 
1827.000000	-0.000110 
1826.000000	-0.000141 
1825.000000	-0.000109 
1824.000000	-0.000053 
1823.000000	-0.000060 
1822.000000	-0.000140 
1821.000000	-0.000213 
1820.000000	-0.000206 
1819.000000	-0.000123 
1818.000000	-0.000010 
1817.000000	0.000097  
1816.000000	0.000165  
1815.000000	0.000175  
1814.000000	0.000163  
1813.000000	0.000186  
1812.000000	0.000249  
1811.000000	0.000272  
1810.000000	0.000222  
1809.000000	0.000155  
1808.000000	0.000101  
1807.000000	0.000039  
1806.000000	-0.000019 
1805.000000	-0.000014 
1804.000000	0.000070  
1803.000000	0.000177  
1802.000000	0.000262  
1801.000000	0.000354  
1800.000000	0.000453  
1799.000000	0.000472  
1798.000000	0.000401  
1797.000000	0.000354  
1796.000000	0.000400  
1795.000000	0.000473  
1794.000000	0.000464  
1793.000000	0.000416  
1792.000000	0.000463  
1791.000000	0.000567  
1790.000000	0.000619  
1789.000000	0.000633  
1788.000000	0.000645  
1787.000000	0.000655  
1786.000000	0.000676  
1785.000000	0.000766  
1784.000000	0.000942  
1783.000000	0.001126  
1782.000000	0.001219  
1781.000000	0.001214  
1780.000000	0.001196  
1779.000000	0.001206  
1778.000000	0.001238  
1777.000000	0.001301  
1776.000000	0.001387  
1775.000000	0.001444  
1774.000000	0.001405  
1773.000000	0.001367  
1772.000000	0.001515  
1771.000000	0.001759  
1770.000000	0.001942  
1769.000000	0.002137  
1768.000000	0.002411  
1767.000000	0.002678  
1766.000000	0.002850  
1765.000000	0.002973  
1764.000000	0.003131  
1763.000000	0.003331  
1762.000000	0.003544  
1761.000000	0.003816  
1760.000000	0.004214  
1759.000000	0.004715  
1758.000000	0.005306  
1757.000000	0.006058  
1756.000000	0.006967  
1755.000000	0.007892  
1754.000000	0.008821  
1753.000000	0.010033  
1752.000000	0.011967  
1751.000000	0.014850  
1750.000000	0.018684  
1749.000000	0.023642  
1748.000000	0.029583  
1747.000000	0.035776  
1746.000000	0.041931  
1745.000000	0.048452  
1744.000000	0.055212  
1743.000000	0.061015  
1742.000000	0.064797  
1741.000000	0.066353  
1740.000000	0.065614  
1739.000000	0.062918  
1738.000000	0.059501  
1737.000000	0.055988  
1736.000000	0.051657  
1735.000000	0.044865  
1734.000000	0.036537  
1733.000000	0.030434  
1732.000000	0.027043  
1731.000000	0.024559  
1730.000000	0.022324  
1729.000000	0.020348  
1728.000000	0.018746  
1727.000000	0.017455  
1726.000000	0.016393  
1725.000000	0.015449  
1724.000000	0.014522  
1723.000000	0.013640  
1722.000000	0.012933  
1721.000000	0.012380  
1720.000000	0.011775  
1719.000000	0.010841  
1718.000000	0.009634  
1717.000000	0.008672  
1716.000000	0.008105  
1715.000000	0.007676  
1714.000000	0.007294  
1713.000000	0.006931  
1712.000000	0.006530  
1711.000000	0.006079  
1710.000000	0.005649  
1709.000000	0.005310  
1708.000000	0.005040  
1707.000000	0.004753  
1706.000000	0.004451  
1705.000000	0.004234  
1704.000000	0.004130  
1703.000000	0.004107  
1702.000000	0.004133  
1701.000000	0.004088  
1700.000000	0.003818  
1699.000000	0.003477  
1698.000000	0.003338  
1697.000000	0.003398  
1696.000000	0.003442  
1695.000000	0.003336  
1694.000000	0.003243  
1693.000000	0.003262  
1692.000000	0.003285  
1691.000000	0.003247  
1690.000000	0.003192  
1689.000000	0.003189  
1688.000000	0.003225  
1687.000000	0.003279  
1686.000000	0.003332  
1685.000000	0.003393  
1684.000000	0.003430  
1683.000000	0.003391  
1682.000000	0.003403  
1681.000000	0.003496  
1680.000000	0.003563  
1679.000000	0.003579  
1678.000000	0.003603  
1677.000000	0.003659  
1676.000000	0.003711  
1675.000000	0.003745  
1674.000000	0.003795  
1673.000000	0.003867  
1672.000000	0.003894  
1671.000000	0.003870  
1670.000000	0.003996  
1669.000000	0.004339  
1668.000000	0.004664  
1667.000000	0.004880  
1666.000000	0.005064  
1665.000000	0.005267  
1664.000000	0.005495  
1663.000000	0.005762  
1662.000000	0.006063  
1661.000000	0.006335  
1660.000000	0.006566  
1659.000000	0.006767  
1658.000000	0.006997  
1657.000000	0.007214  
1656.000000	0.007394  
1655.000000	0.007386  
1654.000000	0.007334  
1653.000000	0.007599  
1652.000000	0.007842  
1651.000000	0.008016  
1650.000000	0.008266  
1649.000000	0.008468  
1648.000000	0.008552  
1647.000000	0.008627  
1646.000000	0.008774  
1645.000000	0.008914  
1644.000000	0.009028  
1643.000000	0.009116  
1642.000000	0.009188  
1641.000000	0.009290  
1640.000000	0.009406  
1639.000000	0.009490  
1638.000000	0.009524  
1637.000000	0.009584  
1636.000000	0.009699  
1635.000000	0.009677  
1634.000000	0.009520  
1633.000000	0.009449  
1632.000000	0.009449  
1631.000000	0.009405  
1630.000000	0.009281  
1629.000000	0.009094  
1628.000000	0.008879  
1627.000000	0.008646  
1626.000000	0.008411  
1625.000000	0.008175  
1624.000000	0.007932  
1623.000000	0.007718  
1622.000000	0.007559  
1621.000000	0.007421  
1620.000000	0.007240  
1619.000000	0.006935  
1618.000000	0.006499  
1617.000000	0.006131  
1616.000000	0.006004  
1615.000000	0.006014  
1614.000000	0.006029  
1613.000000	0.005996  
1612.000000	0.005880  
1611.000000	0.005712  
1610.000000	0.005558  
1609.000000	0.005450  
1608.000000	0.005369  
1607.000000	0.005306  
1606.000000	0.005260  
1605.000000	0.005201  
1604.000000	0.005101  
1603.000000	0.004980  
1602.000000	0.004892  
1601.000000	0.004836  
1600.000000	0.004760  
1599.000000	0.004643  
1598.000000	0.004534  
1597.000000	0.004494  
1596.000000	0.004544  
1595.000000	0.004678  
1594.000000	0.004872  
1593.000000	0.005073  
1592.000000	0.005226  
1591.000000	0.005343  
1590.000000	0.005477  
1589.000000	0.005648  
1588.000000	0.005816  
1587.000000	0.005961  
1586.000000	0.006124  
1585.000000	0.006326  
1584.000000	0.006539  
1583.000000	0.006738  
1582.000000	0.006921  
1581.000000	0.007088  
1580.000000	0.007202  
1579.000000	0.007232  
1578.000000	0.007189  
1577.000000	0.007219  
1576.000000	0.007446  
1575.000000	0.007723  
1574.000000	0.007937  
1573.000000	0.008108  
1572.000000	0.008217  
1571.000000	0.008243  
1570.000000	0.008285  
1569.000000	0.008409  
1568.000000	0.008508  
1567.000000	0.008522  
1566.000000	0.008494  
1565.000000	0.008473  
1564.000000	0.008465  
1563.000000	0.008456  
1562.000000	0.008460  
1561.000000	0.008528  
1560.000000	0.008437  
1559.000000	0.007822  
1558.000000	0.007054  
1557.000000	0.006605  
1556.000000	0.006397  
1555.000000	0.006259  
1554.000000	0.006109  
1553.000000	0.006020  
1552.000000	0.005963  
1551.000000	0.005853  
1550.000000	0.005673  
1549.000000	0.005504  
1548.000000	0.005361  
1547.000000	0.005191  
1546.000000	0.004952  
1545.000000	0.004713  
1544.000000	0.004506  
1543.000000	0.004270  
1542.000000	0.003910  
1541.000000	0.003792  
1540.000000	0.004225  
1539.000000	0.004527  
1538.000000	0.004501  
1537.000000	0.004515  
1536.000000	0.004560  
1535.000000	0.004524  
1534.000000	0.004441  
1533.000000	0.004465  
1532.000000	0.004539  
1531.000000	0.004524  
1530.000000	0.004416  
1529.000000	0.004255  
1528.000000	0.004089  
1527.000000	0.003970  
1526.000000	0.003961  
1525.000000	0.004066  
1524.000000	0.004183  
1523.000000	0.004188  
1522.000000	0.004190  
1521.000000	0.004362  
1520.000000	0.004548  
1519.000000	0.004621  
1518.000000	0.004640  
1517.000000	0.004699  
1516.000000	0.004784  
1515.000000	0.004817  
1514.000000	0.004874  
1513.000000	0.005028  
1512.000000	0.005238  
1511.000000	0.005391  
1510.000000	0.005488  
1509.000000	0.005611  
1508.000000	0.005845  
1507.000000	0.006159  
1506.000000	0.006284  
1505.000000	0.006307  
1504.000000	0.006472  
1503.000000	0.006707  
1502.000000	0.006950  
1501.000000	0.007223  
1500.000000	0.007470  
1499.000000	0.007589  
1498.000000	0.007661  
1497.000000	0.007959  
1496.000000	0.008409  
1495.000000	0.008701  
1494.000000	0.008849  
1493.000000	0.008978  
1492.000000	0.009077  
1491.000000	0.009163  
1490.000000	0.009534  
1489.000000	0.010315  
1488.000000	0.011057  
1487.000000	0.011507  
1486.000000	0.011895  
1485.000000	0.012411  
1484.000000	0.013040  
1483.000000	0.013775  
1482.000000	0.014766  
1481.000000	0.016063  
1480.000000	0.017426  
1479.000000	0.018689  
1478.000000	0.020072  
1477.000000	0.021819  
1476.000000	0.023822  
1475.000000	0.026061  
1474.000000	0.029703  
1473.000000	0.036331  
1472.000000	0.044473  
1471.000000	0.051335  
1470.000000	0.056948  
1469.000000	0.062161  
1468.000000	0.066961  
1467.000000	0.071114  
1466.000000	0.074612  
1465.000000	0.077429  
1464.000000	0.079186  
1463.000000	0.079975  
1462.000000	0.080387  
1461.000000	0.080720  
1460.000000	0.080981  
1459.000000	0.081235  
1458.000000	0.081817  
1457.000000	0.081967  
1456.000000	0.080446  
1455.000000	0.078005  
1454.000000	0.075481  
1453.000000	0.072806  
1452.000000	0.070020  
1451.000000	0.067390  
1450.000000	0.065049  
1449.000000	0.062699  
1448.000000	0.060090  
1447.000000	0.057389  
1446.000000	0.054768  
1445.000000	0.052106  
1444.000000	0.049325  
1443.000000	0.046581  
1442.000000	0.044070  
1441.000000	0.041837  
1440.000000	0.039840  
1439.000000	0.038002  
1438.000000	0.036108  
1437.000000	0.033952  
1436.000000	0.031841  
1435.000000	0.030224  
1434.000000	0.028934  
1433.000000	0.027577  
1432.000000	0.026037  
1431.000000	0.024463  
1430.000000	0.023007  
1429.000000	0.021738  
1428.000000	0.020751  
1427.000000	0.020091  
1426.000000	0.019639  
1425.000000	0.019246  
1424.000000	0.018944  
1423.000000	0.018805  
1422.000000	0.018717  
1421.000000	0.018501  
1420.000000	0.018125  
1419.000000	0.017709  
1418.000000	0.017298  
1417.000000	0.016845  
1416.000000	0.016393  
1415.000000	0.015994  
1414.000000	0.015608  
1413.000000	0.015191  
1412.000000	0.014813  
1411.000000	0.014603  
1410.000000	0.014552  
1409.000000	0.014556  
1408.000000	0.014584  
1407.000000	0.014685  
1406.000000	0.014872  
1405.000000	0.015109  
1404.000000	0.015384  
1403.000000	0.015677  
1402.000000	0.015940  
1401.000000	0.016168  
1400.000000	0.016469  
1399.000000	0.016922  
1398.000000	0.017384  
1397.000000	0.017697  
1396.000000	0.017915  
1395.000000	0.018175  
1394.000000	0.018465  
1393.000000	0.018726  
1392.000000	0.019009  
1391.000000	0.019369  
1390.000000	0.019843  
1389.000000	0.020570  
1388.000000	0.021822  
1387.000000	0.023637  
1386.000000	0.025636  
1385.000000	0.027577  
1384.000000	0.029648  
1383.000000	0.032109  
1382.000000	0.035036  
1381.000000	0.038304  
1380.000000	0.041576  
1379.000000	0.044237  
1378.000000	0.045650  
1377.000000	0.045571  
1376.000000	0.044079  
1375.000000	0.041338  
1374.000000	0.037907  
1373.000000	0.034725  
1372.000000	0.032323  
1371.000000	0.030650  
1370.000000	0.029546  
1369.000000	0.028921  
1368.000000	0.028635  
1367.000000	0.028421  
1366.000000	0.028029  
1365.000000	0.027314  
1364.000000	0.026236  
1363.000000	0.024928  
1362.000000	0.023706  
1361.000000	0.022799  
1360.000000	0.022201  
1359.000000	0.021821  
1358.000000	0.021579  
1357.000000	0.021416  
1356.000000	0.021305  
1355.000000	0.021242  
1354.000000	0.021221  
1353.000000	0.021211  
1352.000000	0.021171  
1351.000000	0.021074  
1350.000000	0.020911  
1349.000000	0.020686  
1348.000000	0.020428  
1347.000000	0.020153  
1346.000000	0.019847  
1345.000000	0.019506  
1344.000000	0.019174  
1343.000000	0.018897  
1342.000000	0.018653  
1341.000000	0.018354  
1340.000000	0.017948  
1339.000000	0.017480  
1338.000000	0.017027  
1337.000000	0.016613  
1336.000000	0.016239  
1335.000000	0.015911  
1334.000000	0.015618  
1333.000000	0.015346  
1332.000000	0.015122  
1331.000000	0.014994  
1330.000000	0.014961  
1329.000000	0.014965  
1328.000000	0.014970  
1327.000000	0.015006  
1326.000000	0.015106  
1325.000000	0.015260  
1324.000000	0.015436  
1323.000000	0.015618  
1322.000000	0.015788  
1321.000000	0.015922  
1320.000000	0.016010  
1319.000000	0.016083  
1318.000000	0.016182  
1317.000000	0.016327  
1316.000000	0.016524  
1315.000000	0.016766  
1314.000000	0.017014  
1313.000000	0.017216  
1312.000000	0.017360  
1311.000000	0.017479  
1310.000000	0.017606  
1309.000000	0.017746  
1308.000000	0.017885  
1307.000000	0.018010  
1306.000000	0.018099  
1305.000000	0.018131  
1304.000000	0.018118  
1303.000000	0.018085  
1302.000000	0.018030  
1301.000000	0.017915  
1300.000000	0.017719  
1299.000000	0.017472  
1298.000000	0.017223  
1297.000000	0.016988  
1296.000000	0.016748  
1295.000000	0.016485  
1294.000000	0.016205  
1293.000000	0.015944  
1292.000000	0.015749  
1291.000000	0.015649  
1290.000000	0.015629  
1289.000000	0.015663  
1288.000000	0.015748  
1287.000000	0.015903  
1286.000000	0.016134  
1285.000000	0.016429  
1284.000000	0.016771  
1283.000000	0.017121  
1282.000000	0.017424  
1281.000000	0.017660  
1280.000000	0.017873  
1279.000000	0.018117  
1278.000000	0.018379  
1277.000000	0.018610  
1276.000000	0.018809  
1275.000000	0.019017  
1274.000000	0.019252  
1273.000000	0.019487  
1272.000000	0.019707  
1271.000000	0.019921  
1270.000000	0.020113  
1269.000000	0.020241  
1268.000000	0.020306  
1267.000000	0.020383  
1266.000000	0.020532  
1265.000000	0.020724  
1264.000000	0.020883  
1263.000000	0.020994  
1262.000000	0.021111  
1261.000000	0.021285  
1260.000000	0.021485  
1259.000000	0.021627  
1258.000000	0.021654  
1257.000000	0.021599  
1256.000000	0.021568  
1255.000000	0.021656  
1254.000000	0.021874  
1253.000000	0.022161  
1252.000000	0.022468  
1251.000000	0.022804  
1250.000000	0.023198  
1249.000000	0.023646  
1248.000000	0.024108  
1247.000000	0.024545  
1246.000000	0.024934  
1245.000000	0.025259  
1244.000000	0.025501  
1243.000000	0.025626  
1242.000000	0.025607  
1241.000000	0.025441  
1240.000000	0.025166  
1239.000000	0.024831  
1238.000000	0.024459  
1237.000000	0.024046  
1236.000000	0.023593  
1235.000000	0.023123  
1234.000000	0.022656  
1233.000000	0.022203  
1232.000000	0.021786  
1231.000000	0.021439  
1230.000000	0.021152  
1229.000000	0.020868  
1228.000000	0.020540  
1227.000000	0.020189  
1226.000000	0.019871  
1225.000000	0.019617  
1224.000000	0.019420  
1223.000000	0.019269  
1222.000000	0.019157  
1221.000000	0.019084  
1220.000000	0.019070  
1219.000000	0.019135  
1218.000000	0.019256  
1217.000000	0.019368  
1216.000000	0.019437  
1215.000000	0.019507  
1214.000000	0.019641  
1213.000000	0.019842  
1212.000000	0.020057  
1211.000000	0.020256  
1210.000000	0.020455  
1209.000000	0.020683  
1208.000000	0.020946  
1207.000000	0.021241  
1206.000000	0.021560  
1205.000000	0.021895  
1204.000000	0.022237  
1203.000000	0.022604  
1202.000000	0.023028  
1201.000000	0.023521  
1200.000000	0.024056  
1199.000000	0.024601  
1198.000000	0.025155  
1197.000000	0.025750  
1196.000000	0.026419  
1195.000000	0.027163  
1194.000000	0.027965  
1193.000000	0.028802  
1192.000000	0.029657  
1191.000000	0.030518  
1190.000000	0.031385  
1189.000000	0.032275  
1188.000000	0.033196  
1187.000000	0.034134  
1186.000000	0.035059  
1185.000000	0.035963  
1184.000000	0.036862  
1183.000000	0.037759  
1182.000000	0.038631  
1181.000000	0.039446  
1180.000000	0.040184  
1179.000000	0.040834  
1178.000000	0.041381  
1177.000000	0.041798  
1176.000000	0.042048  
1175.000000	0.042124  
1174.000000	0.042056  
1173.000000	0.041884  
1172.000000	0.041617  
1171.000000	0.041245  
1170.000000	0.040775  
1169.000000	0.040242  
1168.000000	0.039680  
1167.000000	0.039077  
1166.000000	0.038374  
1165.000000	0.037509  
1164.000000	0.036477  
1163.000000	0.035332  
1162.000000	0.034142  
1161.000000	0.032955  
1160.000000	0.031799  
1159.000000	0.030709  
1158.000000	0.029696  
1157.000000	0.028736  
1156.000000	0.027819  
1155.000000	0.026994  
1154.000000	0.026313  
1153.000000	0.025739  
1152.000000	0.025154  
1151.000000	0.024480  
1150.000000	0.023747  
1149.000000	0.023037  
1148.000000	0.022403  
1147.000000	0.021848  
1146.000000	0.021340  
1145.000000	0.020834  
1144.000000	0.020295  
1143.000000	0.019727  
1142.000000	0.019167  
1141.000000	0.018646  
1140.000000	0.018172  
1139.000000	0.017733  
1138.000000	0.017316  
1137.000000	0.016907  
1136.000000	0.016504  
1135.000000	0.016137  
1134.000000	0.015857  
1133.000000	0.015689  
1132.000000	0.015606  
1131.000000	0.015562  
1130.000000	0.015552  
1129.000000	0.015633  
1128.000000	0.015879  
1127.000000	0.016313  
1126.000000	0.016892  
1125.000000	0.017543  
1124.000000	0.018222  
1123.000000	0.018899  
1122.000000	0.019532  
1121.000000	0.020069  
1120.000000	0.020475  
1119.000000	0.020749  
1118.000000	0.020896  
1117.000000	0.020893  
1116.000000	0.020715  
1115.000000	0.020382  
1114.000000	0.019970  
1113.000000	0.019580  
1112.000000	0.019266  
1111.000000	0.019010  
1110.000000	0.018759  
1109.000000	0.018499  
1108.000000	0.018280  
1107.000000	0.018164  
1106.000000	0.018154  
1105.000000	0.018191  
1104.000000	0.018236  
1103.000000	0.018300  
1102.000000	0.018398  
1101.000000	0.018500  
1100.000000	0.018541  
1099.000000	0.018485  
1098.000000	0.018358  
1097.000000	0.018225  
1096.000000	0.018139  
1095.000000	0.018093  
1094.000000	0.018040  
1093.000000	0.017963  
1092.000000	0.017912  
1091.000000	0.017942  
1090.000000	0.018021  
1089.000000	0.018052  
1088.000000	0.017985  
1087.000000	0.017883  
1086.000000	0.017844  
1085.000000	0.017920  
1084.000000	0.018105  
1083.000000	0.018379  
1082.000000	0.018700  
1081.000000	0.019003  
1080.000000	0.019255  
1079.000000	0.019500  
1078.000000	0.019825  
1077.000000	0.020281  
1076.000000	0.020855  
1075.000000	0.021493  
1074.000000	0.022109  
1073.000000	0.022607  
1072.000000	0.022944  
1071.000000	0.023172  
1070.000000	0.023384  
1069.000000	0.023609  
1068.000000	0.023818  
1067.000000	0.024013  
1066.000000	0.024255  
1065.000000	0.024562  
1064.000000	0.024833  
1063.000000	0.024918  
1062.000000	0.024749  
1061.000000	0.024373  
1060.000000	0.023880  
1059.000000	0.023341  
1058.000000	0.022821  
1057.000000	0.022387  
1056.000000	0.022084  
1055.000000	0.021905  
1054.000000	0.021813  
1053.000000	0.021776  
1052.000000	0.021797  
1051.000000	0.021891  
1050.000000	0.022042  
1049.000000	0.022203  
1048.000000	0.022329  
1047.000000	0.022419  
1046.000000	0.022502  
1045.000000	0.022598  
1044.000000	0.022698  
1043.000000	0.022773  
1042.000000	0.022805  
1041.000000	0.022803  
1040.000000	0.022783  
1039.000000	0.022736  
1038.000000	0.022612  
1037.000000	0.022380  
1036.000000	0.022092  
1035.000000	0.021864  
1034.000000	0.021781  
1033.000000	0.021813  
1032.000000	0.021845  
1031.000000	0.021776  
1030.000000	0.021562  
1029.000000	0.021215  
1028.000000	0.020774  
1027.000000	0.020303  
1026.000000	0.019848  
1025.000000	0.019410  
1024.000000	0.018959  
1023.000000	0.018474  
1022.000000	0.017964  
1021.000000	0.017445  
1020.000000	0.016933  
1019.000000	0.016464  
1018.000000	0.016092  
1017.000000	0.015841  
1016.000000	0.015689  
1015.000000	0.015590  
1014.000000	0.015505  
1013.000000	0.015412  
1012.000000	0.015298  
1011.000000	0.015147  
1010.000000	0.014945  
1009.000000	0.014691  
1008.000000	0.014415  
1007.000000	0.014165  
1006.000000	0.013955  
1005.000000	0.013752  
1004.000000	0.013532  
1003.000000	0.013316  
1002.000000	0.013150  
1001.000000	0.013038  
1000.000000	0.012961  
999.000000	 0.012924  
998.000000	 0.012957  
997.000000	 0.013049  
996.000000	 0.013135  
995.000000	 0.013160  
994.000000	 0.013123  
993.000000	 0.013043  
992.000000	 0.012920  
991.000000	 0.012760  
990.000000	 0.012602  
989.000000	 0.012492  
988.000000	 0.012414  
987.000000	 0.012308  
986.000000	 0.012141  
985.000000	 0.011948  
984.000000	 0.011788  
983.000000	 0.011702  
982.000000	 0.011714  
981.000000	 0.011844  
980.000000	 0.012095  
979.000000	 0.012419  
978.000000	 0.012736  
977.000000	 0.012995  
976.000000	 0.013204  
975.000000	 0.013417  
974.000000	 0.013672  
973.000000	 0.013957  
972.000000	 0.014213  
971.000000	 0.014384  
970.000000	 0.014453  
969.000000	 0.014449  
968.000000	 0.014414  
967.000000	 0.014378  
966.000000	 0.014347  
965.000000	 0.014306  
964.000000	 0.014211  
963.000000	 0.014031  
962.000000	 0.013792  
961.000000	 0.013584  
960.000000	 0.013477  
959.000000	 0.013450  
958.000000	 0.013422  
957.000000	 0.013357  
956.000000	 0.013307  
955.000000	 0.013340  
954.000000	 0.013449  
953.000000	 0.013553  
952.000000	 0.013584  
951.000000	 0.013533  
950.000000	 0.013439  
949.000000	 0.013343  
948.000000	 0.013266  
947.000000	 0.013196  
946.000000	 0.013093  
945.000000	 0.012928  
944.000000	 0.012719  
943.000000	 0.012517  
942.000000	 0.012349  
941.000000	 0.012182  
940.000000	 0.011954  
939.000000	 0.011645  
938.000000	 0.011303  
937.000000	 0.011003  
936.000000	 0.010782  
935.000000	 0.010617  
934.000000	 0.010462  
933.000000	 0.010310  
932.000000	 0.010189  
931.000000	 0.010111  
930.000000	 0.010043  
929.000000	 0.009974  
928.000000	 0.009957  
927.000000	 0.010055  
926.000000	 0.010233  
925.000000	 0.010372  
924.000000	 0.010408  
923.000000	 0.010415  
922.000000	 0.010515  
921.000000	 0.010740  
920.000000	 0.011005  
919.000000	 0.011191  
918.000000	 0.011221  
917.000000	 0.011092  
916.000000	 0.010876  
915.000000	 0.010684  
914.000000	 0.010586  
913.000000	 0.010548  
912.000000	 0.010475  
911.000000	 0.010318  
910.000000	 0.010112  
909.000000	 0.009917  
908.000000	 0.009750  
907.000000	 0.009609  
906.000000	 0.009497  
905.000000	 0.009422  
904.000000	 0.009367  
903.000000	 0.009316  
902.000000	 0.009290  
901.000000	 0.009325  
900.000000	 0.009409  
899.000000	 0.009474  
898.000000	 0.009475  
897.000000	 0.009435  
896.000000	 0.009417  
895.000000	 0.009442  
894.000000	 0.009477  
893.000000	 0.009491  
892.000000	 0.009491  
891.000000	 0.009501  
890.000000	 0.009533  
889.000000	 0.009575  
888.000000	 0.009598  
887.000000	 0.009562  
886.000000	 0.009449  
885.000000	 0.009308  
884.000000	 0.009259  
883.000000	 0.009399  
882.000000	 0.009683  
881.000000	 0.009932  
880.000000	 0.009984  
879.000000	 0.009842  
878.000000	 0.009667  
877.000000	 0.009625  
876.000000	 0.009743  
875.000000	 0.009932  
874.000000	 0.010103  
873.000000	 0.010224  
872.000000	 0.010282  
871.000000	 0.010255  
870.000000	 0.010144  
869.000000	 0.010025  
868.000000	 0.009990  
867.000000	 0.010048  
866.000000	 0.010119  
865.000000	 0.010138  
864.000000	 0.010131  
863.000000	 0.010157  
862.000000	 0.010219  
861.000000	 0.010273  
860.000000	 0.010310  
859.000000	 0.010385  
858.000000	 0.010549  
857.000000	 0.010795  
856.000000	 0.011061  
855.000000	 0.011282  
854.000000	 0.011441  
853.000000	 0.011590  
852.000000	 0.011819  
851.000000	 0.012184  
850.000000	 0.012645  
849.000000	 0.013108  
848.000000	 0.013502  
847.000000	 0.013802  
846.000000	 0.013982  
845.000000	 0.014001  
844.000000	 0.013868  
843.000000	 0.013671  
842.000000	 0.013497  
841.000000	 0.013338  
840.000000	 0.013113  
839.000000	 0.012786  
838.000000	 0.012425  
837.000000	 0.012127  
836.000000	 0.011917  
835.000000	 0.011732  
834.000000	 0.011505  
833.000000	 0.011230  
832.000000	 0.010959  
831.000000	 0.010759  
830.000000	 0.010660  
829.000000	 0.010637  
828.000000	 0.010642  
827.000000	 0.010656  
826.000000	 0.010691  
825.000000	 0.010757  
824.000000	 0.010833  
823.000000	 0.010895  
822.000000	 0.010937  
821.000000	 0.010962  
820.000000	 0.010968  
819.000000	 0.010977  
818.000000	 0.011034  
817.000000	 0.011163  
816.000000	 0.011316  
815.000000	 0.011409  
814.000000	 0.011415  
813.000000	 0.011381  
812.000000	 0.011361  
811.000000	 0.011365  
810.000000	 0.011388  
809.000000	 0.011473  
808.000000	 0.011673  
807.000000	 0.011982  
806.000000	 0.012303  
805.000000	 0.012511  
804.000000	 0.012513  
803.000000	 0.012281  
802.000000	 0.011864  
801.000000	 0.011373  
800.000000	 0.010920  
799.000000	 0.010576  
798.000000	 0.010370  
797.000000	 0.010311  
796.000000	 0.010350  
795.000000	 0.010369  
794.000000	 0.010267  
793.000000	 0.010081  
792.000000	 0.009964  
791.000000	 0.010016  
790.000000	 0.010203  
789.000000	 0.010457  
788.000000	 0.010772  
787.000000	 0.011155  
786.000000	 0.011542  
785.000000	 0.011855  
784.000000	 0.012121  
783.000000	 0.012435  
782.000000	 0.012829  
781.000000	 0.013232  
780.000000	 0.013559  
779.000000	 0.013767  
778.000000	 0.013858  
777.000000	 0.013884  
776.000000	 0.013983  
775.000000	 0.014284  
774.000000	 0.014762  
773.000000	 0.015241  
772.000000	 0.015596  
771.000000	 0.015890  
770.000000	 0.016245  
769.000000	 0.016649  
768.000000	 0.016981  
767.000000	 0.017189  
766.000000	 0.017348  
765.000000	 0.017514  
764.000000	 0.017621  
763.000000	 0.017569  
762.000000	 0.017377  
761.000000	 0.017182  
760.000000	 0.017109  
759.000000	 0.017190  
758.000000	 0.017399  
757.000000	 0.017719  
756.000000	 0.018135  
755.000000	 0.018591  
754.000000	 0.018993  
753.000000	 0.019290  
752.000000	 0.019528  
751.000000	 0.019835  
750.000000	 0.020311  
749.000000	 0.020943  
748.000000	 0.021631  
747.000000	 0.022331  
746.000000	 0.023144  
745.000000	 0.024229  
744.000000	 0.025610  
743.000000	 0.027099  
742.000000	 0.028438  
741.000000	 0.029499  
740.000000	 0.030313  
739.000000	 0.030952  
738.000000	 0.031444  
737.000000	 0.031805  
736.000000	 0.032086  
735.000000	 0.032337  
734.000000	 0.032566  
733.000000	 0.032787  
732.000000	 0.033100  
731.000000	 0.033658  
730.000000	 0.034518  
729.000000	 0.035577  
728.000000	 0.036686  
727.000000	 0.037807  
726.000000	 0.038994  
725.000000	 0.040234  
724.000000	 0.041347  
723.000000	 0.042037  
722.000000	 0.042029  
721.000000	 0.041212  
720.000000	 0.039751  
719.000000	 0.038021  
718.000000	 0.036349  
717.000000	 0.034850  
716.000000	 0.033492  
715.000000	 0.032237  
714.000000	 0.031097  
713.000000	 0.030095  
712.000000	 0.029226  
711.000000	 0.028451  
710.000000	 0.027750  
709.000000	 0.027157  
708.000000	 0.026744  
707.000000	 0.026532  
706.000000	 0.026432  
705.000000	 0.026349  
704.000000	 0.026326  
703.000000	 0.026478  
702.000000	 0.026799  
701.000000	 0.027106  
700.000000	 0.027187  
699.000000	 0.026937  
698.000000	 0.026329  
697.000000	 0.025375  
696.000000	 0.024210  
695.000000	 0.023090  
694.000000	 0.022231  
693.000000	 0.021648  
692.000000	 0.021202  
691.000000	 0.020804  
690.000000	 0.020466  
689.000000	 0.020209  
688.000000	 0.019997  
687.000000	 0.019758  
686.000000	 0.019443  
685.000000	 0.019060  
684.000000	 0.018686  
683.000000	 0.018411  
682.000000	 0.018226  
681.000000	 0.018006  
680.000000	 0.017658  
679.000000	 0.017265  
678.000000	 0.016977  
677.000000	 0.016800  
676.000000	 0.016648  
675.000000	 0.016424  
674.000000	 0.016084  
673.000000	 0.015695  
672.000000	 0.015479  
671.000000	 0.015776  
670.000000	 0.016879  
669.000000	 0.018566  
668.000000	 0.019100  
667.000000	 0.017193  
666.000000	 0.014915  
665.000000	 0.013628  
664.000000	 0.013154  
663.000000	 0.013118  
662.000000	 0.013220  
661.000000	 0.013213  
660.000000	 0.013016  
659.000000	 0.012751  
658.000000	 0.012632  
657.000000	 0.012721  
656.000000	 0.012900  
655.000000	 0.012940  
654.000000	 0.012686  
653.000000	 0.012212  
652.000000	 0.011754  
651.000000	 0.011482  
650.000000	 0.011362  

