PE IR                   SPECTRUM    ASCII       PEDS        1.60        
  -1
NB411~1.ASC
17/05/24
07:44:55.00
17/05/24
07:44:55.00
Admin

650.000000
4









SPECTRUM ONE,CPU32 MAIN 00.02.6000 25-JUNE-2003 12:00:00
MIR TGS
MIR
OPTKBR
68128
0.200000

4.000000
STRONG
RATIO
SPECTRUM
MAGNITUDE
UNIVERSAL ATR
DOUBLE

COMBINED


0


#HDR
-1
-1
#GR
CM-1
A
0.00000011920928955078
0.0
4000.000000
-1.000000
3351
8
0.200289
-0.000857
#DATA
4000.000000	0.002846  
3999.000000	0.002779  
3998.000000	0.002772  
3997.000000	0.002752  
3996.000000	0.002709  
3995.000000	0.002637  
3994.000000	0.002555  
3993.000000	0.002491  
3992.000000	0.002461  
3991.000000	0.002477  
3990.000000	0.002547  
3989.000000	0.002662  
3988.000000	0.002786  
3987.000000	0.002873  
3986.000000	0.002896  
3985.000000	0.002866  
3984.000000	0.002813  
3983.000000	0.002758  
3982.000000	0.002700  
3981.000000	0.002626  
3980.000000	0.002522  
3979.000000	0.002397  
3978.000000	0.002292  
3977.000000	0.002258  
3976.000000	0.002325  
3975.000000	0.002468  
3974.000000	0.002619  
3973.000000	0.002725  
3972.000000	0.002780  
3971.000000	0.002818  
3970.000000	0.002864  
3969.000000	0.002917  
3968.000000	0.002953  
3967.000000	0.002963  
3966.000000	0.002960  
3965.000000	0.002966  
3964.000000	0.002973  
3963.000000	0.002954  
3962.000000	0.002891  
3961.000000	0.002794  
3960.000000	0.002679  
3959.000000	0.002547  
3958.000000	0.002399  
3957.000000	0.002266  
3956.000000	0.002198  
3955.000000	0.002227  
3954.000000	0.002327  
3953.000000	0.002434  
3952.000000	0.002488  
3951.000000	0.002467  
3950.000000	0.002394  
3949.000000	0.002311  
3948.000000	0.002261  
3947.000000	0.002262  
3946.000000	0.002302  
3945.000000	0.002356  
3944.000000	0.002392  
3943.000000	0.002396  
3942.000000	0.002387  
3941.000000	0.002396  
3940.000000	0.002432  
3939.000000	0.002479  
3938.000000	0.002518  
3937.000000	0.002549  
3936.000000	0.002582  
3935.000000	0.002620  
3934.000000	0.002649  
3933.000000	0.002656  
3932.000000	0.002659  
3931.000000	0.002684  
3930.000000	0.002727  
3929.000000	0.002754  
3928.000000	0.002733  
3927.000000	0.002659  
3926.000000	0.002552  
3925.000000	0.002440  
3924.000000	0.002338  
3923.000000	0.002255  
3922.000000	0.002218  
3921.000000	0.002265  
3920.000000	0.002405  
3919.000000	0.002577  
3918.000000	0.002677  
3917.000000	0.002660  
3916.000000	0.002594  
3915.000000	0.002583  
3914.000000	0.002674  
3913.000000	0.002838  
3912.000000	0.003005  
3911.000000	0.003102  
3910.000000	0.003085  
3909.000000	0.002942  
3908.000000	0.002704  
3907.000000	0.002457  
3906.000000	0.002327  
3905.000000	0.002382  
3904.000000	0.002507  
3903.000000	0.002473  
3902.000000	0.002199  
3901.000000	0.001860  
3900.000000	0.001715  
3899.000000	0.001857  
3898.000000	0.002157  
3897.000000	0.002429  
3896.000000	0.002571  
3895.000000	0.002581  
3894.000000	0.002519  
3893.000000	0.002460  
3892.000000	0.002433  
3891.000000	0.002421  
3890.000000	0.002401  
3889.000000	0.002380  
3888.000000	0.002391  
3887.000000	0.002473  
3886.000000	0.002610  
3885.000000	0.002735  
3884.000000	0.002798  
3883.000000	0.002793  
3882.000000	0.002742  
3881.000000	0.002665  
3880.000000	0.002580  
3879.000000	0.002500  
3878.000000	0.002423  
3877.000000	0.002335  
3876.000000	0.002241  
3875.000000	0.002163  
3874.000000	0.002113  
3873.000000	0.002101  
3872.000000	0.002142  
3871.000000	0.002241  
3870.000000	0.002359  
3869.000000	0.002445  
3868.000000	0.002481  
3867.000000	0.002485  
3866.000000	0.002502  
3865.000000	0.002567  
3864.000000	0.002652  
3863.000000	0.002672  
3862.000000	0.002580  
3861.000000	0.002419  
3860.000000	0.002266  
3859.000000	0.002164  
3858.000000	0.002099  
3857.000000	0.002028  
3856.000000	0.001932  
3855.000000	0.001812  
3854.000000	0.001679  
3853.000000	0.001640  
3852.000000	0.001755  
3851.000000	0.001956  
3850.000000	0.002164  
3849.000000	0.002343  
3848.000000	0.002461  
3847.000000	0.002479  
3846.000000	0.002371  
3845.000000	0.002177  
3844.000000	0.002010  
3843.000000	0.001981  
3842.000000	0.002113  
3841.000000	0.002341  
3840.000000	0.002585  
3839.000000	0.002775  
3838.000000	0.002853  
3837.000000	0.002799  
3836.000000	0.002658  
3835.000000	0.002515  
3834.000000	0.002438  
3833.000000	0.002441  
3832.000000	0.002472  
3831.000000	0.002470  
3830.000000	0.002415  
3829.000000	0.002341  
3828.000000	0.002309  
3827.000000	0.002344  
3826.000000	0.002405  
3825.000000	0.002417  
3824.000000	0.002337  
3823.000000	0.002185  
3822.000000	0.002030  
3821.000000	0.001961  
3820.000000	0.002003  
3819.000000	0.002099  
3818.000000	0.002188  
3817.000000	0.002242  
3816.000000	0.002258  
3815.000000	0.002257  
3814.000000	0.002265  
3813.000000	0.002278  
3812.000000	0.002281  
3811.000000	0.002256  
3810.000000	0.002195  
3809.000000	0.002105  
3808.000000	0.002030  
3807.000000	0.002036  
3806.000000	0.002163  
3805.000000	0.002379  
3804.000000	0.002594  
3803.000000	0.002682  
3802.000000	0.002547  
3801.000000	0.002274  
3800.000000	0.002060  
3799.000000	0.002018  
3798.000000	0.002131  
3797.000000	0.002293  
3796.000000	0.002375  
3795.000000	0.002334  
3794.000000	0.002222  
3793.000000	0.002118  
3792.000000	0.002068  
3791.000000	0.002059  
3790.000000	0.002054  
3789.000000	0.002043  
3788.000000	0.002077  
3787.000000	0.002209  
3786.000000	0.002423  
3785.000000	0.002612  
3784.000000	0.002674  
3783.000000	0.002600  
3782.000000	0.002456  
3781.000000	0.002311  
3780.000000	0.002201  
3779.000000	0.002133  
3778.000000	0.002102  
3777.000000	0.002096  
3776.000000	0.002102  
3775.000000	0.002110  
3774.000000	0.002117  
3773.000000	0.002118  
3772.000000	0.002105  
3771.000000	0.002072  
3770.000000	0.002040  
3769.000000	0.002045  
3768.000000	0.002090  
3767.000000	0.002128  
3766.000000	0.002116  
3765.000000	0.002059  
3764.000000	0.002010  
3763.000000	0.002019  
3762.000000	0.002098  
3761.000000	0.002209  
3760.000000	0.002272  
3759.000000	0.002227  
3758.000000	0.002095  
3757.000000	0.001956  
3756.000000	0.001869  
3755.000000	0.001847  
3754.000000	0.001866  
3753.000000	0.001870  
3752.000000	0.001834  
3751.000000	0.001828  
3750.000000	0.001907  
3749.000000	0.002000  
3748.000000	0.001992  
3747.000000	0.001839  
3746.000000	0.001618  
3745.000000	0.001488  
3744.000000	0.001569  
3743.000000	0.001797  
3742.000000	0.001991  
3741.000000	0.002027  
3740.000000	0.001923  
3739.000000	0.001815  
3738.000000	0.001872  
3737.000000	0.002132  
3736.000000	0.002360  
3735.000000	0.002249  
3734.000000	0.001831  
3733.000000	0.001438  
3732.000000	0.001309  
3731.000000	0.001443  
3730.000000	0.001699  
3729.000000	0.001941  
3728.000000	0.002096  
3727.000000	0.002134  
3726.000000	0.002052  
3725.000000	0.001890  
3724.000000	0.001747  
3723.000000	0.001724  
3722.000000	0.001842  
3721.000000	0.002001  
3720.000000	0.002062  
3719.000000	0.001965  
3718.000000	0.001768  
3717.000000	0.001572  
3716.000000	0.001442  
3715.000000	0.001373  
3714.000000	0.001311  
3713.000000	0.001214  
3712.000000	0.001137  
3711.000000	0.001186  
3710.000000	0.001343  
3709.000000	0.001506  
3708.000000	0.001632  
3707.000000	0.001727  
3706.000000	0.001813  
3705.000000	0.001918  
3704.000000	0.002064  
3703.000000	0.002225  
3702.000000	0.002326  
3701.000000	0.002316  
3700.000000	0.002240  
3699.000000	0.002190  
3698.000000	0.002225  
3697.000000	0.002323  
3696.000000	0.002408  
3695.000000	0.002426  
3694.000000	0.002390  
3693.000000	0.002350  
3692.000000	0.002317  
3691.000000	0.002230  
3690.000000	0.002043  
3689.000000	0.001828  
3688.000000	0.001719  
3687.000000	0.001771  
3686.000000	0.001928  
3685.000000	0.002096  
3684.000000	0.002207  
3683.000000	0.002229  
3682.000000	0.002161  
3681.000000	0.002026  
3680.000000	0.001864  
3679.000000	0.001746  
3678.000000	0.001780  
3677.000000	0.002038  
3676.000000	0.002352  
3675.000000	0.002430  
3674.000000	0.002245  
3673.000000	0.001980  
3672.000000	0.001804  
3671.000000	0.001834  
3670.000000	0.002001  
3669.000000	0.002106  
3668.000000	0.002071  
3667.000000	0.001954  
3666.000000	0.001837  
3665.000000	0.001792  
3664.000000	0.001865  
3663.000000	0.002047  
3662.000000	0.002268  
3661.000000	0.002429  
3660.000000	0.002465  
3659.000000	0.002374  
3658.000000	0.002222  
3657.000000	0.002117  
3656.000000	0.002142  
3655.000000	0.002278  
3654.000000	0.002431  
3653.000000	0.002531  
3652.000000	0.002565  
3651.000000	0.002563  
3650.000000	0.002625  
3649.000000	0.002822  
3648.000000	0.003007  
3647.000000	0.003046  
3646.000000	0.002969  
3645.000000	0.002828  
3644.000000	0.002657  
3643.000000	0.002509  
3642.000000	0.002451  
3641.000000	0.002505  
3640.000000	0.002610  
3639.000000	0.002672  
3638.000000	0.002628  
3637.000000	0.002480  
3636.000000	0.002280  
3635.000000	0.002095  
3634.000000	0.001990  
3633.000000	0.002003  
3632.000000	0.002149  
3631.000000	0.002424  
3630.000000	0.002720  
3629.000000	0.002840  
3628.000000	0.002772  
3627.000000	0.002681  
3626.000000	0.002656  
3625.000000	0.002707  
3624.000000	0.002831  
3623.000000	0.003011  
3622.000000	0.003208  
3621.000000	0.003352  
3620.000000	0.003360  
3619.000000	0.003222  
3618.000000	0.003027  
3617.000000	0.002863  
3616.000000	0.002753  
3615.000000	0.002696  
3614.000000	0.002678  
3613.000000	0.002668  
3612.000000	0.002631  
3611.000000	0.002561  
3610.000000	0.002513  
3609.000000	0.002568  
3608.000000	0.002749  
3607.000000	0.002978  
3606.000000	0.003174  
3605.000000	0.003333  
3604.000000	0.003487  
3603.000000	0.003626  
3602.000000	0.003690  
3601.000000	0.003643  
3600.000000	0.003535  
3599.000000	0.003451  
3598.000000	0.003431  
3597.000000	0.003451  
3596.000000	0.003474  
3595.000000	0.003493  
3594.000000	0.003542  
3593.000000	0.003652  
3592.000000	0.003821  
3591.000000	0.003999  
3590.000000	0.004096  
3589.000000	0.004015  
3588.000000	0.003794  
3587.000000	0.003643  
3586.000000	0.003680  
3585.000000	0.003818  
3584.000000	0.003921  
3583.000000	0.003938  
3582.000000	0.003914  
3581.000000	0.003931  
3580.000000	0.004030  
3579.000000	0.004194  
3578.000000	0.004361  
3577.000000	0.004482  
3576.000000	0.004543  
3575.000000	0.004568  
3574.000000	0.004579  
3573.000000	0.004581  
3572.000000	0.004564  
3571.000000	0.004527  
3570.000000	0.004501  
3569.000000	0.004539  
3568.000000	0.004661  
3567.000000	0.004799  
3566.000000	0.004835  
3565.000000	0.004744  
3564.000000	0.004615  
3563.000000	0.004546  
3562.000000	0.004574  
3561.000000	0.004671  
3560.000000	0.004789  
3559.000000	0.004901  
3558.000000	0.004985  
3557.000000	0.005023  
3556.000000	0.005015  
3555.000000	0.004992  
3554.000000	0.004987  
3553.000000	0.004986  
3552.000000	0.004945  
3551.000000	0.004858  
3550.000000	0.004778  
3549.000000	0.004788  
3548.000000	0.004939  
3547.000000	0.005202  
3546.000000	0.005457  
3545.000000	0.005568  
3544.000000	0.005508  
3543.000000	0.005377  
3542.000000	0.005308  
3541.000000	0.005372  
3540.000000	0.005543  
3539.000000	0.005734  
3538.000000	0.005845  
3537.000000	0.005809  
3536.000000	0.005641  
3535.000000	0.005438  
3534.000000	0.005319  
3533.000000	0.005341  
3532.000000	0.005477  
3531.000000	0.005651  
3530.000000	0.005788  
3529.000000	0.005841  
3528.000000	0.005801  
3527.000000	0.005702  
3526.000000	0.005618  
3525.000000	0.005615  
3524.000000	0.005702  
3523.000000	0.005823  
3522.000000	0.005924  
3521.000000	0.005996  
3520.000000	0.006053  
3519.000000	0.006106  
3518.000000	0.006160  
3517.000000	0.006230  
3516.000000	0.006327  
3515.000000	0.006438  
3514.000000	0.006527  
3513.000000	0.006572  
3512.000000	0.006606  
3511.000000	0.006707  
3510.000000	0.006913  
3509.000000	0.007171  
3508.000000	0.007377  
3507.000000	0.007476  
3506.000000	0.007478  
3505.000000	0.007407  
3504.000000	0.007267  
3503.000000	0.007065  
3502.000000	0.006862  
3501.000000	0.006732  
3500.000000	0.006697  
3499.000000	0.006716  
3498.000000	0.006754  
3497.000000	0.006828  
3496.000000	0.006970  
3495.000000	0.007161  
3494.000000	0.007341  
3493.000000	0.007477  
3492.000000	0.007590  
3491.000000	0.007698  
3490.000000	0.007788  
3489.000000	0.007845  
3488.000000	0.007904  
3487.000000	0.008013  
3486.000000	0.008159  
3485.000000	0.008257  
3484.000000	0.008224  
3483.000000	0.008060  
3482.000000	0.007876  
3481.000000	0.007802  
3480.000000	0.007882  
3479.000000	0.008062  
3478.000000	0.008255  
3477.000000	0.008424  
3476.000000	0.008581  
3475.000000	0.008732  
3474.000000	0.008834  
3473.000000	0.008827  
3472.000000	0.008719  
3471.000000	0.008590  
3470.000000	0.008526  
3469.000000	0.008542  
3468.000000	0.008589  
3467.000000	0.008621  
3466.000000	0.008633  
3465.000000	0.008646  
3464.000000	0.008661  
3463.000000	0.008660  
3462.000000	0.008632  
3461.000000	0.008607  
3460.000000	0.008634  
3459.000000	0.008742  
3458.000000	0.008907  
3457.000000	0.009074  
3456.000000	0.009201  
3455.000000	0.009271  
3454.000000	0.009290  
3453.000000	0.009267  
3452.000000	0.009231  
3451.000000	0.009229  
3450.000000	0.009315  
3449.000000	0.009515  
3448.000000	0.009789  
3447.000000	0.010037  
3446.000000	0.010160  
3445.000000	0.010134  
3444.000000	0.010023  
3443.000000	0.009920  
3442.000000	0.009888  
3441.000000	0.009932  
3440.000000	0.010027  
3439.000000	0.010145  
3438.000000	0.010253  
3437.000000	0.010318  
3436.000000	0.010320  
3435.000000	0.010276  
3434.000000	0.010218  
3433.000000	0.010174  
3432.000000	0.010165  
3431.000000	0.010211  
3430.000000	0.010321  
3429.000000	0.010469  
3428.000000	0.010597  
3427.000000	0.010650  
3426.000000	0.010605  
3425.000000	0.010470  
3424.000000	0.010285  
3423.000000	0.010109  
3422.000000	0.010015  
3421.000000	0.010041  
3420.000000	0.010164  
3419.000000	0.010306  
3418.000000	0.010396  
3417.000000	0.010425  
3416.000000	0.010434  
3415.000000	0.010477  
3414.000000	0.010566  
3413.000000	0.010672  
3412.000000	0.010754  
3411.000000	0.010788  
3410.000000	0.010774  
3409.000000	0.010751  
3408.000000	0.010794  
3407.000000	0.010954  
3406.000000	0.011185  
3405.000000	0.011350  
3404.000000	0.011343  
3403.000000	0.011195  
3402.000000	0.011047  
3401.000000	0.011018  
3400.000000	0.011113  
3399.000000	0.011245  
3398.000000	0.011303  
3397.000000	0.011234  
3396.000000	0.011069  
3395.000000	0.010910  
3394.000000	0.010869  
3393.000000	0.010996  
3392.000000	0.011246  
3391.000000	0.011522  
3390.000000	0.011728  
3389.000000	0.011812  
3388.000000	0.011785  
3387.000000	0.011719  
3386.000000	0.011697  
3385.000000	0.011747  
3384.000000	0.011813  
3383.000000	0.011818  
3382.000000	0.011741  
3381.000000	0.011630  
3380.000000	0.011548  
3379.000000	0.011514  
3378.000000	0.011491  
3377.000000	0.011450  
3376.000000	0.011411  
3375.000000	0.011420  
3374.000000	0.011474  
3373.000000	0.011515  
3372.000000	0.011506  
3371.000000	0.011490  
3370.000000	0.011535  
3369.000000	0.011634  
3368.000000	0.011700  
3367.000000	0.011674  
3366.000000	0.011597  
3365.000000	0.011568  
3364.000000	0.011634  
3363.000000	0.011757  
3362.000000	0.011862  
3361.000000	0.011905  
3360.000000	0.011897  
3359.000000	0.011875  
3358.000000	0.011863  
3357.000000	0.011846  
3356.000000	0.011806  
3355.000000	0.011762  
3354.000000	0.011765  
3353.000000	0.011832  
3352.000000	0.011915  
3351.000000	0.011951  
3350.000000	0.011922  
3349.000000	0.011870  
3348.000000	0.011843  
3347.000000	0.011860  
3346.000000	0.011918  
3345.000000	0.012022  
3344.000000	0.012171  
3343.000000	0.012332  
3342.000000	0.012434  
3341.000000	0.012423  
3340.000000	0.012310  
3339.000000	0.012172  
3338.000000	0.012070  
3337.000000	0.012015  
3336.000000	0.011987  
3335.000000	0.011999  
3334.000000	0.012088  
3333.000000	0.012248  
3332.000000	0.012405  
3331.000000	0.012462  
3330.000000	0.012373  
3329.000000	0.012170  
3328.000000	0.011929  
3327.000000	0.011726  
3326.000000	0.011612  
3325.000000	0.011614  
3324.000000	0.011735  
3323.000000	0.011941  
3322.000000	0.012172  
3321.000000	0.012362  
3320.000000	0.012491  
3319.000000	0.012588  
3318.000000	0.012677  
3317.000000	0.012732  
3316.000000	0.012714  
3315.000000	0.012632  
3314.000000	0.012542  
3313.000000	0.012465  
3312.000000	0.012363  
3311.000000	0.012202  
3310.000000	0.012035  
3309.000000	0.011967  
3308.000000	0.012051  
3307.000000	0.012226  
3306.000000	0.012361  
3305.000000	0.012369  
3304.000000	0.012278  
3303.000000	0.012201  
3302.000000	0.012237  
3301.000000	0.012374  
3300.000000	0.012511  
3299.000000	0.012566  
3298.000000	0.012537  
3297.000000	0.012477  
3296.000000	0.012424  
3295.000000	0.012388  
3294.000000	0.012364  
3293.000000	0.012346  
3292.000000	0.012327  
3291.000000	0.012294  
3290.000000	0.012235  
3289.000000	0.012148  
3288.000000	0.012054  
3287.000000	0.012017  
3286.000000	0.012089  
3285.000000	0.012242  
3284.000000	0.012357  
3283.000000	0.012332  
3282.000000	0.012192  
3281.000000	0.012053  
3280.000000	0.011990  
3279.000000	0.011967  
3278.000000	0.011895  
3277.000000	0.011742  
3276.000000	0.011562  
3275.000000	0.011456  
3274.000000	0.011492  
3273.000000	0.011649  
3272.000000	0.011823  
3271.000000	0.011906  
3270.000000	0.011877  
3269.000000	0.011808  
3268.000000	0.011789  
3267.000000	0.011841  
3266.000000	0.011911  
3265.000000	0.011933  
3264.000000	0.011887  
3263.000000	0.011795  
3262.000000	0.011698  
3261.000000	0.011620  
3260.000000	0.011559  
3259.000000	0.011507  
3258.000000	0.011472  
3257.000000	0.011482  
3256.000000	0.011545  
3255.000000	0.011634  
3254.000000	0.011714  
3253.000000	0.011770  
3252.000000	0.011814  
3251.000000	0.011842  
3250.000000	0.011829  
3249.000000	0.011754  
3248.000000	0.011627  
3247.000000	0.011486  
3246.000000	0.011373  
3245.000000	0.011323  
3244.000000	0.011353  
3243.000000	0.011435  
3242.000000	0.011490  
3241.000000	0.011441  
3240.000000	0.011288  
3239.000000	0.011113  
3238.000000	0.011010  
3237.000000	0.011010  
3236.000000	0.011078  
3235.000000	0.011168  
3234.000000	0.011254  
3233.000000	0.011323  
3232.000000	0.011358  
3231.000000	0.011349  
3230.000000	0.011304  
3229.000000	0.011258  
3228.000000	0.011254  
3227.000000	0.011311  
3226.000000	0.011402  
3225.000000	0.011477  
3224.000000	0.011518  
3223.000000	0.011543  
3222.000000	0.011554  
3221.000000	0.011501  
3220.000000	0.011349  
3219.000000	0.011163  
3218.000000	0.011064  
3217.000000	0.011084  
3216.000000	0.011123  
3215.000000	0.011072  
3214.000000	0.010943  
3213.000000	0.010834  
3212.000000	0.010799  
3211.000000	0.010799  
3210.000000	0.010778  
3209.000000	0.010723  
3208.000000	0.010650  
3207.000000	0.010571  
3206.000000	0.010502  
3205.000000	0.010473  
3204.000000	0.010498  
3203.000000	0.010550  
3202.000000	0.010587  
3201.000000	0.010594  
3200.000000	0.010583  
3199.000000	0.010567  
3198.000000	0.010546  
3197.000000	0.010515  
3196.000000	0.010472  
3195.000000	0.010415  
3194.000000	0.010346  
3193.000000	0.010277  
3192.000000	0.010222  
3191.000000	0.010181  
3190.000000	0.010137  
3189.000000	0.010087  
3188.000000	0.010048  
3187.000000	0.010037  
3186.000000	0.010048  
3185.000000	0.010058  
3184.000000	0.010059  
3183.000000	0.010065  
3182.000000	0.010080  
3181.000000	0.010084  
3180.000000	0.010045  
3179.000000	0.009955  
3178.000000	0.009822  
3177.000000	0.009649  
3176.000000	0.009441  
3175.000000	0.009242  
3174.000000	0.009129  
3173.000000	0.009139  
3172.000000	0.009228  
3171.000000	0.009309  
3170.000000	0.009340  
3169.000000	0.009345  
3168.000000	0.009367  
3167.000000	0.009422  
3166.000000	0.009496  
3165.000000	0.009564  
3164.000000	0.009596  
3163.000000	0.009548  
3162.000000	0.009404  
3161.000000	0.009207  
3160.000000	0.009044  
3159.000000	0.008973  
3158.000000	0.008962  
3157.000000	0.008931  
3156.000000	0.008847  
3155.000000	0.008762  
3154.000000	0.008754  
3153.000000	0.008840  
3152.000000	0.008963  
3151.000000	0.009059  
3150.000000	0.009108  
3149.000000	0.009122  
3148.000000	0.009116  
3147.000000	0.009098  
3146.000000	0.009067  
3145.000000	0.009013  
3144.000000	0.008923  
3143.000000	0.008801  
3142.000000	0.008677  
3141.000000	0.008572  
3140.000000	0.008478  
3139.000000	0.008374  
3138.000000	0.008274  
3137.000000	0.008223  
3136.000000	0.008264  
3135.000000	0.008385  
3134.000000	0.008511  
3133.000000	0.008564  
3132.000000	0.008530  
3131.000000	0.008480  
3130.000000	0.008487  
3129.000000	0.008561  
3128.000000	0.008652  
3127.000000	0.008721  
3126.000000	0.008755  
3125.000000	0.008739  
3124.000000	0.008650  
3123.000000	0.008509  
3122.000000	0.008401  
3121.000000	0.008395  
3120.000000	0.008471  
3119.000000	0.008549  
3118.000000	0.008574  
3117.000000	0.008544  
3116.000000	0.008490  
3115.000000	0.008452  
3114.000000	0.008461  
3113.000000	0.008507  
3112.000000	0.008534  
3111.000000	0.008484  
3110.000000	0.008362  
3109.000000	0.008228  
3108.000000	0.008131  
3107.000000	0.008072  
3106.000000	0.008024  
3105.000000	0.007955  
3104.000000	0.007849  
3103.000000	0.007732  
3102.000000	0.007675  
3101.000000	0.007731  
3100.000000	0.007858  
3099.000000	0.007952  
3098.000000	0.007961  
3097.000000	0.007931  
3096.000000	0.007929  
3095.000000	0.007961  
3094.000000	0.007979  
3093.000000	0.007956  
3092.000000	0.007913  
3091.000000	0.007887  
3090.000000	0.007904  
3089.000000	0.007960  
3088.000000	0.008018  
3087.000000	0.008035  
3086.000000	0.007997  
3085.000000	0.007938  
3084.000000	0.007896  
3083.000000	0.007875  
3082.000000	0.007854  
3081.000000	0.007831  
3080.000000	0.007822  
3079.000000	0.007844  
3078.000000	0.007899  
3077.000000	0.007982  
3076.000000	0.008073  
3075.000000	0.008131  
3074.000000	0.008114  
3073.000000	0.008033  
3072.000000	0.007939  
3071.000000	0.007875  
3070.000000	0.007844  
3069.000000	0.007831  
3068.000000	0.007835  
3067.000000	0.007862  
3066.000000	0.007892  
3065.000000	0.007891  
3064.000000	0.007851  
3063.000000	0.007806  
3062.000000	0.007798  
3061.000000	0.007830  
3060.000000	0.007881  
3059.000000	0.007932  
3058.000000	0.007979  
3057.000000	0.008005  
3056.000000	0.007977  
3055.000000	0.007883  
3054.000000	0.007761  
3053.000000	0.007678  
3052.000000	0.007682  
3051.000000	0.007767  
3050.000000	0.007885  
3049.000000	0.007984  
3048.000000	0.008034  
3047.000000	0.008041  
3046.000000	0.008032  
3045.000000	0.008034  
3044.000000	0.008051  
3043.000000	0.008079  
3042.000000	0.008110  
3041.000000	0.008131  
3040.000000	0.008122  
3039.000000	0.008080  
3038.000000	0.008051  
3037.000000	0.008104  
3036.000000	0.008254  
3035.000000	0.008446  
3034.000000	0.008622  
3033.000000	0.008782  
3032.000000	0.008956  
3031.000000	0.009133  
3030.000000	0.009253  
3029.000000	0.009295  
3028.000000	0.009316  
3027.000000	0.009403  
3026.000000	0.009593  
3025.000000	0.009850  
3024.000000	0.010117  
3023.000000	0.010370  
3022.000000	0.010637  
3021.000000	0.010966  
3020.000000	0.011395  
3019.000000	0.011920  
3018.000000	0.012496  
3017.000000	0.013058  
3016.000000	0.013559  
3015.000000	0.013986  
3014.000000	0.014368  
3013.000000	0.014751  
3012.000000	0.015144  
3011.000000	0.015481  
3010.000000	0.015665  
3009.000000	0.015661  
3008.000000	0.015527  
3007.000000	0.015342  
3006.000000	0.015117  
3005.000000	0.014828  
3004.000000	0.014505  
3003.000000	0.014236  
3002.000000	0.014079  
3001.000000	0.014000  
3000.000000	0.013922  
2999.000000	0.013824  
2998.000000	0.013746  
2997.000000	0.013729  
2996.000000	0.013772  
2995.000000	0.013843  
2994.000000	0.013924  
2993.000000	0.014030  
2992.000000	0.014207  
2991.000000	0.014507  
2990.000000	0.014960  
2989.000000	0.015555  
2988.000000	0.016249  
2987.000000	0.016994  
2986.000000	0.017770  
2985.000000	0.018597  
2984.000000	0.019512  
2983.000000	0.020536  
2982.000000	0.021650  
2981.000000	0.022839  
2980.000000	0.024151  
2979.000000	0.025685  
2978.000000	0.027508  
2977.000000	0.029591  
2976.000000	0.031875  
2975.000000	0.034379  
2974.000000	0.037205  
2973.000000	0.040441  
2972.000000	0.044078  
2971.000000	0.048039  
2970.000000	0.052247  
2969.000000	0.056680  
2968.000000	0.061362  
2967.000000	0.066310  
2966.000000	0.071474  
2965.000000	0.076712  
2964.000000	0.081840  
2963.000000	0.086711  
2962.000000	0.091251  
2961.000000	0.095445  
2960.000000	0.099284  
2959.000000	0.102706  
2958.000000	0.105560  
2957.000000	0.107653  
2956.000000	0.108867  
2955.000000	0.109226  
2954.000000	0.108847  
2953.000000	0.107863  
2952.000000	0.106411  
2951.000000	0.104658  
2950.000000	0.102796  
2949.000000	0.101004  
2948.000000	0.099436  
2947.000000	0.098236  
2946.000000	0.097546  
2945.000000	0.097486  
2944.000000	0.098148  
2943.000000	0.099612  
2942.000000	0.101928  
2941.000000	0.105077  
2940.000000	0.108971  
2939.000000	0.113504  
2938.000000	0.118585  
2937.000000	0.124124  
2936.000000	0.130014  
2935.000000	0.136162  
2934.000000	0.142517  
2933.000000	0.149044  
2932.000000	0.155699  
2931.000000	0.162423  
2930.000000	0.169142  
2929.000000	0.175720  
2928.000000	0.181942  
2927.000000	0.187565  
2926.000000	0.192386  
2925.000000	0.196247  
2924.000000	0.198962  
2923.000000	0.200289  
2922.000000	0.200065  
2921.000000	0.198354  
2920.000000	0.195436  
2919.000000	0.191634  
2918.000000	0.187178  
2917.000000	0.182243  
2916.000000	0.177013  
2915.000000	0.171681  
2914.000000	0.166391  
2913.000000	0.161233  
2912.000000	0.156249  
2911.000000	0.151439  
2910.000000	0.146789  
2909.000000	0.142311  
2908.000000	0.138051  
2907.000000	0.134034  
2906.000000	0.130226  
2905.000000	0.126564  
2904.000000	0.123011  
2903.000000	0.119564  
2902.000000	0.116236  
2901.000000	0.113017  
2900.000000	0.109865  
2899.000000	0.106724  
2898.000000	0.103576  
2897.000000	0.100463  
2896.000000	0.097449  
2895.000000	0.094545  
2894.000000	0.091709  
2893.000000	0.088907  
2892.000000	0.086153  
2891.000000	0.083471  
2890.000000	0.080861  
2889.000000	0.078341  
2888.000000	0.076001  
2887.000000	0.073978  
2886.000000	0.072363  
2885.000000	0.071155  
2884.000000	0.070308  
2883.000000	0.069822  
2882.000000	0.069782  
2881.000000	0.070319  
2880.000000	0.071527  
2879.000000	0.073403  
2878.000000	0.075849  
2877.000000	0.078702  
2876.000000	0.081754  
2875.000000	0.084760  
2874.000000	0.087445  
2873.000000	0.089562  
2872.000000	0.090988  
2871.000000	0.091791  
2870.000000	0.092208  
2869.000000	0.092522  
2868.000000	0.092930  
2867.000000	0.093526  
2866.000000	0.094403  
2865.000000	0.095767  
2864.000000	0.097866  
2863.000000	0.100804  
2862.000000	0.104450  
2861.000000	0.108535  
2860.000000	0.112815  
2859.000000	0.117106  
2858.000000	0.121225  
2857.000000	0.124952  
2856.000000	0.128024  
2855.000000	0.130099  
2854.000000	0.130777  
2853.000000	0.129757  
2852.000000	0.127012  
2851.000000	0.122788  
2850.000000	0.117434  
2849.000000	0.111275  
2848.000000	0.104610  
2847.000000	0.097749  
2846.000000	0.090979  
2845.000000	0.084504  
2844.000000	0.078410  
2843.000000	0.072686  
2842.000000	0.067277  
2841.000000	0.062145  
2840.000000	0.057307  
2839.000000	0.052829  
2838.000000	0.048783  
2837.000000	0.045222  
2836.000000	0.042163  
2835.000000	0.039563  
2834.000000	0.037313  
2833.000000	0.035278  
2832.000000	0.033373  
2831.000000	0.031602  
2830.000000	0.030017  
2829.000000	0.028630  
2828.000000	0.027390  
2827.000000	0.026229  
2826.000000	0.025112  
2825.000000	0.024056  
2824.000000	0.023086  
2823.000000	0.022214  
2822.000000	0.021427  
2821.000000	0.020712  
2820.000000	0.020066  
2819.000000	0.019482  
2818.000000	0.018938  
2817.000000	0.018413  
2816.000000	0.017911  
2815.000000	0.017455  
2814.000000	0.017054  
2813.000000	0.016683  
2812.000000	0.016309  
2811.000000	0.015922  
2810.000000	0.015526  
2809.000000	0.015128  
2808.000000	0.014742  
2807.000000	0.014406  
2806.000000	0.014150  
2805.000000	0.013964  
2804.000000	0.013800  
2803.000000	0.013621  
2802.000000	0.013418  
2801.000000	0.013197  
2800.000000	0.012970  
2799.000000	0.012763  
2798.000000	0.012604  
2797.000000	0.012487  
2796.000000	0.012382  
2795.000000	0.012275  
2794.000000	0.012188  
2793.000000	0.012140  
2792.000000	0.012113  
2791.000000	0.012082  
2790.000000	0.012034  
2789.000000	0.011961  
2788.000000	0.011840  
2787.000000	0.011663  
2786.000000	0.011460  
2785.000000	0.011275  
2784.000000	0.011120  
2783.000000	0.010985  
2782.000000	0.010876  
2781.000000	0.010802  
2780.000000	0.010736  
2779.000000	0.010629  
2778.000000	0.010459  
2777.000000	0.010251  
2776.000000	0.010034  
2775.000000	0.009807  
2774.000000	0.009570  
2773.000000	0.009358  
2772.000000	0.009214  
2771.000000	0.009132  
2770.000000	0.009058  
2769.000000	0.008944  
2768.000000	0.008786  
2767.000000	0.008614  
2766.000000	0.008462  
2765.000000	0.008346  
2764.000000	0.008271  
2763.000000	0.008222  
2762.000000	0.008167  
2761.000000	0.008069  
2760.000000	0.007912  
2759.000000	0.007719  
2758.000000	0.007541  
2757.000000	0.007417  
2756.000000	0.007345  
2755.000000	0.007289  
2754.000000	0.007213  
2753.000000	0.007114  
2752.000000	0.007019  
2751.000000	0.006954  
2750.000000	0.006924  
2749.000000	0.006918  
2748.000000	0.006932  
2747.000000	0.006966  
2746.000000	0.007008  
2745.000000	0.007036  
2744.000000	0.007033  
2743.000000	0.007010  
2742.000000	0.006985  
2741.000000	0.006969  
2740.000000	0.006953  
2739.000000	0.006924  
2738.000000	0.006892  
2737.000000	0.006885  
2736.000000	0.006936  
2735.000000	0.007056  
2734.000000	0.007211  
2733.000000	0.007339  
2732.000000	0.007392  
2731.000000	0.007364  
2730.000000	0.007291  
2729.000000	0.007212  
2728.000000	0.007153  
2727.000000	0.007119  
2726.000000	0.007092  
2725.000000	0.007046  
2724.000000	0.006986  
2723.000000	0.006953  
2722.000000	0.006972  
2721.000000	0.007011  
2720.000000	0.007011  
2719.000000	0.006959  
2718.000000	0.006893  
2717.000000	0.006841  
2716.000000	0.006787  
2715.000000	0.006696  
2714.000000	0.006565  
2713.000000	0.006417  
2712.000000	0.006272  
2711.000000	0.006147  
2710.000000	0.006064  
2709.000000	0.006043  
2708.000000	0.006080  
2707.000000	0.006138  
2706.000000	0.006168  
2705.000000	0.006126  
2704.000000	0.006007  
2703.000000	0.005867  
2702.000000	0.005791  
2701.000000	0.005818  
2700.000000	0.005904  
2699.000000	0.005967  
2698.000000	0.005964  
2697.000000	0.005907  
2696.000000	0.005841  
2695.000000	0.005801  
2694.000000	0.005809  
2693.000000	0.005868  
2692.000000	0.005947  
2691.000000	0.005991  
2690.000000	0.005953  
2689.000000	0.005837  
2688.000000	0.005696  
2687.000000	0.005603  
2686.000000	0.005588  
2685.000000	0.005620  
2684.000000	0.005650  
2683.000000	0.005663  
2682.000000	0.005682  
2681.000000	0.005718  
2680.000000	0.005747  
2679.000000	0.005748  
2678.000000	0.005737  
2677.000000	0.005745  
2676.000000	0.005776  
2675.000000	0.005809  
2674.000000	0.005823  
2673.000000	0.005812  
2672.000000	0.005772  
2671.000000	0.005712  
2670.000000	0.005654  
2669.000000	0.005622  
2668.000000	0.005615  
2667.000000	0.005616  
2666.000000	0.005614  
2665.000000	0.005600  
2664.000000	0.005570  
2663.000000	0.005532  
2662.000000	0.005492  
2661.000000	0.005434  
2660.000000	0.005326  
2659.000000	0.005177  
2658.000000	0.005058  
2657.000000	0.005044  
2656.000000	0.005125  
2655.000000	0.005209  
2654.000000	0.005215  
2653.000000	0.005138  
2652.000000	0.005028  
2651.000000	0.004929  
2650.000000	0.004849  
2649.000000	0.004773  
2648.000000	0.004688  
2647.000000	0.004615  
2646.000000	0.004595  
2645.000000	0.004631  
2644.000000	0.004667  
2643.000000	0.004641  
2642.000000	0.004571  
2641.000000	0.004528  
2640.000000	0.004532  
2639.000000	0.004524  
2638.000000	0.004450  
2637.000000	0.004340  
2636.000000	0.004272  
2635.000000	0.004287  
2634.000000	0.004359  
2633.000000	0.004436  
2632.000000	0.004480  
2631.000000	0.004476  
2630.000000	0.004423  
2629.000000	0.004336  
2628.000000	0.004243  
2627.000000	0.004179  
2626.000000	0.004162  
2625.000000	0.004182  
2624.000000	0.004211  
2623.000000	0.004228  
2622.000000	0.004250  
2621.000000	0.004305  
2620.000000	0.004377  
2619.000000	0.004412  
2618.000000	0.004358  
2617.000000	0.004205  
2616.000000	0.003989  
2615.000000	0.003786  
2614.000000	0.003685  
2613.000000	0.003720  
2612.000000	0.003817  
2611.000000	0.003855  
2610.000000	0.003797  
2609.000000	0.003737  
2608.000000	0.003798  
2607.000000	0.003993  
2606.000000	0.004218  
2605.000000	0.004343  
2604.000000	0.004302  
2603.000000	0.004114  
2602.000000	0.003857  
2601.000000	0.003622  
2600.000000	0.003457  
2599.000000	0.003353  
2598.000000	0.003286  
2597.000000	0.003258  
2596.000000	0.003273  
2595.000000	0.003287  
2594.000000	0.003237  
2593.000000	0.003116  
2592.000000	0.003007  
2591.000000	0.003012  
2590.000000	0.003158  
2589.000000	0.003372  
2588.000000	0.003540  
2587.000000	0.003591  
2586.000000	0.003539  
2585.000000	0.003465  
2584.000000	0.003445  
2583.000000	0.003472  
2582.000000	0.003457  
2581.000000	0.003315  
2580.000000	0.003067  
2579.000000	0.002836  
2578.000000	0.002742  
2577.000000	0.002786  
2576.000000	0.002869  
2575.000000	0.002909  
2574.000000	0.002919  
2573.000000	0.002965  
2572.000000	0.003056  
2571.000000	0.003113  
2570.000000	0.003062  
2569.000000	0.002925  
2568.000000	0.002801  
2567.000000	0.002764  
2566.000000	0.002794  
2565.000000	0.002817  
2564.000000	0.002784  
2563.000000	0.002694  
2562.000000	0.002579  
2561.000000	0.002494  
2560.000000	0.002516  
2559.000000	0.002688  
2558.000000	0.002938  
2557.000000	0.003089  
2556.000000	0.003020  
2555.000000	0.002793  
2554.000000	0.002594  
2553.000000	0.002549  
2552.000000	0.002641  
2551.000000	0.002786  
2550.000000	0.002916  
2549.000000	0.002979  
2548.000000	0.002926  
2547.000000	0.002778  
2546.000000	0.002640  
2545.000000	0.002607  
2544.000000	0.002645  
2543.000000	0.002631  
2542.000000	0.002502  
2541.000000	0.002327  
2540.000000	0.002230  
2539.000000	0.002282  
2538.000000	0.002448  
2537.000000	0.002614  
2536.000000	0.002655  
2535.000000	0.002528  
2534.000000	0.002301  
2533.000000	0.002084  
2532.000000	0.001938  
2531.000000	0.001872  
2530.000000	0.001905  
2529.000000	0.002053  
2528.000000	0.002273  
2527.000000	0.002462  
2526.000000	0.002559  
2525.000000	0.002589  
2524.000000	0.002597  
2523.000000	0.002581  
2522.000000	0.002535  
2521.000000	0.002483  
2520.000000	0.002448  
2519.000000	0.002383  
2518.000000	0.002226  
2517.000000	0.002017  
2516.000000	0.001889  
2515.000000	0.001936  
2514.000000	0.002110  
2513.000000	0.002279  
2512.000000	0.002339  
2511.000000	0.002283  
2510.000000	0.002174  
2509.000000	0.002111  
2508.000000	0.002159  
2507.000000	0.002280  
2506.000000	0.002347  
2505.000000	0.002279  
2504.000000	0.002151  
2503.000000	0.002116  
2502.000000	0.002223  
2501.000000	0.002365  
2500.000000	0.002424  
2499.000000	0.002395  
2498.000000	0.002349  
2497.000000	0.002333  
2496.000000	0.002344  
2495.000000	0.002372  
2494.000000	0.002379  
2493.000000	0.002298  
2492.000000	0.002105  
2491.000000	0.001896  
2490.000000	0.001808  
2489.000000	0.001871  
2488.000000	0.001997  
2487.000000	0.002103  
2486.000000	0.002175  
2485.000000	0.002195  
2484.000000	0.002118  
2483.000000	0.001943  
2482.000000	0.001763  
2481.000000	0.001672  
2480.000000	0.001676  
2479.000000	0.001722  
2478.000000	0.001770  
2477.000000	0.001779  
2476.000000	0.001693  
2475.000000	0.001507  
2474.000000	0.001315  
2473.000000	0.001236  
2472.000000	0.001287  
2471.000000	0.001383  
2470.000000	0.001449  
2469.000000	0.001476  
2468.000000	0.001483  
2467.000000	0.001481  
2466.000000	0.001475  
2465.000000	0.001476  
2464.000000	0.001492  
2463.000000	0.001528  
2462.000000	0.001582  
2461.000000	0.001632  
2460.000000	0.001649  
2459.000000	0.001634  
2458.000000	0.001628  
2457.000000	0.001649  
2456.000000	0.001650  
2455.000000	0.001576  
2454.000000	0.001460  
2453.000000	0.001407  
2452.000000	0.001473  
2451.000000	0.001608  
2450.000000	0.001706  
2449.000000	0.001704  
2448.000000	0.001607  
2447.000000	0.001463  
2446.000000	0.001324  
2445.000000	0.001228  
2444.000000	0.001199  
2443.000000	0.001247  
2442.000000	0.001351  
2441.000000	0.001436  
2440.000000	0.001420  
2439.000000	0.001307  
2438.000000	0.001204  
2437.000000	0.001211  
2436.000000	0.001302  
2435.000000	0.001363  
2434.000000	0.001334  
2433.000000	0.001268  
2432.000000	0.001269  
2431.000000	0.001389  
2430.000000	0.001588  
2429.000000	0.001749  
2428.000000	0.001750  
2427.000000	0.001572  
2426.000000	0.001335  
2425.000000	0.001198  
2424.000000	0.001219  
2423.000000	0.001329  
2422.000000	0.001432  
2421.000000	0.001495  
2420.000000	0.001541  
2419.000000	0.001606  
2418.000000	0.001713  
2417.000000	0.001854  
2416.000000	0.001964  
2415.000000	0.001976  
2414.000000	0.001895  
2413.000000	0.001799  
2412.000000	0.001734  
2411.000000	0.001653  
2410.000000	0.001487  
2409.000000	0.001268  
2408.000000	0.001111  
2407.000000	0.001079  
2406.000000	0.001118  
2405.000000	0.001137  
2404.000000	0.001129  
2403.000000	0.001166  
2402.000000	0.001286  
2401.000000	0.001430  
2400.000000	0.001515  
2399.000000	0.001540  
2398.000000	0.001566  
2397.000000	0.001616  
2396.000000	0.001644  
2395.000000	0.001615  
2394.000000	0.001563  
2393.000000	0.001552  
2392.000000	0.001606  
2391.000000	0.001683  
2390.000000	0.001706  
2389.000000	0.001606  
2388.000000	0.001380  
2387.000000	0.001117  
2386.000000	0.000955  
2385.000000	0.000969  
2384.000000	0.001131  
2383.000000	0.001372  
2382.000000	0.001656  
2381.000000	0.001951  
2380.000000	0.002178  
2379.000000	0.002251  
2378.000000	0.002185  
2377.000000	0.002083  
2376.000000	0.002012  
2375.000000	0.001957  
2374.000000	0.001919  
2373.000000	0.001943  
2372.000000	0.002016  
2371.000000	0.002047  
2370.000000	0.002042  
2369.000000	0.002148  
2368.000000	0.002435  
2367.000000	0.002761  
2366.000000	0.002980  
2365.000000	0.003086  
2364.000000	0.002994  
2363.000000	0.002452  
2362.000000	0.001512  
2361.000000	0.000786  
2360.000000	0.000808  
2359.000000	0.001418  
2358.000000	0.002011  
2357.000000	0.002300  
2356.000000	0.002460  
2355.000000	0.002669  
2354.000000	0.002888  
2353.000000	0.002942  
2352.000000	0.002800  
2351.000000	0.002590  
2350.000000	0.002433  
2349.000000	0.002377  
2348.000000	0.002368  
2347.000000	0.002366  
2346.000000	0.002340  
2345.000000	0.002341  
2344.000000	0.002393  
2343.000000	0.002370  
2342.000000	0.002277  
2341.000000	0.002257  
2340.000000	0.002426  
2339.000000	0.002714  
2338.000000	0.002961  
2337.000000	0.003031  
2336.000000	0.002885  
2335.000000	0.002582  
2334.000000	0.002301  
2333.000000	0.002169  
2332.000000	0.002184  
2331.000000	0.002225  
2330.000000	0.002178  
2329.000000	0.002042  
2328.000000	0.001813  
2327.000000	0.001552  
2326.000000	0.001357  
2325.000000	0.001348  
2324.000000	0.001565  
2323.000000	0.001893  
2322.000000	0.002183  
2321.000000	0.002295  
2320.000000	0.002196  
2319.000000	0.001912  
2318.000000	0.001560  
2317.000000	0.001287  
2316.000000	0.001209  
2315.000000	0.001311  
2314.000000	0.001445  
2313.000000	0.001453  
2312.000000	0.001311  
2311.000000	0.001153  
2310.000000	0.001095  
2309.000000	0.001103  
2308.000000	0.001044  
2307.000000	0.000870  
2306.000000	0.000666  
2305.000000	0.000526  
2304.000000	0.000458  
2303.000000	0.000408  
2302.000000	0.000358  
2301.000000	0.000325  
2300.000000	0.000319  
2299.000000	0.000315  
2298.000000	0.000278  
2297.000000	0.000223  
2296.000000	0.000217  
2295.000000	0.000340  
2294.000000	0.000572  
2293.000000	0.000767  
2292.000000	0.000771  
2291.000000	0.000594  
2290.000000	0.000417  
2289.000000	0.000405  
2288.000000	0.000546  
2287.000000	0.000700  
2286.000000	0.000759  
2285.000000	0.000726  
2284.000000	0.000671  
2283.000000	0.000659  
2282.000000	0.000709  
2281.000000	0.000781  
2280.000000	0.000823  
2279.000000	0.000836  
2278.000000	0.000878  
2277.000000	0.000972  
2276.000000	0.001057  
2275.000000	0.001075  
2274.000000	0.001047  
2273.000000	0.001024  
2272.000000	0.001016  
2271.000000	0.001016  
2270.000000	0.001068  
2269.000000	0.001217  
2268.000000	0.001438  
2267.000000	0.001646  
2266.000000	0.001762  
2265.000000	0.001711  
2264.000000	0.001409  
2263.000000	0.000857  
2262.000000	0.000237  
2261.000000	-0.000172 
2260.000000	-0.000215 
2259.000000	0.000026  
2258.000000	0.000335  
2257.000000	0.000519  
2256.000000	0.000509  
2255.000000	0.000373  
2254.000000	0.000263  
2253.000000	0.000300  
2252.000000	0.000466  
2251.000000	0.000617  
2250.000000	0.000606  
2249.000000	0.000418  
2248.000000	0.000194  
2247.000000	0.000135  
2246.000000	0.000302  
2245.000000	0.000527  
2244.000000	0.000580  
2243.000000	0.000433  
2242.000000	0.000292  
2241.000000	0.000339  
2240.000000	0.000549  
2239.000000	0.000817  
2238.000000	0.001116  
2237.000000	0.001430  
2236.000000	0.001601  
2235.000000	0.001446  
2234.000000	0.000999  
2233.000000	0.000542  
2232.000000	0.000361  
2231.000000	0.000526  
2230.000000	0.000872  
2229.000000	0.001121  
2228.000000	0.001070  
2227.000000	0.000756  
2226.000000	0.000442  
2225.000000	0.000365  
2224.000000	0.000544  
2223.000000	0.000853  
2222.000000	0.001198  
2221.000000	0.001516  
2220.000000	0.001692  
2219.000000	0.001639  
2218.000000	0.001437  
2217.000000	0.001245  
2216.000000	0.001116  
2215.000000	0.001004  
2214.000000	0.000912  
2213.000000	0.000879  
2212.000000	0.000848  
2211.000000	0.000729  
2210.000000	0.000602  
2209.000000	0.000694  
2208.000000	0.001085  
2207.000000	0.001568  
2206.000000	0.001837  
2205.000000	0.001728  
2204.000000	0.001285  
2203.000000	0.000722  
2202.000000	0.000331  
2201.000000	0.000299  
2200.000000	0.000531  
2199.000000	0.000755  
2198.000000	0.000803  
2197.000000	0.000717  
2196.000000	0.000599  
2195.000000	0.000505  
2194.000000	0.000511  
2193.000000	0.000702  
2192.000000	0.001031  
2191.000000	0.001307  
2190.000000	0.001381  
2189.000000	0.001243  
2188.000000	0.000903  
2187.000000	0.000355  
2186.000000	-0.000279 
2185.000000	-0.000718 
2184.000000	-0.000783 
2183.000000	-0.000598 
2182.000000	-0.000406 
2181.000000	-0.000286 
2180.000000	-0.000138 
2179.000000	0.000142  
2178.000000	0.000583  
2177.000000	0.001140  
2176.000000	0.001700  
2175.000000	0.002101  
2174.000000	0.002264  
2173.000000	0.002265  
2172.000000	0.002194  
2171.000000	0.001996  
2170.000000	0.001557  
2169.000000	0.000959  
2168.000000	0.000510  
2167.000000	0.000453  
2166.000000	0.000708  
2165.000000	0.000979  
2164.000000	0.001107  
2163.000000	0.001207  
2162.000000	0.001436  
2161.000000	0.001714  
2160.000000	0.001810  
2159.000000	0.001634  
2158.000000	0.001311  
2157.000000	0.000956  
2156.000000	0.000584  
2155.000000	0.000247  
2154.000000	0.000057  
2153.000000	0.000048  
2152.000000	0.000130  
2151.000000	0.000218  
2150.000000	0.000274  
2149.000000	0.000235  
2148.000000	0.000063  
2147.000000	-0.000086 
2146.000000	0.000048  
2145.000000	0.000493  
2144.000000	0.000939  
2143.000000	0.001101  
2142.000000	0.001020  
2141.000000	0.000908  
2140.000000	0.000858  
2139.000000	0.000820  
2138.000000	0.000751  
2137.000000	0.000641  
2136.000000	0.000478  
2135.000000	0.000325  
2134.000000	0.000315  
2133.000000	0.000449  
2132.000000	0.000527  
2131.000000	0.000404  
2130.000000	0.000210  
2129.000000	0.000151  
2128.000000	0.000215  
2127.000000	0.000233  
2126.000000	0.000182  
2125.000000	0.000202  
2124.000000	0.000344  
2123.000000	0.000492  
2122.000000	0.000570  
2121.000000	0.000642  
2120.000000	0.000759  
2119.000000	0.000853  
2118.000000	0.000851  
2117.000000	0.000780  
2116.000000	0.000699  
2115.000000	0.000628  
2114.000000	0.000581  
2113.000000	0.000594  
2112.000000	0.000646  
2111.000000	0.000654  
2110.000000	0.000583  
2109.000000	0.000503  
2108.000000	0.000479  
2107.000000	0.000482  
2106.000000	0.000452  
2105.000000	0.000392  
2104.000000	0.000354  
2103.000000	0.000386  
2102.000000	0.000503  
2101.000000	0.000655  
2100.000000	0.000731  
2099.000000	0.000658  
2098.000000	0.000516  
2097.000000	0.000475  
2096.000000	0.000602  
2095.000000	0.000807  
2094.000000	0.000980  
2093.000000	0.001094  
2092.000000	0.001156  
2091.000000	0.001159  
2090.000000	0.001124  
2089.000000	0.001093  
2088.000000	0.001062  
2087.000000	0.000983  
2086.000000	0.000859  
2085.000000	0.000746  
2084.000000	0.000663  
2083.000000	0.000584  
2082.000000	0.000522  
2081.000000	0.000521  
2080.000000	0.000546  
2079.000000	0.000509  
2078.000000	0.000434  
2077.000000	0.000451  
2076.000000	0.000589  
2075.000000	0.000688  
2074.000000	0.000615  
2073.000000	0.000457  
2072.000000	0.000398  
2071.000000	0.000492  
2070.000000	0.000652  
2069.000000	0.000784  
2068.000000	0.000849  
2067.000000	0.000836  
2066.000000	0.000759  
2065.000000	0.000668  
2064.000000	0.000605  
2063.000000	0.000603  
2062.000000	0.000713  
2061.000000	0.000946  
2060.000000	0.001177  
2059.000000	0.001231  
2058.000000	0.001116  
2057.000000	0.001063  
2056.000000	0.001234  
2055.000000	0.001483  
2054.000000	0.001501  
2053.000000	0.001130  
2052.000000	0.000498  
2051.000000	-0.000107 
2050.000000	-0.000418 
2049.000000	-0.000371 
2048.000000	-0.000172 
2047.000000	-0.000078 
2046.000000	-0.000068 
2045.000000	0.000097  
2044.000000	0.000481  
2043.000000	0.000814  
2042.000000	0.000870  
2041.000000	0.000795  
2040.000000	0.000891  
2039.000000	0.001188  
2038.000000	0.001455  
2037.000000	0.001528  
2036.000000	0.001421  
2035.000000	0.001190  
2034.000000	0.000868  
2033.000000	0.000571  
2032.000000	0.000474  
2031.000000	0.000626  
2030.000000	0.000877  
2029.000000	0.001006  
2028.000000	0.000904  
2027.000000	0.000653  
2026.000000	0.000461  
2025.000000	0.000462  
2024.000000	0.000551  
2023.000000	0.000512  
2022.000000	0.000313  
2021.000000	0.000171  
2020.000000	0.000248  
2019.000000	0.000426  
2018.000000	0.000443  
2017.000000	0.000227  
2016.000000	-0.000018 
2015.000000	-0.000044 
2014.000000	0.000226  
2013.000000	0.000648  
2012.000000	0.000954  
2011.000000	0.000974  
2010.000000	0.000805  
2009.000000	0.000688  
2008.000000	0.000713  
2007.000000	0.000766  
2006.000000	0.000770  
2005.000000	0.000796  
2004.000000	0.000874  
2003.000000	0.000881  
2002.000000	0.000724  
2001.000000	0.000518  
2000.000000	0.000460  
1999.000000	0.000581  
1998.000000	0.000740  
1997.000000	0.000810  
1996.000000	0.000768  
1995.000000	0.000665  
1994.000000	0.000597  
1993.000000	0.000683  
1992.000000	0.000951  
1991.000000	0.001231  
1990.000000	0.001302  
1989.000000	0.001115  
1988.000000	0.000819  
1987.000000	0.000595  
1986.000000	0.000466  
1985.000000	0.000292  
1984.000000	-0.000048 
1983.000000	-0.000466 
1982.000000	-0.000707 
1981.000000	-0.000626 
1980.000000	-0.000369 
1979.000000	-0.000203 
1978.000000	-0.000215 
1977.000000	-0.000305 
1976.000000	-0.000431 
1975.000000	-0.000630 
1974.000000	-0.000826 
1973.000000	-0.000857 
1972.000000	-0.000723 
1971.000000	-0.000579 
1970.000000	-0.000437 
1969.000000	-0.000115 
1968.000000	0.000425  
1967.000000	0.000891  
1966.000000	0.001027  
1965.000000	0.000961  
1964.000000	0.000953  
1963.000000	0.001017  
1962.000000	0.000986  
1961.000000	0.000817  
1960.000000	0.000641  
1959.000000	0.000541  
1958.000000	0.000467  
1957.000000	0.000375  
1956.000000	0.000315  
1955.000000	0.000347  
1954.000000	0.000461  
1953.000000	0.000590  
1952.000000	0.000657  
1951.000000	0.000603  
1950.000000	0.000445  
1949.000000	0.000315  
1948.000000	0.000371  
1947.000000	0.000627  
1946.000000	0.000895  
1945.000000	0.000950  
1944.000000	0.000734  
1943.000000	0.000413  
1942.000000	0.000211  
1941.000000	0.000180  
1940.000000	0.000227  
1939.000000	0.000304  
1938.000000	0.000429  
1937.000000	0.000581  
1936.000000	0.000662  
1935.000000	0.000614  
1934.000000	0.000525  
1933.000000	0.000553  
1932.000000	0.000753  
1931.000000	0.001020  
1930.000000	0.001201  
1929.000000	0.001199  
1928.000000	0.001028  
1927.000000	0.000784  
1926.000000	0.000578  
1925.000000	0.000445  
1924.000000	0.000340  
1923.000000	0.000245  
1922.000000	0.000223  
1921.000000	0.000322  
1920.000000	0.000486  
1919.000000	0.000629  
1918.000000	0.000737  
1917.000000	0.000841  
1916.000000	0.000919  
1915.000000	0.000908  
1914.000000	0.000809  
1913.000000	0.000696  
1912.000000	0.000638  
1911.000000	0.000645  
1910.000000	0.000711  
1909.000000	0.000824  
1908.000000	0.000927  
1907.000000	0.000954  
1906.000000	0.000893  
1905.000000	0.000787  
1904.000000	0.000680  
1903.000000	0.000590  
1902.000000	0.000524  
1901.000000	0.000478  
1900.000000	0.000429  
1899.000000	0.000371  
1898.000000	0.000342  
1897.000000	0.000366  
1896.000000	0.000402  
1895.000000	0.000401  
1894.000000	0.000392  
1893.000000	0.000429  
1892.000000	0.000487  
1891.000000	0.000504  
1890.000000	0.000490  
1889.000000	0.000519  
1888.000000	0.000594  
1887.000000	0.000663  
1886.000000	0.000717  
1885.000000	0.000793  
1884.000000	0.000870  
1883.000000	0.000882  
1882.000000	0.000808  
1881.000000	0.000692  
1880.000000	0.000567  
1879.000000	0.000460  
1878.000000	0.000447  
1877.000000	0.000589  
1876.000000	0.000818  
1875.000000	0.000991  
1874.000000	0.001069  
1873.000000	0.001131  
1872.000000	0.001214  
1871.000000	0.001230  
1870.000000	0.001092  
1869.000000	0.000890  
1868.000000	0.000801  
1867.000000	0.000811  
1866.000000	0.000801  
1865.000000	0.000732  
1864.000000	0.000617  
1863.000000	0.000485  
1862.000000	0.000408  
1861.000000	0.000463  
1860.000000	0.000608  
1859.000000	0.000686  
1858.000000	0.000628  
1857.000000	0.000545  
1856.000000	0.000564  
1855.000000	0.000681  
1854.000000	0.000819  
1853.000000	0.000949  
1852.000000	0.001054  
1851.000000	0.001059  
1850.000000	0.000916  
1849.000000	0.000715  
1848.000000	0.000623  
1847.000000	0.000691  
1846.000000	0.000830  
1845.000000	0.000934  
1844.000000	0.000960  
1843.000000	0.000923  
1842.000000	0.000856  
1841.000000	0.000785  
1840.000000	0.000730  
1839.000000	0.000682  
1838.000000	0.000625  
1837.000000	0.000577  
1836.000000	0.000579  
1835.000000	0.000628  
1834.000000	0.000663  
1833.000000	0.000635  
1832.000000	0.000549  
1831.000000	0.000466  
1830.000000	0.000468  
1829.000000	0.000551  
1828.000000	0.000610  
1827.000000	0.000598  
1826.000000	0.000586  
1825.000000	0.000658  
1824.000000	0.000787  
1823.000000	0.000855  
1822.000000	0.000799  
1821.000000	0.000651  
1820.000000	0.000483  
1819.000000	0.000388  
1818.000000	0.000455  
1817.000000	0.000683  
1816.000000	0.000937  
1815.000000	0.001063  
1814.000000	0.001047  
1813.000000	0.000989  
1812.000000	0.000947  
1811.000000	0.000881  
1810.000000	0.000768  
1809.000000	0.000674  
1808.000000	0.000652  
1807.000000	0.000681  
1806.000000	0.000740  
1805.000000	0.000852  
1804.000000	0.001021  
1803.000000	0.001188  
1802.000000	0.001287  
1801.000000	0.001309  
1800.000000	0.001276  
1799.000000	0.001199  
1798.000000	0.001137  
1797.000000	0.001194  
1796.000000	0.001384  
1795.000000	0.001580  
1794.000000	0.001650  
1793.000000	0.001618  
1792.000000	0.001608  
1791.000000	0.001643  
1790.000000	0.001672  
1789.000000	0.001688  
1788.000000	0.001695  
1787.000000	0.001678  
1786.000000	0.001661  
1785.000000	0.001713  
1784.000000	0.001837  
1783.000000	0.001925  
1782.000000	0.001904  
1781.000000	0.001866  
1780.000000	0.001935  
1779.000000	0.002084  
1778.000000	0.002213  
1777.000000	0.002318  
1776.000000	0.002421  
1775.000000	0.002478  
1774.000000	0.002424  
1773.000000	0.002356  
1772.000000	0.002443  
1771.000000	0.002613  
1770.000000	0.002719  
1769.000000	0.002831  
1768.000000	0.003048  
1767.000000	0.003318  
1766.000000	0.003558  
1765.000000	0.003789  
1764.000000	0.004064  
1763.000000	0.004353  
1762.000000	0.004600  
1761.000000	0.004888  
1760.000000	0.005323  
1759.000000	0.005866  
1758.000000	0.006476  
1757.000000	0.007236  
1756.000000	0.008155  
1755.000000	0.009078  
1754.000000	0.009963  
1753.000000	0.011085  
1752.000000	0.012915  
1751.000000	0.015758  
1750.000000	0.019706  
1749.000000	0.024914  
1748.000000	0.031119  
1747.000000	0.037506  
1746.000000	0.043822  
1745.000000	0.050529  
1744.000000	0.057473  
1743.000000	0.063376  
1742.000000	0.067152  
1741.000000	0.068649  
1740.000000	0.067859  
1739.000000	0.065127  
1738.000000	0.061680  
1737.000000	0.058124  
1736.000000	0.053728  
1735.000000	0.046770  
1734.000000	0.038115  
1733.000000	0.031704  
1732.000000	0.028068  
1731.000000	0.025299  
1730.000000	0.022766  
1729.000000	0.020555  
1728.000000	0.018809  
1727.000000	0.017422  
1726.000000	0.016279  
1725.000000	0.015273  
1724.000000	0.014338  
1723.000000	0.013536  
1722.000000	0.012964  
1721.000000	0.012556  
1720.000000	0.012086  
1719.000000	0.011262  
1718.000000	0.010030  
1717.000000	0.008909  
1716.000000	0.008220  
1715.000000	0.007739  
1714.000000	0.007339  
1713.000000	0.006993  
1712.000000	0.006648  
1711.000000	0.006303  
1710.000000	0.006022  
1709.000000	0.005850  
1708.000000	0.005716  
1707.000000	0.005517  
1706.000000	0.005284  
1705.000000	0.005148  
1704.000000	0.005121  
1703.000000	0.005093  
1702.000000	0.005009  
1701.000000	0.004888  
1700.000000	0.004730  
1699.000000	0.004600  
1698.000000	0.004553  
1697.000000	0.004559  
1696.000000	0.004585  
1695.000000	0.004598  
1694.000000	0.004623  
1693.000000	0.004649  
1692.000000	0.004625  
1691.000000	0.004536  
1690.000000	0.004423  
1689.000000	0.004375  
1688.000000	0.004412  
1687.000000	0.004484  
1686.000000	0.004527  
1685.000000	0.004539  
1684.000000	0.004531  
1683.000000	0.004492  
1682.000000	0.004484  
1681.000000	0.004540  
1680.000000	0.004626  
1679.000000	0.004691  
1678.000000	0.004719  
1677.000000	0.004713  
1676.000000	0.004702  
1675.000000	0.004738  
1674.000000	0.004851  
1673.000000	0.004994  
1672.000000	0.005105  
1671.000000	0.005206  
1670.000000	0.005409  
1669.000000	0.005722  
1668.000000	0.006009  
1667.000000	0.006227  
1666.000000	0.006419  
1665.000000	0.006614  
1664.000000	0.006847  
1663.000000	0.007151  
1662.000000	0.007506  
1661.000000	0.007818  
1660.000000	0.008051  
1659.000000	0.008242  
1658.000000	0.008487  
1657.000000	0.008789  
1656.000000	0.009098  
1655.000000	0.009291  
1654.000000	0.009433  
1653.000000	0.009756  
1652.000000	0.010070  
1651.000000	0.010215  
1650.000000	0.010255  
1649.000000	0.010254  
1648.000000	0.010192  
1647.000000	0.010218  
1646.000000	0.010491  
1645.000000	0.010828  
1644.000000	0.011045  
1643.000000	0.011143  
1642.000000	0.011186  
1641.000000	0.011267  
1640.000000	0.011373  
1639.000000	0.011447  
1638.000000	0.011461  
1637.000000	0.011490  
1636.000000	0.011584  
1635.000000	0.011614  
1634.000000	0.011542  
1633.000000	0.011474  
1632.000000	0.011417  
1631.000000	0.011317  
1630.000000	0.011159  
1629.000000	0.010963  
1628.000000	0.010772  
1627.000000	0.010599  
1626.000000	0.010418  
1625.000000	0.010176  
1624.000000	0.009846  
1623.000000	0.009524  
1622.000000	0.009347  
1621.000000	0.009291  
1620.000000	0.009223  
1619.000000	0.009026  
1618.000000	0.008631  
1617.000000	0.008156  
1616.000000	0.007824  
1615.000000	0.007647  
1614.000000	0.007522  
1613.000000	0.007409  
1612.000000	0.007275  
1611.000000	0.007108  
1610.000000	0.006930  
1609.000000	0.006787  
1608.000000	0.006699  
1607.000000	0.006668  
1606.000000	0.006679  
1605.000000	0.006685  
1604.000000	0.006625  
1603.000000	0.006498  
1602.000000	0.006378  
1601.000000	0.006312  
1600.000000	0.006261  
1599.000000	0.006180  
1598.000000	0.006092  
1597.000000	0.006056  
1596.000000	0.006111  
1595.000000	0.006251  
1594.000000	0.006434  
1593.000000	0.006596  
1592.000000	0.006708  
1591.000000	0.006820  
1590.000000	0.007005  
1589.000000	0.007259  
1588.000000	0.007503  
1587.000000	0.007697  
1586.000000	0.007875  
1585.000000	0.008081  
1584.000000	0.008302  
1583.000000	0.008514  
1582.000000	0.008719  
1581.000000	0.008920  
1580.000000	0.009080  
1579.000000	0.009166  
1578.000000	0.009196  
1577.000000	0.009293  
1576.000000	0.009571  
1575.000000	0.009893  
1574.000000	0.010116  
1573.000000	0.010255  
1572.000000	0.010322  
1571.000000	0.010312  
1570.000000	0.010303  
1569.000000	0.010381  
1568.000000	0.010467  
1567.000000	0.010465  
1566.000000	0.010402  
1565.000000	0.010350  
1564.000000	0.010300  
1563.000000	0.010245  
1562.000000	0.010185  
1561.000000	0.010213  
1560.000000	0.010157  
1559.000000	0.009505  
1558.000000	0.008821  
1557.000000	0.008556  
1556.000000	0.008342  
1555.000000	0.008059  
1554.000000	0.007729  
1553.000000	0.007518  
1552.000000	0.007378  
1551.000000	0.007219  
1550.000000	0.007035  
1549.000000	0.006892  
1548.000000	0.006771  
1547.000000	0.006590  
1546.000000	0.006324  
1545.000000	0.006051  
1544.000000	0.005802  
1543.000000	0.005550  
1542.000000	0.005245  
1541.000000	0.005140  
1540.000000	0.005474  
1539.000000	0.005743  
1538.000000	0.005748  
1537.000000	0.005725  
1536.000000	0.005713  
1535.000000	0.005666  
1534.000000	0.005621  
1533.000000	0.005679  
1532.000000	0.005777  
1531.000000	0.005791  
1530.000000	0.005735  
1529.000000	0.005664  
1528.000000	0.005578  
1527.000000	0.005425  
1526.000000	0.005263  
1525.000000	0.005219  
1524.000000	0.005261  
1523.000000	0.005230  
1522.000000	0.005165  
1521.000000	0.005272  
1520.000000	0.005460  
1519.000000	0.005540  
1518.000000	0.005558  
1517.000000	0.005641  
1516.000000	0.005772  
1515.000000	0.005832  
1514.000000	0.005856  
1513.000000	0.005944  
1512.000000	0.006113  
1511.000000	0.006312  
1510.000000	0.006547  
1509.000000	0.006898  
1508.000000	0.007315  
1507.000000	0.007533  
1506.000000	0.007513  
1505.000000	0.007530  
1504.000000	0.007640  
1503.000000	0.007762  
1502.000000	0.007906  
1501.000000	0.008123  
1500.000000	0.008341  
1499.000000	0.008455  
1498.000000	0.008557  
1497.000000	0.008913  
1496.000000	0.009433  
1495.000000	0.009783  
1494.000000	0.009947  
1493.000000	0.010063  
1492.000000	0.010151  
1491.000000	0.010207  
1490.000000	0.010439  
1489.000000	0.011000  
1488.000000	0.011589  
1487.000000	0.012017  
1486.000000	0.012477  
1485.000000	0.013099  
1484.000000	0.013819  
1483.000000	0.014609  
1482.000000	0.015634  
1481.000000	0.016954  
1480.000000	0.018326  
1479.000000	0.019577  
1478.000000	0.020937  
1477.000000	0.022657  
1476.000000	0.024612  
1475.000000	0.026759  
1474.000000	0.030286  
1473.000000	0.036888  
1472.000000	0.045174  
1471.000000	0.052257  
1470.000000	0.058030  
1469.000000	0.063300  
1468.000000	0.068057  
1467.000000	0.072077  
1466.000000	0.075417  
1465.000000	0.078185  
1464.000000	0.080045  
1463.000000	0.080966  
1462.000000	0.081432  
1461.000000	0.081771  
1460.000000	0.082065  
1459.000000	0.082403  
1458.000000	0.082995  
1457.000000	0.083017  
1456.000000	0.081456  
1455.000000	0.079076  
1454.000000	0.076576  
1453.000000	0.073894  
1452.000000	0.071079  
1451.000000	0.068400  
1450.000000	0.065992  
1449.000000	0.063564  
1448.000000	0.060878  
1447.000000	0.058118  
1446.000000	0.055480  
1445.000000	0.052850  
1444.000000	0.050118  
1443.000000	0.047410  
1442.000000	0.044908  
1441.000000	0.042659  
1440.000000	0.040623  
1439.000000	0.038709  
1438.000000	0.036701  
1437.000000	0.034414  
1436.000000	0.032235  
1435.000000	0.030632  
1434.000000	0.029360  
1433.000000	0.027991  
1432.000000	0.026431  
1431.000000	0.024844  
1430.000000	0.023381  
1429.000000	0.022099  
1428.000000	0.021100  
1427.000000	0.020431  
1426.000000	0.019974  
1425.000000	0.019599  
1424.000000	0.019325  
1423.000000	0.019206  
1422.000000	0.019126  
1421.000000	0.018915  
1420.000000	0.018546  
1419.000000	0.018127  
1418.000000	0.017726  
1417.000000	0.017321  
1416.000000	0.016936  
1415.000000	0.016599  
1414.000000	0.016265  
1413.000000	0.015904  
1412.000000	0.015615  
1411.000000	0.015521  
1410.000000	0.015570  
1409.000000	0.015611  
1408.000000	0.015613  
1407.000000	0.015656  
1406.000000	0.015781  
1405.000000	0.015984  
1404.000000	0.016297  
1403.000000	0.016713  
1402.000000	0.017130  
1401.000000	0.017476  
1400.000000	0.017793  
1399.000000	0.018148  
1398.000000	0.018505  
1397.000000	0.018810  
1396.000000	0.019123  
1395.000000	0.019494  
1394.000000	0.019824  
1393.000000	0.020058  
1392.000000	0.020284  
1391.000000	0.020592  
1390.000000	0.021032  
1389.000000	0.021744  
1388.000000	0.022995  
1387.000000	0.024834  
1386.000000	0.026873  
1385.000000	0.028844  
1384.000000	0.030922  
1383.000000	0.033385  
1382.000000	0.036317  
1381.000000	0.039571  
1380.000000	0.042796  
1379.000000	0.045393  
1378.000000	0.046758  
1377.000000	0.046650  
1376.000000	0.045110  
1375.000000	0.042276  
1374.000000	0.038758  
1373.000000	0.035573  
1372.000000	0.033237  
1371.000000	0.031618  
1370.000000	0.030516  
1369.000000	0.029888  
1368.000000	0.029654  
1367.000000	0.029549  
1366.000000	0.029238  
1365.000000	0.028502  
1364.000000	0.027286  
1363.000000	0.025804  
1362.000000	0.024497  
1361.000000	0.023617  
1360.000000	0.023081  
1359.000000	0.022738  
1358.000000	0.022505  
1357.000000	0.022336  
1356.000000	0.022215  
1355.000000	0.022155  
1354.000000	0.022163  
1353.000000	0.022201  
1352.000000	0.022207  
1351.000000	0.022138  
1350.000000	0.021982  
1349.000000	0.021765  
1348.000000	0.021525  
1347.000000	0.021268  
1346.000000	0.020962  
1345.000000	0.020596  
1344.000000	0.020222  
1343.000000	0.019901  
1342.000000	0.019617  
1341.000000	0.019280  
1340.000000	0.018837  
1339.000000	0.018361  
1338.000000	0.017947  
1337.000000	0.017595  
1336.000000	0.017263  
1335.000000	0.016940  
1334.000000	0.016628  
1333.000000	0.016334  
1332.000000	0.016086  
1331.000000	0.015924  
1330.000000	0.015854  
1329.000000	0.015837  
1328.000000	0.015849  
1327.000000	0.015906  
1326.000000	0.016024  
1325.000000	0.016194  
1324.000000	0.016399  
1323.000000	0.016623  
1322.000000	0.016826  
1321.000000	0.016950  
1320.000000	0.016986  
1319.000000	0.016999  
1318.000000	0.017060  
1317.000000	0.017189  
1316.000000	0.017371  
1315.000000	0.017595  
1314.000000	0.017832  
1313.000000	0.018033  
1312.000000	0.018176  
1311.000000	0.018298  
1310.000000	0.018434  
1309.000000	0.018574  
1308.000000	0.018690  
1307.000000	0.018777  
1306.000000	0.018853  
1305.000000	0.018925  
1304.000000	0.018992  
1303.000000	0.019049  
1302.000000	0.019073  
1301.000000	0.019006  
1300.000000	0.018812  
1299.000000	0.018516  
1298.000000	0.018192  
1297.000000	0.017889  
1296.000000	0.017613  
1295.000000	0.017356  
1294.000000	0.017124  
1293.000000	0.016928  
1292.000000	0.016769  
1291.000000	0.016642  
1290.000000	0.016554  
1289.000000	0.016528  
1288.000000	0.016591  
1287.000000	0.016750  
1286.000000	0.016991  
1285.000000	0.017299  
1284.000000	0.017662  
1283.000000	0.018042  
1282.000000	0.018380  
1281.000000	0.018645  
1280.000000	0.018871  
1279.000000	0.019112  
1278.000000	0.019380  
1277.000000	0.019643  
1276.000000	0.019886  
1275.000000	0.020117  
1274.000000	0.020340  
1273.000000	0.020541  
1272.000000	0.020716  
1271.000000	0.020881  
1270.000000	0.021036  
1269.000000	0.021163  
1268.000000	0.021266  
1267.000000	0.021387  
1266.000000	0.021560  
1265.000000	0.021760  
1264.000000	0.021933  
1263.000000	0.022063  
1262.000000	0.022183  
1261.000000	0.022337  
1260.000000	0.022522  
1259.000000	0.022684  
1258.000000	0.022764  
1257.000000	0.022754  
1256.000000	0.022726  
1255.000000	0.022774  
1254.000000	0.022938  
1253.000000	0.023184  
1252.000000	0.023468  
1251.000000	0.023800  
1250.000000	0.024220  
1249.000000	0.024721  
1248.000000	0.025237  
1247.000000	0.025687  
1246.000000	0.026036  
1245.000000	0.026299  
1244.000000	0.026499  
1243.000000	0.026637  
1242.000000	0.026692  
1241.000000	0.026635  
1240.000000	0.026443  
1239.000000	0.026111  
1238.000000	0.025665  
1237.000000	0.025166  
1236.000000	0.024679  
1235.000000	0.024235  
1234.000000	0.023814  
1233.000000	0.023384  
1232.000000	0.022953  
1231.000000	0.022555  
1230.000000	0.022187  
1229.000000	0.021811  
1228.000000	0.021418  
1227.000000	0.021059  
1226.000000	0.020783  
1225.000000	0.020576  
1224.000000	0.020390  
1223.000000	0.020211  
1222.000000	0.020061  
1221.000000	0.019967  
1220.000000	0.019946  
1219.000000	0.020005  
1218.000000	0.020122  
1217.000000	0.020249  
1216.000000	0.020354  
1215.000000	0.020455  
1214.000000	0.020586  
1213.000000	0.020749  
1212.000000	0.020914  
1211.000000	0.021068  
1210.000000	0.021227  
1209.000000	0.021411  
1208.000000	0.021633  
1207.000000	0.021896  
1206.000000	0.022192  
1205.000000	0.022498  
1204.000000	0.022807  
1203.000000	0.023146  
1202.000000	0.023558  
1201.000000	0.024047  
1200.000000	0.024567  
1199.000000	0.025092  
1198.000000	0.025656  
1197.000000	0.026324  
1196.000000	0.027116  
1195.000000	0.027975  
1194.000000	0.028827  
1193.000000	0.029643  
1192.000000	0.030449  
1191.000000	0.031285  
1190.000000	0.032166  
1189.000000	0.033092  
1188.000000	0.034060  
1187.000000	0.035060  
1186.000000	0.036079  
1185.000000	0.037103  
1184.000000	0.038131  
1183.000000	0.039152  
1182.000000	0.040130  
1181.000000	0.041017  
1180.000000	0.041782  
1179.000000	0.042434  
1178.000000	0.042991  
1177.000000	0.043438  
1176.000000	0.043719  
1175.000000	0.043804  
1174.000000	0.043719  
1173.000000	0.043523  
1172.000000	0.043244  
1171.000000	0.042876  
1170.000000	0.042409  
1169.000000	0.041845  
1168.000000	0.041193  
1167.000000	0.040472  
1166.000000	0.039696  
1165.000000	0.038846  
1164.000000	0.037880  
1163.000000	0.036781  
1162.000000	0.035596  
1161.000000	0.034389  
1160.000000	0.033213  
1159.000000	0.032104  
1158.000000	0.031091  
1157.000000	0.030170  
1156.000000	0.029309  
1155.000000	0.028491  
1154.000000	0.027721  
1153.000000	0.026991  
1152.000000	0.026263  
1151.000000	0.025520  
1150.000000	0.024791  
1149.000000	0.024112  
1148.000000	0.023487  
1147.000000	0.022906  
1146.000000	0.022364  
1145.000000	0.021844  
1144.000000	0.021310  
1143.000000	0.020742  
1142.000000	0.020176  
1141.000000	0.019672  
1140.000000	0.019252  
1139.000000	0.018876  
1138.000000	0.018483  
1137.000000	0.018047  
1136.000000	0.017594  
1135.000000	0.017178  
1134.000000	0.016844  
1133.000000	0.016607  
1132.000000	0.016462  
1131.000000	0.016399  
1130.000000	0.016416  
1129.000000	0.016534  
1128.000000	0.016798  
1127.000000	0.017241  
1126.000000	0.017840  
1125.000000	0.018518  
1124.000000	0.019205  
1123.000000	0.019866  
1122.000000	0.020466  
1121.000000	0.020947  
1120.000000	0.021266  
1119.000000	0.021433  
1118.000000	0.021497  
1117.000000	0.021465  
1116.000000	0.021298  
1115.000000	0.020978  
1114.000000	0.020556  
1113.000000	0.020106  
1112.000000	0.019667  
1111.000000	0.019258  
1110.000000	0.018907  
1109.000000	0.018656  
1108.000000	0.018521  
1107.000000	0.018483  
1106.000000	0.018509  
1105.000000	0.018574  
1104.000000	0.018667  
1103.000000	0.018781  
1102.000000	0.018895  
1101.000000	0.018965  
1100.000000	0.018947  
1099.000000	0.018841  
1098.000000	0.018717  
1097.000000	0.018667  
1096.000000	0.018719  
1095.000000	0.018802  
1094.000000	0.018817  
1093.000000	0.018737  
1092.000000	0.018634  
1091.000000	0.018587  
1090.000000	0.018589  
1089.000000	0.018571  
1088.000000	0.018499  
1087.000000	0.018422  
1086.000000	0.018406  
1085.000000	0.018464  
1084.000000	0.018566  
1083.000000	0.018695  
1082.000000	0.018847  
1081.000000	0.018997  
1080.000000	0.019116  
1079.000000	0.019226  
1078.000000	0.019418  
1077.000000	0.019770  
1076.000000	0.020281  
1075.000000	0.020876  
1074.000000	0.021464  
1073.000000	0.021975  
1072.000000	0.022377  
1071.000000	0.022688  
1070.000000	0.022967  
1069.000000	0.023267  
1068.000000	0.023596  
1067.000000	0.023927  
1066.000000	0.024230  
1065.000000	0.024464  
1064.000000	0.024565  
1063.000000	0.024481  
1062.000000	0.024230  
1061.000000	0.023887  
1060.000000	0.023503  
1059.000000	0.023087  
1058.000000	0.022651  
1057.000000	0.022257  
1056.000000	0.021973  
1055.000000	0.021814  
1054.000000	0.021733  
1053.000000	0.021674  
1052.000000	0.021623  
1051.000000	0.021592  
1050.000000	0.021595  
1049.000000	0.021633  
1048.000000	0.021706  
1047.000000	0.021828  
1046.000000	0.022012  
1045.000000	0.022248  
1044.000000	0.022488  
1043.000000	0.022670  
1042.000000	0.022763  
1041.000000	0.022780  
1040.000000	0.022747  
1039.000000	0.022656  
1038.000000	0.022475  
1037.000000	0.022200  
1036.000000	0.021876  
1035.000000	0.021575  
1034.000000	0.021351  
1033.000000	0.021233  
1032.000000	0.021215  
1031.000000	0.021236  
1030.000000	0.021189  
1029.000000	0.020991  
1028.000000	0.020646  
1027.000000	0.020233  
1026.000000	0.019822  
1025.000000	0.019422  
1024.000000	0.019013  
1023.000000	0.018596  
1022.000000	0.018183  
1021.000000	0.017759  
1020.000000	0.017299  
1019.000000	0.016814  
1018.000000	0.016368  
1017.000000	0.016034  
1016.000000	0.015845  
1015.000000	0.015780  
1014.000000	0.015768  
1013.000000	0.015731  
1012.000000	0.015617  
1011.000000	0.015419  
1010.000000	0.015161  
1009.000000	0.014881  
1008.000000	0.014628  
1007.000000	0.014448  
1006.000000	0.014351  
1005.000000	0.014297  
1004.000000	0.014235  
1003.000000	0.014139  
1002.000000	0.014014  
1001.000000	0.013876  
1000.000000	0.013757  
999.000000	 0.013701  
998.000000	 0.013722  
997.000000	 0.013777  
996.000000	 0.013800  
995.000000	 0.013763  
994.000000	 0.013680  
993.000000	 0.013556  
992.000000	 0.013377  
991.000000	 0.013167  
990.000000	 0.012995  
989.000000	 0.012918  
988.000000	 0.012912  
987.000000	 0.012902  
986.000000	 0.012838  
985.000000	 0.012727  
984.000000	 0.012615  
983.000000	 0.012552  
982.000000	 0.012588  
981.000000	 0.012744  
980.000000	 0.012988  
979.000000	 0.013256  
978.000000	 0.013500  
977.000000	 0.013728  
976.000000	 0.013975  
975.000000	 0.014254  
974.000000	 0.014533  
973.000000	 0.014765  
972.000000	 0.014929  
971.000000	 0.015048  
970.000000	 0.015158  
969.000000	 0.015263  
968.000000	 0.015317  
967.000000	 0.015283  
966.000000	 0.015173  
965.000000	 0.015035  
964.000000	 0.014888  
963.000000	 0.014708  
962.000000	 0.014487  
961.000000	 0.014275  
960.000000	 0.014133  
959.000000	 0.014066  
958.000000	 0.014024  
957.000000	 0.013959  
956.000000	 0.013882  
955.000000	 0.013838  
954.000000	 0.013857  
953.000000	 0.013923  
952.000000	 0.013979  
951.000000	 0.013979  
950.000000	 0.013925  
949.000000	 0.013852  
948.000000	 0.013781  
947.000000	 0.013688  
946.000000	 0.013547  
945.000000	 0.013373  
944.000000	 0.013211  
943.000000	 0.013081  
942.000000	 0.012953  
941.000000	 0.012792  
940.000000	 0.012585  
939.000000	 0.012339  
938.000000	 0.012064  
937.000000	 0.011789  
936.000000	 0.011558  
935.000000	 0.011406  
934.000000	 0.011334  
933.000000	 0.011315  
932.000000	 0.011304  
931.000000	 0.011248  
930.000000	 0.011115  
929.000000	 0.010958  
928.000000	 0.010895  
927.000000	 0.011008  
926.000000	 0.011232  
925.000000	 0.011417  
924.000000	 0.011479  
923.000000	 0.011479  
922.000000	 0.011527  
921.000000	 0.011658  
920.000000	 0.011814  
919.000000	 0.011919  
918.000000	 0.011943  
917.000000	 0.011894  
916.000000	 0.011802  
915.000000	 0.011703  
914.000000	 0.011620  
913.000000	 0.011542  
912.000000	 0.011429  
911.000000	 0.011254  
910.000000	 0.011034  
909.000000	 0.010816  
908.000000	 0.010640  
907.000000	 0.010513  
906.000000	 0.010421  
905.000000	 0.010342  
904.000000	 0.010251  
903.000000	 0.010152  
902.000000	 0.010089  
901.000000	 0.010118  
900.000000	 0.010235  
899.000000	 0.010363  
898.000000	 0.010421  
897.000000	 0.010410  
896.000000	 0.010395  
895.000000	 0.010417  
894.000000	 0.010450  
893.000000	 0.010463  
892.000000	 0.010469  
891.000000	 0.010516  
890.000000	 0.010626  
889.000000	 0.010776  
888.000000	 0.010908  
887.000000	 0.010962  
886.000000	 0.010894  
885.000000	 0.010726  
884.000000	 0.010547  
883.000000	 0.010472  
882.000000	 0.010546  
881.000000	 0.010712  
880.000000	 0.010849  
879.000000	 0.010864  
878.000000	 0.010769  
877.000000	 0.010677  
876.000000	 0.010700  
875.000000	 0.010839  
874.000000	 0.010998  
873.000000	 0.011091  
872.000000	 0.011120  
871.000000	 0.011131  
870.000000	 0.011143  
869.000000	 0.011147  
868.000000	 0.011139  
867.000000	 0.011129  
866.000000	 0.011116  
865.000000	 0.011096  
864.000000	 0.011083  
863.000000	 0.011104  
862.000000	 0.011166  
861.000000	 0.011236  
860.000000	 0.011278  
859.000000	 0.011298  
858.000000	 0.011356  
857.000000	 0.011519  
856.000000	 0.011787  
855.000000	 0.012073  
854.000000	 0.012295  
853.000000	 0.012478  
852.000000	 0.012737  
851.000000	 0.013141  
850.000000	 0.013629  
849.000000	 0.014088  
848.000000	 0.014449  
847.000000	 0.014692  
846.000000	 0.014785  
845.000000	 0.014709  
844.000000	 0.014524  
843.000000	 0.014355  
842.000000	 0.014283  
841.000000	 0.014266  
840.000000	 0.014197  
839.000000	 0.014004  
838.000000	 0.013702  
837.000000	 0.013370  
836.000000	 0.013086  
835.000000	 0.012869  
834.000000	 0.012675  
833.000000	 0.012463  
832.000000	 0.012275  
831.000000	 0.012195  
830.000000	 0.012229  
829.000000	 0.012251  
828.000000	 0.012116  
827.000000	 0.011842  
826.000000	 0.011612  
825.000000	 0.011589  
824.000000	 0.011751  
823.000000	 0.011945  
822.000000	 0.012069  
821.000000	 0.012134  
820.000000	 0.012181  
819.000000	 0.012207  
818.000000	 0.012206  
817.000000	 0.012217  
816.000000	 0.012296  
815.000000	 0.012423  
814.000000	 0.012505  
813.000000	 0.012489  
812.000000	 0.012440  
811.000000	 0.012470  
810.000000	 0.012607  
809.000000	 0.012781  
808.000000	 0.012927  
807.000000	 0.013055  
806.000000	 0.013194  
805.000000	 0.013300  
804.000000	 0.013268  
803.000000	 0.013030  
802.000000	 0.012634  
801.000000	 0.012203  
800.000000	 0.011844  
799.000000	 0.011603  
798.000000	 0.011482  
797.000000	 0.011464  
796.000000	 0.011493  
795.000000	 0.011473  
794.000000	 0.011345  
793.000000	 0.011173  
792.000000	 0.011105  
791.000000	 0.011215  
790.000000	 0.011439  
789.000000	 0.011681  
788.000000	 0.011932  
787.000000	 0.012243  
786.000000	 0.012619  
785.000000	 0.013006  
784.000000	 0.013379  
783.000000	 0.013748  
782.000000	 0.014104  
781.000000	 0.014424  
780.000000	 0.014719  
779.000000	 0.015032  
778.000000	 0.015344  
777.000000	 0.015574  
776.000000	 0.015700  
775.000000	 0.015811  
774.000000	 0.016009  
773.000000	 0.016304  
772.000000	 0.016660  
771.000000	 0.017080  
770.000000	 0.017566  
769.000000	 0.018025  
768.000000	 0.018326  
767.000000	 0.018451  
766.000000	 0.018515  
765.000000	 0.018611  
764.000000	 0.018696  
763.000000	 0.018679  
762.000000	 0.018570  
761.000000	 0.018472  
760.000000	 0.018468  
759.000000	 0.018562  
758.000000	 0.018743  
757.000000	 0.019018  
756.000000	 0.019383  
755.000000	 0.019784  
754.000000	 0.020155  
753.000000	 0.020484  
752.000000	 0.020807  
751.000000	 0.021161  
750.000000	 0.021543  
749.000000	 0.021945  
748.000000	 0.022399  
747.000000	 0.023002  
746.000000	 0.023881  
745.000000	 0.025099  
744.000000	 0.026567  
743.000000	 0.028063  
742.000000	 0.029380  
741.000000	 0.030453  
740.000000	 0.031342  
739.000000	 0.032090  
738.000000	 0.032647  
737.000000	 0.032953  
736.000000	 0.033062  
735.000000	 0.033134  
734.000000	 0.033306  
733.000000	 0.033612  
732.000000	 0.034041  
731.000000	 0.034641  
730.000000	 0.035494  
729.000000	 0.036597  
728.000000	 0.037830  
727.000000	 0.039070  
726.000000	 0.040262  
725.000000	 0.041375  
724.000000	 0.042291  
723.000000	 0.042802  
722.000000	 0.042705  
721.000000	 0.041938  
720.000000	 0.040654  
719.000000	 0.039123  
718.000000	 0.037543  
717.000000	 0.035980  
716.000000	 0.034479  
715.000000	 0.033149  
714.000000	 0.032103  
713.000000	 0.031332  
712.000000	 0.030699  
711.000000	 0.030054  
710.000000	 0.029361  
709.000000	 0.028711  
708.000000	 0.028230  
707.000000	 0.027976  
706.000000	 0.027892  
705.000000	 0.027865  
704.000000	 0.027828  
703.000000	 0.027779  
702.000000	 0.027718  
701.000000	 0.027629  
700.000000	 0.027499  
699.000000	 0.027305  
698.000000	 0.026957  
697.000000	 0.026326  
696.000000	 0.025396  
695.000000	 0.024349  
694.000000	 0.023460  
693.000000	 0.022877  
692.000000	 0.022525  
691.000000	 0.022232  
690.000000	 0.021907  
689.000000	 0.021574  
688.000000	 0.021260  
687.000000	 0.020883  
686.000000	 0.020361  
685.000000	 0.019783  
684.000000	 0.019361  
683.000000	 0.019174  
682.000000	 0.019055  
681.000000	 0.018799  
680.000000	 0.018433  
679.000000	 0.018180  
678.000000	 0.018127  
677.000000	 0.018072  
676.000000	 0.017844  
675.000000	 0.017463  
674.000000	 0.017068  
673.000000	 0.016796  
672.000000	 0.016810  
671.000000	 0.017339  
670.000000	 0.018619  
669.000000	 0.020507  
668.000000	 0.021315  
667.000000	 0.019473  
666.000000	 0.016967  
665.000000	 0.015432  
664.000000	 0.014783  
663.000000	 0.014626  
662.000000	 0.014599  
661.000000	 0.014465  
660.000000	 0.014248  
659.000000	 0.014182  
658.000000	 0.014222  
657.000000	 0.014332  
656.000000	 0.014002  
655.000000	 0.013837  
654.000000	 0.012634  
653.000000	 0.008768  
652.000000	 0.009014  
651.000000	 0.008903  
650.000000	 0.009189  

