PE IR                   SPECTRUM    ASCII       PEDS        1.60        
  -1
NB421~1.ASC
17/05/24
07:48:19.00
17/05/24
07:48:19.00
Admin

650.000000
4









SPECTRUM ONE,CPU32 MAIN 00.02.6000 25-JUNE-2003 12:00:00
MIR TGS
MIR
OPTKBR
68128
0.200000

4.000000
STRONG
RATIO
SPECTRUM
MAGNITUDE
UNIVERSAL ATR
DOUBLE

COMBINED


0


#HDR
-1
-1
#GR
CM-1
A
0.00000011920928955078
0.0
4000.000000
-1.000000
3351
8
0.197110
-0.001654
#DATA
4000.000000	0.002741  
3999.000000	0.002668  
3998.000000	0.002538  
3997.000000	0.002367  
3996.000000	0.002183  
3995.000000	0.002033  
3994.000000	0.001939  
3993.000000	0.001893  
3992.000000	0.001879  
3991.000000	0.001911  
3990.000000	0.002020  
3989.000000	0.002207  
3988.000000	0.002414  
3987.000000	0.002562  
3986.000000	0.002604  
3985.000000	0.002556  
3984.000000	0.002477  
3983.000000	0.002420  
3982.000000	0.002387  
3981.000000	0.002336  
3980.000000	0.002222  
3979.000000	0.002046  
3978.000000	0.001854  
3977.000000	0.001718  
3976.000000	0.001683  
3975.000000	0.001740  
3974.000000	0.001838  
3973.000000	0.001928  
3972.000000	0.001999  
3971.000000	0.002071  
3970.000000	0.002166  
3969.000000	0.002263  
3968.000000	0.002315  
3967.000000	0.002284  
3966.000000	0.002183  
3965.000000	0.002065  
3964.000000	0.001984  
3963.000000	0.001959  
3962.000000	0.001965  
3961.000000	0.001962  
3960.000000	0.001930  
3959.000000	0.001880  
3958.000000	0.001841  
3957.000000	0.001845  
3956.000000	0.001901  
3955.000000	0.001988  
3954.000000	0.002061  
3953.000000	0.002083  
3952.000000	0.002049  
3951.000000	0.001990  
3950.000000	0.001944  
3949.000000	0.001921  
3948.000000	0.001889  
3947.000000	0.001812  
3946.000000	0.001681  
3945.000000	0.001532  
3944.000000	0.001449  
3943.000000	0.001514  
3942.000000	0.001736  
3941.000000	0.002024  
3940.000000	0.002246  
3939.000000	0.002315  
3938.000000	0.002237  
3937.000000	0.002095  
3936.000000	0.001976  
3935.000000	0.001899  
3934.000000	0.001815  
3933.000000	0.001674  
3932.000000	0.001506  
3931.000000	0.001402  
3930.000000	0.001409  
3929.000000	0.001475  
3928.000000	0.001520  
3927.000000	0.001500  
3926.000000	0.001434  
3925.000000	0.001380  
3924.000000	0.001379  
3923.000000	0.001409  
3922.000000	0.001417  
3921.000000	0.001385  
3920.000000	0.001361  
3919.000000	0.001416  
3918.000000	0.001556  
3917.000000	0.001716  
3916.000000	0.001850  
3915.000000	0.001974  
3914.000000	0.002126  
3913.000000	0.002306  
3912.000000	0.002470  
3911.000000	0.002557  
3910.000000	0.002513  
3909.000000	0.002322  
3908.000000	0.002021  
3907.000000	0.001708  
3906.000000	0.001517  
3905.000000	0.001523  
3904.000000	0.001647  
3903.000000	0.001729  
3902.000000	0.001724  
3901.000000	0.001742  
3900.000000	0.001895  
3899.000000	0.002156  
3898.000000	0.002393  
3897.000000	0.002496  
3896.000000	0.002432  
3895.000000	0.002243  
3894.000000	0.002018  
3893.000000	0.001856  
3892.000000	0.001807  
3891.000000	0.001840  
3890.000000	0.001912  
3889.000000	0.002001  
3888.000000	0.002060  
3887.000000	0.002026  
3886.000000	0.001909  
3885.000000	0.001817  
3884.000000	0.001833  
3883.000000	0.001933  
3882.000000	0.002021  
3881.000000	0.002033  
3880.000000	0.001976  
3879.000000	0.001900  
3878.000000	0.001826  
3877.000000	0.001726  
3876.000000	0.001577  
3875.000000	0.001420  
3874.000000	0.001347  
3873.000000	0.001395  
3872.000000	0.001497  
3871.000000	0.001561  
3870.000000	0.001590  
3869.000000	0.001671  
3868.000000	0.001836  
3867.000000	0.001995  
3866.000000	0.002025  
3865.000000	0.001939  
3864.000000	0.001894  
3863.000000	0.001954  
3862.000000	0.002015  
3861.000000	0.001981  
3860.000000	0.001864  
3859.000000	0.001742  
3858.000000	0.001676  
3857.000000	0.001669  
3856.000000	0.001668  
3855.000000	0.001604  
3854.000000	0.001538  
3853.000000	0.001591  
3852.000000	0.001698  
3851.000000	0.001820  
3850.000000	0.001971  
3849.000000	0.002145  
3848.000000	0.002297  
3847.000000	0.002349  
3846.000000	0.002251  
3845.000000	0.002053  
3844.000000	0.001904  
3843.000000	0.001921  
3842.000000	0.002069  
3841.000000	0.002220  
3840.000000	0.002308  
3839.000000	0.002404  
3838.000000	0.002567  
3837.000000	0.002719  
3836.000000	0.002762  
3835.000000	0.002680  
3834.000000	0.002517  
3833.000000	0.002331  
3832.000000	0.002167  
3831.000000	0.002063  
3830.000000	0.002038  
3829.000000	0.002067  
3828.000000	0.002090  
3827.000000	0.002067  
3826.000000	0.002032  
3825.000000	0.002068  
3824.000000	0.002205  
3823.000000	0.002364  
3822.000000	0.002440  
3821.000000	0.002452  
3820.000000	0.002498  
3819.000000	0.002633  
3818.000000	0.002783  
3817.000000	0.002777  
3816.000000	0.002563  
3815.000000	0.002290  
3814.000000	0.002118  
3813.000000	0.002047  
3812.000000	0.001997  
3811.000000	0.001940  
3810.000000	0.001918  
3809.000000	0.001944  
3808.000000	0.001961  
3807.000000	0.001941  
3806.000000	0.001969  
3805.000000	0.002148  
3804.000000	0.002427  
3803.000000	0.002589  
3802.000000	0.002456  
3801.000000	0.002142  
3800.000000	0.001923  
3799.000000	0.001933  
3798.000000	0.002089  
3797.000000	0.002228  
3796.000000	0.002261  
3795.000000	0.002215  
3794.000000	0.002148  
3793.000000	0.002059  
3792.000000	0.001919  
3791.000000	0.001729  
3790.000000	0.001532  
3789.000000	0.001391  
3788.000000	0.001362  
3787.000000	0.001465  
3786.000000	0.001666  
3785.000000	0.001884  
3784.000000	0.002048  
3783.000000	0.002139  
3782.000000	0.002149  
3781.000000	0.002063  
3780.000000	0.001901  
3779.000000	0.001741  
3778.000000	0.001646  
3777.000000	0.001616  
3776.000000	0.001610  
3775.000000	0.001601  
3774.000000	0.001606  
3773.000000	0.001651  
3772.000000	0.001707  
3771.000000	0.001712  
3770.000000	0.001660  
3769.000000	0.001636  
3768.000000	0.001702  
3767.000000	0.001812  
3766.000000	0.001855  
3765.000000	0.001786  
3764.000000	0.001690  
3763.000000	0.001679  
3762.000000	0.001773  
3761.000000	0.001900  
3760.000000	0.001959  
3759.000000	0.001899  
3758.000000	0.001751  
3757.000000	0.001617  
3756.000000	0.001595  
3755.000000	0.001711  
3754.000000	0.001890  
3753.000000	0.002010  
3752.000000	0.002044  
3751.000000	0.002100  
3750.000000	0.002187  
3749.000000	0.002219  
3748.000000	0.002184  
3747.000000	0.002086  
3746.000000	0.001869  
3745.000000	0.001508  
3744.000000	0.001153  
3743.000000	0.000980  
3742.000000	0.000964  
3741.000000	0.000962  
3740.000000	0.000928  
3739.000000	0.000962  
3738.000000	0.001177  
3737.000000	0.001535  
3736.000000	0.001851  
3735.000000	0.001995  
3734.000000	0.002013  
3733.000000	0.001942  
3732.000000	0.001748  
3731.000000	0.001467  
3730.000000	0.001190  
3729.000000	0.000953  
3728.000000	0.000711  
3727.000000	0.000427  
3726.000000	0.000164  
3725.000000	0.000050  
3724.000000	0.000151  
3723.000000	0.000421  
3722.000000	0.000744  
3721.000000	0.001024  
3720.000000	0.001223  
3719.000000	0.001340  
3718.000000	0.001382  
3717.000000	0.001370  
3716.000000	0.001331  
3715.000000	0.001262  
3714.000000	0.001122  
3713.000000	0.000938  
3712.000000	0.000899  
3711.000000	0.001108  
3710.000000	0.001367  
3709.000000	0.001495  
3708.000000	0.001521  
3707.000000	0.001554  
3706.000000	0.001646  
3705.000000	0.001776  
3704.000000	0.001884  
3703.000000	0.001925  
3702.000000	0.001888  
3701.000000	0.001791  
3700.000000	0.001678  
3699.000000	0.001604  
3698.000000	0.001590  
3697.000000	0.001609  
3696.000000	0.001638  
3695.000000	0.001676  
3694.000000	0.001733  
3693.000000	0.001807  
3692.000000	0.001887  
3691.000000	0.001972  
3690.000000	0.002055  
3689.000000	0.002065  
3688.000000	0.001966  
3687.000000	0.001848  
3686.000000	0.001795  
3685.000000	0.001783  
3684.000000	0.001743  
3683.000000	0.001647  
3682.000000	0.001524  
3681.000000	0.001436  
3680.000000	0.001449  
3679.000000	0.001608  
3678.000000	0.001882  
3677.000000	0.002130  
3676.000000	0.002209  
3675.000000	0.002126  
3674.000000	0.002025  
3673.000000	0.002047  
3672.000000	0.002195  
3671.000000	0.002392  
3670.000000	0.002539  
3669.000000	0.002542  
3668.000000	0.002414  
3667.000000	0.002233  
3666.000000	0.002046  
3665.000000	0.001874  
3664.000000	0.001739  
3663.000000	0.001667  
3662.000000	0.001678  
3661.000000	0.001765  
3660.000000	0.001885  
3659.000000	0.001959  
3658.000000	0.001923  
3657.000000	0.001810  
3656.000000	0.001757  
3655.000000	0.001865  
3654.000000	0.002104  
3653.000000	0.002345  
3652.000000	0.002454  
3651.000000	0.002437  
3650.000000	0.002523  
3649.000000	0.002791  
3648.000000	0.002943  
3647.000000	0.002858  
3646.000000	0.002683  
3645.000000	0.002532  
3644.000000	0.002411  
3643.000000	0.002308  
3642.000000	0.002252  
3641.000000	0.002280  
3640.000000	0.002352  
3639.000000	0.002357  
3638.000000	0.002216  
3637.000000	0.001957  
3636.000000	0.001677  
3635.000000	0.001457  
3634.000000	0.001333  
3633.000000	0.001313  
3632.000000	0.001407  
3631.000000	0.001623  
3630.000000	0.001952  
3629.000000	0.002315  
3628.000000	0.002578  
3627.000000	0.002719  
3626.000000	0.002777  
3625.000000	0.002771  
3624.000000	0.002739  
3623.000000	0.002738  
3622.000000	0.002799  
3621.000000	0.002873  
3620.000000	0.002863  
3619.000000	0.002710  
3618.000000	0.002463  
3617.000000	0.002205  
3616.000000	0.001984  
3615.000000	0.001823  
3614.000000	0.001749  
3613.000000	0.001763  
3612.000000	0.001818  
3611.000000	0.001855  
3610.000000	0.001873  
3609.000000	0.001945  
3608.000000	0.002146  
3607.000000	0.002448  
3606.000000	0.002759  
3605.000000	0.003014  
3604.000000	0.003187  
3603.000000	0.003260  
3602.000000	0.003233  
3601.000000	0.003144  
3600.000000	0.003068  
3599.000000	0.003034  
3598.000000	0.002991  
3597.000000	0.002873  
3596.000000	0.002689  
3595.000000	0.002553  
3594.000000	0.002584  
3593.000000	0.002779  
3592.000000	0.002999  
3591.000000	0.003073  
3590.000000	0.002897  
3589.000000	0.002549  
3588.000000	0.002346  
3587.000000	0.002573  
3586.000000	0.003130  
3585.000000	0.003691  
3584.000000	0.004013  
3583.000000	0.004045  
3582.000000	0.003909  
3581.000000	0.003799  
3580.000000	0.003846  
3579.000000	0.004027  
3578.000000	0.004210  
3577.000000	0.004281  
3576.000000	0.004229  
3575.000000	0.004116  
3574.000000	0.004005  
3573.000000	0.003909  
3572.000000	0.003805  
3571.000000	0.003668  
3570.000000	0.003510  
3569.000000	0.003405  
3568.000000	0.003453  
3567.000000	0.003657  
3566.000000	0.003873  
3565.000000	0.004000  
3564.000000	0.004072  
3563.000000	0.004179  
3562.000000	0.004360  
3561.000000	0.004562  
3560.000000	0.004704  
3559.000000	0.004766  
3558.000000	0.004790  
3557.000000	0.004797  
3556.000000	0.004767  
3555.000000	0.004686  
3554.000000	0.004610  
3553.000000	0.004625  
3552.000000	0.004741  
3551.000000	0.004855  
3550.000000	0.004850  
3549.000000	0.004722  
3548.000000	0.004600  
3547.000000	0.004651  
3546.000000	0.004914  
3545.000000	0.005255  
3544.000000	0.005512  
3543.000000	0.005639  
3542.000000	0.005697  
3541.000000	0.005764  
3540.000000	0.005854  
3539.000000	0.005912  
3538.000000	0.005872  
3537.000000	0.005724  
3536.000000	0.005540  
3535.000000	0.005406  
3534.000000	0.005357  
3533.000000	0.005383  
3532.000000	0.005451  
3531.000000	0.005525  
3530.000000	0.005562  
3529.000000	0.005537  
3528.000000	0.005472  
3527.000000	0.005417  
3526.000000	0.005408  
3525.000000	0.005448  
3524.000000	0.005543  
3523.000000	0.005712  
3522.000000	0.005956  
3521.000000	0.006224  
3520.000000	0.006430  
3519.000000	0.006513  
3518.000000	0.006477  
3517.000000	0.006394  
3516.000000	0.006358  
3515.000000	0.006414  
3514.000000	0.006543  
3513.000000	0.006696  
3512.000000	0.006859  
3511.000000	0.007045  
3510.000000	0.007238  
3509.000000	0.007368  
3508.000000	0.007377  
3507.000000	0.007287  
3506.000000	0.007177  
3505.000000	0.007103  
3504.000000	0.007066  
3503.000000	0.007032  
3502.000000	0.007002  
3501.000000	0.007009  
3500.000000	0.007070  
3499.000000	0.007176  
3498.000000	0.007313  
3497.000000	0.007484  
3496.000000	0.007669  
3495.000000	0.007803  
3494.000000	0.007822  
3493.000000	0.007751  
3492.000000	0.007702  
3491.000000	0.007771  
3490.000000	0.007942  
3489.000000	0.008104  
3488.000000	0.008187  
3487.000000	0.008243  
3486.000000	0.008351  
3485.000000	0.008497  
3484.000000	0.008566  
3483.000000	0.008481  
3482.000000	0.008303  
3481.000000	0.008189  
3480.000000	0.008243  
3479.000000	0.008442  
3478.000000	0.008694  
3477.000000	0.008924  
3476.000000	0.009105  
3475.000000	0.009227  
3474.000000	0.009266  
3473.000000	0.009207  
3472.000000	0.009089  
3471.000000	0.008992  
3470.000000	0.008977  
3469.000000	0.009043  
3468.000000	0.009149  
3467.000000	0.009262  
3466.000000	0.009367  
3465.000000	0.009443  
3464.000000	0.009447  
3463.000000	0.009359  
3462.000000	0.009219  
3461.000000	0.009120  
3460.000000	0.009140  
3459.000000	0.009279  
3458.000000	0.009468  
3457.000000	0.009633  
3456.000000	0.009760  
3455.000000	0.009886  
3454.000000	0.010027  
3453.000000	0.010149  
3452.000000	0.010212  
3451.000000	0.010236  
3450.000000	0.010275  
3449.000000	0.010350  
3448.000000	0.010430  
3447.000000	0.010477  
3446.000000	0.010487  
3445.000000	0.010463  
3444.000000	0.010398  
3443.000000	0.010310  
3442.000000	0.010267  
3441.000000	0.010339  
3440.000000	0.010513  
3439.000000	0.010693  
3438.000000	0.010778  
3437.000000	0.010746  
3436.000000	0.010657  
3435.000000	0.010586  
3434.000000	0.010563  
3433.000000	0.010579  
3432.000000	0.010638  
3431.000000	0.010768  
3430.000000	0.010977  
3429.000000	0.011209  
3428.000000	0.011372  
3427.000000	0.011423  
3426.000000	0.011403  
3425.000000	0.011380  
3424.000000	0.011362  
3423.000000	0.011297  
3422.000000	0.011148  
3421.000000	0.010967  
3420.000000	0.010861  
3419.000000	0.010892  
3418.000000	0.011026  
3417.000000	0.011181  
3416.000000	0.011316  
3415.000000	0.011454  
3414.000000	0.011640  
3413.000000	0.011870  
3412.000000	0.012073  
3411.000000	0.012153  
3410.000000	0.012074  
3409.000000	0.011890  
3408.000000	0.011711  
3407.000000	0.011620  
3406.000000	0.011622  
3405.000000	0.011680  
3404.000000	0.011760  
3403.000000	0.011840  
3402.000000	0.011893  
3401.000000	0.011895  
3400.000000	0.011863  
3399.000000	0.011857  
3398.000000	0.011911  
3397.000000	0.012006  
3396.000000	0.012105  
3395.000000	0.012192  
3394.000000	0.012265  
3393.000000	0.012306  
3392.000000	0.012300  
3391.000000	0.012271  
3390.000000	0.012258  
3389.000000	0.012266  
3388.000000	0.012264  
3387.000000	0.012240  
3386.000000	0.012225  
3385.000000	0.012247  
3384.000000	0.012284  
3383.000000	0.012293  
3382.000000	0.012270  
3381.000000	0.012259  
3380.000000	0.012297  
3379.000000	0.012377  
3378.000000	0.012468  
3377.000000	0.012560  
3376.000000	0.012664  
3375.000000	0.012771  
3374.000000	0.012832  
3373.000000	0.012798  
3372.000000	0.012692  
3371.000000	0.012607  
3370.000000	0.012616  
3369.000000	0.012689  
3368.000000	0.012725  
3367.000000	0.012653  
3366.000000	0.012491  
3365.000000	0.012306  
3364.000000	0.012161  
3363.000000	0.012103  
3362.000000	0.012162  
3361.000000	0.012332  
3360.000000	0.012549  
3359.000000	0.012725  
3358.000000	0.012803  
3357.000000	0.012779  
3356.000000	0.012699  
3355.000000	0.012630  
3354.000000	0.012623  
3353.000000	0.012689  
3352.000000	0.012795  
3351.000000	0.012892  
3350.000000	0.012943  
3349.000000	0.012926  
3348.000000	0.012830  
3347.000000	0.012684  
3346.000000	0.012570  
3345.000000	0.012588  
3344.000000	0.012764  
3343.000000	0.013014  
3342.000000	0.013202  
3341.000000	0.013234  
3340.000000	0.013111  
3339.000000	0.012895  
3338.000000	0.012669  
3337.000000	0.012521  
3336.000000	0.012513  
3335.000000	0.012639  
3334.000000	0.012809  
3333.000000	0.012912  
3332.000000	0.012894  
3331.000000	0.012778  
3330.000000	0.012623  
3329.000000	0.012470  
3328.000000	0.012339  
3327.000000	0.012256  
3326.000000	0.012257  
3325.000000	0.012368  
3324.000000	0.012574  
3323.000000	0.012808  
3322.000000	0.012984  
3321.000000	0.013044  
3320.000000	0.013003  
3319.000000	0.012917  
3318.000000	0.012826  
3317.000000	0.012733  
3316.000000	0.012636  
3315.000000	0.012563  
3314.000000	0.012537  
3313.000000	0.012537  
3312.000000	0.012518  
3311.000000	0.012465  
3310.000000	0.012408  
3309.000000	0.012387  
3308.000000	0.012425  
3307.000000	0.012516  
3306.000000	0.012620  
3305.000000	0.012673  
3304.000000	0.012639  
3303.000000	0.012554  
3302.000000	0.012499  
3301.000000	0.012513  
3300.000000	0.012550  
3299.000000	0.012542  
3298.000000	0.012470  
3297.000000	0.012375  
3296.000000	0.012297  
3295.000000	0.012246  
3294.000000	0.012213  
3293.000000	0.012200  
3292.000000	0.012220  
3291.000000	0.012274  
3290.000000	0.012317  
3289.000000	0.012281  
3288.000000	0.012144  
3287.000000	0.011984  
3286.000000	0.011918  
3285.000000	0.011975  
3284.000000	0.012064  
3283.000000	0.012081  
3282.000000	0.012033  
3281.000000	0.012003  
3280.000000	0.012030  
3279.000000	0.012044  
3278.000000	0.011959  
3277.000000	0.011772  
3276.000000	0.011564  
3275.000000	0.011418  
3274.000000	0.011359  
3273.000000	0.011363  
3272.000000	0.011391  
3271.000000	0.011421  
3270.000000	0.011443  
3269.000000	0.011455  
3268.000000	0.011446  
3267.000000	0.011401  
3266.000000	0.011318  
3265.000000	0.011215  
3264.000000	0.011128  
3263.000000	0.011082  
3262.000000	0.011082  
3261.000000	0.011115  
3260.000000	0.011155  
3259.000000	0.011186  
3258.000000	0.011210  
3257.000000	0.011244  
3256.000000	0.011294  
3255.000000	0.011330  
3254.000000	0.011298  
3253.000000	0.011179  
3252.000000	0.011027  
3251.000000	0.010934  
3250.000000	0.010940  
3249.000000	0.010994  
3248.000000	0.011008  
3247.000000	0.010958  
3246.000000	0.010902  
3245.000000	0.010900  
3244.000000	0.010931  
3243.000000	0.010913  
3242.000000	0.010780  
3241.000000	0.010552  
3240.000000	0.010314  
3239.000000	0.010160  
3238.000000	0.010136  
3237.000000	0.010224  
3236.000000	0.010355  
3235.000000	0.010453  
3234.000000	0.010481  
3233.000000	0.010450  
3232.000000	0.010389  
3231.000000	0.010307  
3230.000000	0.010202  
3229.000000	0.010100  
3228.000000	0.010058  
3227.000000	0.010116  
3226.000000	0.010245  
3225.000000	0.010372  
3224.000000	0.010454  
3223.000000	0.010501  
3222.000000	0.010514  
3221.000000	0.010459  
3220.000000	0.010315  
3219.000000	0.010148  
3218.000000	0.010055  
3217.000000	0.010053  
3216.000000	0.010055  
3215.000000	0.009977  
3214.000000	0.009834  
3213.000000	0.009716  
3212.000000	0.009678  
3211.000000	0.009699  
3210.000000	0.009711  
3209.000000	0.009659  
3208.000000	0.009539  
3207.000000	0.009406  
3206.000000	0.009338  
3205.000000	0.009366  
3204.000000	0.009439  
3203.000000	0.009474  
3202.000000	0.009430  
3201.000000	0.009333  
3200.000000	0.009234  
3199.000000	0.009173  
3198.000000	0.009167  
3197.000000	0.009183  
3196.000000	0.009138  
3195.000000	0.008966  
3194.000000	0.008700  
3193.000000	0.008473  
3192.000000	0.008400  
3191.000000	0.008479  
3190.000000	0.008615  
3189.000000	0.008717  
3188.000000	0.008756  
3187.000000	0.008735  
3186.000000	0.008665  
3185.000000	0.008568  
3184.000000	0.008502  
3183.000000	0.008519  
3182.000000	0.008620  
3181.000000	0.008739  
3180.000000	0.008783  
3179.000000	0.008705  
3178.000000	0.008531  
3177.000000	0.008336  
3176.000000	0.008187  
3175.000000	0.008108  
3174.000000	0.008096  
3173.000000	0.008130  
3172.000000	0.008173  
3171.000000	0.008172  
3170.000000	0.008093  
3169.000000	0.007955  
3168.000000	0.007826  
3167.000000	0.007777  
3166.000000	0.007829  
3165.000000	0.007946  
3164.000000	0.008054  
3163.000000	0.008086  
3162.000000	0.008016  
3161.000000	0.007875  
3160.000000	0.007719  
3159.000000	0.007577  
3158.000000	0.007441  
3157.000000	0.007306  
3156.000000	0.007220  
3155.000000	0.007247  
3154.000000	0.007384  
3153.000000	0.007534  
3152.000000	0.007573  
3151.000000	0.007462  
3150.000000	0.007269  
3149.000000	0.007104  
3148.000000	0.007036  
3147.000000	0.007056  
3146.000000	0.007101  
3145.000000	0.007100  
3144.000000	0.007019  
3143.000000	0.006884  
3142.000000	0.006756  
3141.000000	0.006685  
3140.000000	0.006676  
3139.000000	0.006701  
3138.000000	0.006737  
3137.000000	0.006788  
3136.000000	0.006872  
3135.000000	0.006987  
3134.000000	0.007082  
3133.000000	0.007080  
3132.000000	0.006948  
3131.000000	0.006740  
3130.000000	0.006564  
3129.000000	0.006482  
3128.000000	0.006470  
3127.000000	0.006465  
3126.000000	0.006433  
3125.000000	0.006394  
3124.000000	0.006385  
3123.000000	0.006416  
3122.000000	0.006477  
3121.000000	0.006548  
3120.000000	0.006621  
3119.000000	0.006692  
3118.000000	0.006743  
3117.000000	0.006735  
3116.000000	0.006648  
3115.000000	0.006522  
3114.000000	0.006447  
3113.000000	0.006482  
3112.000000	0.006599  
3111.000000	0.006703  
3110.000000	0.006716  
3109.000000	0.006625  
3108.000000	0.006471  
3107.000000	0.006321  
3106.000000	0.006225  
3105.000000	0.006196  
3104.000000	0.006196  
3103.000000	0.006175  
3102.000000	0.006126  
3101.000000	0.006086  
3100.000000	0.006093  
3099.000000	0.006125  
3098.000000	0.006123  
3097.000000	0.006052  
3096.000000	0.005940  
3095.000000	0.005849  
3094.000000	0.005819  
3093.000000	0.005840  
3092.000000	0.005873  
3091.000000	0.005882  
3090.000000	0.005852  
3089.000000	0.005799  
3088.000000	0.005758  
3087.000000	0.005758  
3086.000000	0.005797  
3085.000000	0.005847  
3084.000000	0.005877  
3083.000000	0.005878  
3082.000000	0.005862  
3081.000000	0.005841  
3080.000000	0.005824  
3079.000000	0.005822  
3078.000000	0.005848  
3077.000000	0.005912  
3076.000000	0.006012  
3075.000000	0.006122  
3074.000000	0.006203  
3073.000000	0.006215  
3072.000000	0.006149  
3071.000000	0.006043  
3070.000000	0.005958  
3069.000000	0.005933  
3068.000000	0.005967  
3067.000000	0.006026  
3066.000000	0.006069  
3065.000000	0.006060  
3064.000000	0.005997  
3063.000000	0.005910  
3062.000000	0.005850  
3061.000000	0.005851  
3060.000000	0.005920  
3059.000000	0.006026  
3058.000000	0.006104  
3057.000000	0.006087  
3056.000000	0.005972  
3055.000000	0.005842  
3054.000000	0.005805  
3053.000000	0.005898  
3052.000000	0.006058  
3051.000000	0.006197  
3050.000000	0.006263  
3049.000000	0.006256  
3048.000000	0.006202  
3047.000000	0.006147  
3046.000000	0.006140  
3045.000000	0.006199  
3044.000000	0.006288  
3043.000000	0.006361  
3042.000000	0.006419  
3041.000000	0.006488  
3040.000000	0.006574  
3039.000000	0.006638  
3038.000000	0.006648  
3037.000000	0.006618  
3036.000000	0.006595  
3035.000000	0.006620  
3034.000000	0.006716  
3033.000000	0.006888  
3032.000000	0.007106  
3031.000000	0.007312  
3030.000000	0.007460  
3029.000000	0.007549  
3028.000000	0.007622  
3027.000000	0.007722  
3026.000000	0.007862  
3025.000000	0.008022  
3024.000000	0.008184  
3023.000000	0.008359  
3022.000000	0.008591  
3021.000000	0.008931  
3020.000000	0.009382  
3019.000000	0.009894  
3018.000000	0.010403  
3017.000000	0.010889  
3016.000000	0.011371  
3015.000000	0.011863  
3014.000000	0.012347  
3013.000000	0.012797  
3012.000000	0.013192  
3011.000000	0.013495  
3010.000000	0.013641  
3009.000000	0.013590  
3008.000000	0.013383  
3007.000000	0.013127  
3006.000000	0.012892  
3005.000000	0.012675  
3004.000000	0.012447  
3003.000000	0.012220  
3002.000000	0.012029  
3001.000000	0.011871  
3000.000000	0.011714  
2999.000000	0.011559  
2998.000000	0.011464  
2997.000000	0.011496  
2996.000000	0.011665  
2995.000000	0.011913  
2994.000000	0.012158  
2993.000000	0.012346  
2992.000000	0.012483  
2991.000000	0.012638  
2990.000000	0.012916  
2989.000000	0.013402  
2988.000000	0.014098  
2987.000000	0.014911  
2986.000000	0.015718  
2985.000000	0.016475  
2984.000000	0.017265  
2983.000000	0.018211  
2982.000000	0.019366  
2981.000000	0.020686  
2980.000000	0.022131  
2979.000000	0.023745  
2978.000000	0.025601  
2977.000000	0.027716  
2976.000000	0.030054  
2975.000000	0.032624  
2974.000000	0.035520  
2973.000000	0.038839  
2972.000000	0.042585  
2971.000000	0.046686  
2970.000000	0.051070  
2969.000000	0.055714  
2968.000000	0.060616  
2967.000000	0.065744  
2966.000000	0.071014  
2965.000000	0.076306  
2964.000000	0.081506  
2963.000000	0.086523  
2962.000000	0.091273  
2961.000000	0.095666  
2960.000000	0.099609  
2959.000000	0.103017  
2958.000000	0.105798  
2957.000000	0.107841  
2956.000000	0.109036  
2955.000000	0.109339  
2954.000000	0.108799  
2953.000000	0.107564  
2952.000000	0.105826  
2951.000000	0.103772  
2950.000000	0.101580  
2949.000000	0.099452  
2948.000000	0.097622  
2947.000000	0.096296  
2946.000000	0.095590  
2945.000000	0.095549  
2944.000000	0.096235  
2943.000000	0.097750  
2942.000000	0.100161  
2941.000000	0.103418  
2940.000000	0.107395  
2939.000000	0.111994  
2938.000000	0.117158  
2937.000000	0.122804  
2936.000000	0.128780  
2935.000000	0.134935  
2934.000000	0.141196  
2933.000000	0.147563  
2932.000000	0.154057  
2931.000000	0.160656  
2930.000000	0.167255  
2929.000000	0.173676  
2928.000000	0.179708  
2927.000000	0.185155  
2926.000000	0.189831  
2925.000000	0.193524  
2924.000000	0.196010  
2923.000000	0.197110  
2922.000000	0.196772  
2921.000000	0.195109  
2920.000000	0.192348  
2919.000000	0.188717  
2918.000000	0.184379  
2917.000000	0.179480  
2916.000000	0.174209  
2915.000000	0.168787  
2914.000000	0.163394  
2913.000000	0.158140  
2912.000000	0.153091  
2911.000000	0.148301  
2910.000000	0.143785  
2909.000000	0.139519  
2908.000000	0.135453  
2907.000000	0.131560  
2906.000000	0.127833  
2905.000000	0.124248  
2904.000000	0.120757  
2903.000000	0.117331  
2902.000000	0.113994  
2901.000000	0.110781  
2900.000000	0.107665  
2899.000000	0.104570  
2898.000000	0.101446  
2897.000000	0.098317  
2896.000000	0.095234  
2895.000000	0.092226  
2894.000000	0.089314  
2893.000000	0.086539  
2892.000000	0.083926  
2891.000000	0.081444  
2890.000000	0.079027  
2889.000000	0.076658  
2888.000000	0.074410  
2887.000000	0.072399  
2886.000000	0.070735  
2885.000000	0.069502  
2884.000000	0.068751  
2883.000000	0.068502  
2882.000000	0.068773  
2881.000000	0.069606  
2880.000000	0.071052  
2879.000000	0.073122  
2878.000000	0.075738  
2877.000000	0.078742  
2876.000000	0.081906  
2875.000000	0.084943  
2874.000000	0.087541  
2873.000000	0.089455  
2872.000000	0.090625  
2871.000000	0.091202  
2870.000000	0.091455  
2869.000000	0.091634  
2868.000000	0.091891  
2867.000000	0.092320  
2866.000000	0.093064  
2865.000000	0.094351  
2864.000000	0.096382  
2863.000000	0.099192  
2862.000000	0.102626  
2861.000000	0.106474  
2860.000000	0.110555  
2859.000000	0.114690  
2858.000000	0.118631  
2857.000000	0.122097  
2856.000000	0.124830  
2855.000000	0.126567  
2854.000000	0.126994  
2853.000000	0.125833  
2852.000000	0.123018  
2851.000000	0.118757  
2850.000000	0.113412  
2849.000000	0.107362  
2848.000000	0.100929  
2847.000000	0.094382  
2846.000000	0.087923  
2845.000000	0.081667  
2844.000000	0.075659  
2843.000000	0.069905  
2842.000000	0.064432  
2841.000000	0.059299  
2840.000000	0.054567  
2839.000000	0.050256  
2838.000000	0.046346  
2837.000000	0.042827  
2836.000000	0.039708  
2835.000000	0.036988  
2834.000000	0.034621  
2833.000000	0.032523  
2832.000000	0.030618  
2831.000000	0.028861  
2830.000000	0.027233  
2829.000000	0.025738  
2828.000000	0.024394  
2827.000000	0.023215  
2826.000000	0.022186  
2825.000000	0.021256  
2824.000000	0.020377  
2823.000000	0.019532  
2822.000000	0.018730  
2821.000000	0.017991  
2820.000000	0.017328  
2819.000000	0.016741  
2818.000000	0.016210  
2817.000000	0.015711  
2816.000000	0.015244  
2815.000000	0.014828  
2814.000000	0.014463  
2813.000000	0.014116  
2812.000000	0.013752  
2811.000000	0.013372  
2810.000000	0.012995  
2809.000000	0.012625  
2808.000000	0.012257  
2807.000000	0.011911  
2806.000000	0.011635  
2805.000000	0.011463  
2804.000000	0.011374  
2803.000000	0.011304  
2802.000000	0.011179  
2801.000000	0.010952  
2800.000000	0.010641  
2799.000000	0.010334  
2798.000000	0.010123  
2797.000000	0.010021  
2796.000000	0.009959  
2795.000000	0.009871  
2794.000000	0.009766  
2793.000000	0.009680  
2792.000000	0.009612  
2791.000000	0.009527  
2790.000000	0.009407  
2789.000000	0.009276  
2788.000000	0.009147  
2787.000000	0.009010  
2786.000000	0.008850  
2785.000000	0.008685  
2784.000000	0.008534  
2783.000000	0.008399  
2782.000000	0.008257  
2781.000000	0.008098  
2780.000000	0.007934  
2779.000000	0.007787  
2778.000000	0.007671  
2777.000000	0.007580  
2776.000000	0.007490  
2775.000000	0.007372  
2774.000000	0.007209  
2773.000000	0.006999  
2772.000000	0.006767  
2771.000000	0.006559  
2770.000000	0.006420  
2769.000000	0.006365  
2768.000000	0.006354  
2767.000000	0.006327  
2766.000000	0.006262  
2765.000000	0.006187  
2764.000000	0.006150  
2763.000000	0.006162  
2762.000000	0.006186  
2761.000000	0.006171  
2760.000000	0.006084  
2759.000000	0.005936  
2758.000000	0.005766  
2757.000000	0.005631  
2756.000000	0.005568  
2755.000000	0.005568  
2754.000000	0.005577  
2753.000000	0.005533  
2752.000000	0.005419  
2751.000000	0.005277  
2750.000000	0.005173  
2749.000000	0.005134  
2748.000000	0.005135  
2747.000000	0.005123  
2746.000000	0.005072  
2745.000000	0.005011  
2744.000000	0.004988  
2743.000000	0.005023  
2742.000000	0.005095  
2741.000000	0.005175  
2740.000000	0.005258  
2739.000000	0.005356  
2738.000000	0.005451  
2737.000000	0.005507  
2736.000000	0.005512  
2735.000000	0.005504  
2734.000000	0.005520  
2733.000000	0.005554  
2732.000000	0.005569  
2731.000000	0.005549  
2730.000000	0.005512  
2729.000000	0.005477  
2728.000000	0.005452  
2727.000000	0.005436  
2726.000000	0.005426  
2725.000000	0.005409  
2724.000000	0.005383  
2723.000000	0.005361  
2722.000000	0.005356  
2721.000000	0.005347  
2720.000000	0.005312  
2719.000000	0.005265  
2718.000000	0.005244  
2717.000000	0.005254  
2716.000000	0.005251  
2715.000000	0.005193  
2714.000000	0.005080  
2713.000000	0.004930  
2712.000000	0.004759  
2711.000000	0.004589  
2710.000000	0.004458  
2709.000000	0.004388  
2708.000000	0.004363  
2707.000000	0.004355  
2706.000000	0.004352  
2705.000000	0.004345  
2704.000000	0.004307  
2703.000000	0.004224  
2702.000000	0.004130  
2701.000000	0.004077  
2700.000000	0.004069  
2699.000000	0.004067  
2698.000000	0.004050  
2697.000000	0.004044  
2696.000000	0.004079  
2695.000000	0.004157  
2694.000000	0.004253  
2693.000000	0.004337  
2692.000000	0.004381  
2691.000000	0.004365  
2690.000000	0.004294  
2689.000000	0.004211  
2688.000000	0.004172  
2687.000000	0.004197  
2686.000000	0.004251  
2685.000000	0.004284  
2684.000000	0.004286  
2683.000000	0.004301  
2682.000000	0.004364  
2681.000000	0.004455  
2680.000000	0.004513  
2679.000000	0.004505  
2678.000000	0.004451  
2677.000000	0.004391  
2676.000000	0.004348  
2675.000000	0.004332  
2674.000000	0.004345  
2673.000000	0.004371  
2672.000000	0.004375  
2671.000000	0.004337  
2670.000000	0.004272  
2669.000000	0.004206  
2668.000000	0.004148  
2667.000000	0.004103  
2666.000000	0.004089  
2665.000000	0.004129  
2664.000000	0.004216  
2663.000000	0.004314  
2662.000000	0.004379  
2661.000000	0.004376  
2660.000000	0.004289  
2659.000000	0.004143  
2658.000000	0.004002  
2657.000000	0.003922  
2656.000000	0.003905  
2655.000000	0.003899  
2654.000000	0.003850  
2653.000000	0.003742  
2652.000000	0.003603  
2651.000000	0.003490  
2650.000000	0.003438  
2649.000000	0.003414  
2648.000000	0.003349  
2647.000000	0.003226  
2646.000000	0.003126  
2645.000000	0.003137  
2644.000000	0.003240  
2643.000000	0.003339  
2642.000000	0.003384  
2641.000000	0.003403  
2640.000000	0.003414  
2639.000000	0.003377  
2638.000000	0.003257  
2637.000000	0.003096  
2636.000000	0.002967  
2635.000000	0.002895  
2634.000000	0.002853  
2633.000000	0.002825  
2632.000000	0.002835  
2631.000000	0.002901  
2630.000000	0.002992  
2629.000000	0.003055  
2628.000000	0.003060  
2627.000000	0.003018  
2626.000000	0.002949  
2625.000000	0.002849  
2624.000000	0.002712  
2623.000000	0.002570  
2622.000000	0.002501  
2621.000000	0.002555  
2620.000000	0.002699  
2619.000000	0.002847  
2618.000000	0.002933  
2617.000000	0.002939  
2616.000000	0.002874  
2615.000000	0.002759  
2614.000000	0.002645  
2613.000000	0.002593  
2612.000000	0.002621  
2611.000000	0.002679  
2610.000000	0.002707  
2609.000000	0.002704  
2608.000000	0.002711  
2607.000000	0.002755  
2606.000000	0.002800  
2605.000000	0.002780  
2604.000000	0.002660  
2603.000000	0.002483  
2602.000000	0.002333  
2601.000000	0.002261  
2600.000000	0.002246  
2599.000000	0.002241  
2598.000000	0.002224  
2597.000000	0.002199  
2596.000000	0.002155  
2595.000000	0.002077  
2594.000000	0.001976  
2593.000000	0.001895  
2592.000000	0.001872  
2591.000000	0.001933  
2590.000000	0.002096  
2589.000000	0.002344  
2588.000000	0.002596  
2587.000000	0.002738  
2586.000000	0.002726  
2585.000000	0.002619  
2584.000000	0.002501  
2583.000000	0.002392  
2582.000000	0.002258  
2581.000000	0.002090  
2580.000000	0.001935  
2579.000000	0.001852  
2578.000000	0.001858  
2577.000000	0.001912  
2576.000000	0.001943  
2575.000000	0.001911  
2574.000000	0.001839  
2573.000000	0.001783  
2572.000000	0.001771  
2571.000000	0.001769  
2570.000000	0.001740  
2569.000000	0.001702  
2568.000000	0.001701  
2567.000000	0.001735  
2566.000000	0.001744  
2565.000000	0.001681  
2564.000000	0.001563  
2563.000000	0.001443  
2562.000000	0.001351  
2561.000000	0.001300  
2560.000000	0.001318  
2559.000000	0.001425  
2558.000000	0.001580  
2557.000000	0.001681  
2556.000000	0.001661  
2555.000000	0.001554  
2554.000000	0.001438  
2553.000000	0.001354  
2552.000000	0.001307  
2551.000000	0.001296  
2550.000000	0.001299  
2549.000000	0.001253  
2548.000000	0.001118  
2547.000000	0.000970  
2546.000000	0.000951  
2545.000000	0.001102  
2544.000000	0.001315  
2543.000000	0.001462  
2542.000000	0.001529  
2541.000000	0.001566  
2540.000000	0.001585  
2539.000000	0.001557  
2538.000000	0.001488  
2537.000000	0.001412  
2536.000000	0.001331  
2535.000000	0.001216  
2534.000000	0.001066  
2533.000000	0.000915  
2532.000000	0.000788  
2531.000000	0.000715  
2530.000000	0.000761  
2529.000000	0.000963  
2528.000000	0.001239  
2527.000000	0.001411  
2526.000000	0.001369  
2525.000000	0.001169  
2524.000000	0.000967  
2523.000000	0.000877  
2522.000000	0.000925  
2521.000000	0.001061  
2520.000000	0.001183  
2519.000000	0.001181  
2518.000000	0.001030  
2517.000000	0.000841  
2516.000000	0.000769  
2515.000000	0.000872  
2514.000000	0.001072  
2513.000000	0.001235  
2512.000000	0.001274  
2511.000000	0.001181  
2510.000000	0.001021  
2509.000000	0.000908  
2508.000000	0.000933  
2507.000000	0.001064  
2506.000000	0.001153  
2505.000000	0.001067  
2504.000000	0.000835  
2503.000000	0.000631  
2502.000000	0.000600  
2501.000000	0.000744  
2500.000000	0.000956  
2499.000000	0.001142  
2498.000000	0.001268  
2497.000000	0.001340  
2496.000000	0.001370  
2495.000000	0.001369  
2494.000000	0.001333  
2493.000000	0.001243  
2492.000000	0.001097  
2491.000000	0.000942  
2490.000000	0.000841  
2489.000000	0.000814  
2488.000000	0.000831  
2487.000000	0.000866  
2486.000000	0.000894  
2485.000000	0.000868  
2484.000000	0.000743  
2483.000000	0.000554  
2482.000000	0.000418  
2481.000000	0.000420  
2480.000000	0.000539  
2479.000000	0.000688  
2478.000000	0.000805  
2477.000000	0.000853  
2476.000000	0.000805  
2475.000000	0.000658  
2474.000000	0.000462  
2473.000000	0.000290  
2472.000000	0.000182  
2471.000000	0.000145  
2470.000000	0.000170  
2469.000000	0.000246  
2468.000000	0.000342  
2467.000000	0.000427  
2466.000000	0.000475  
2465.000000	0.000459  
2464.000000	0.000374  
2463.000000	0.000264  
2462.000000	0.000202  
2461.000000	0.000213  
2460.000000	0.000259  
2459.000000	0.000299  
2458.000000	0.000333  
2457.000000	0.000356  
2456.000000	0.000322  
2455.000000	0.000205  
2454.000000	0.000061  
2453.000000	-0.000017 
2452.000000	0.000015  
2451.000000	0.000147  
2450.000000	0.000350  
2449.000000	0.000557  
2448.000000	0.000659  
2447.000000	0.000580  
2446.000000	0.000372  
2445.000000	0.000172  
2444.000000	0.000070  
2443.000000	0.000072  
2442.000000	0.000146  
2441.000000	0.000256  
2440.000000	0.000334  
2439.000000	0.000308  
2438.000000	0.000182  
2437.000000	0.000054  
2436.000000	0.000030  
2435.000000	0.000125  
2434.000000	0.000263  
2433.000000	0.000352  
2432.000000	0.000368  
2431.000000	0.000384  
2430.000000	0.000498  
2429.000000	0.000701  
2428.000000	0.000838  
2427.000000	0.000757  
2426.000000	0.000495  
2425.000000	0.000244  
2424.000000	0.000155  
2423.000000	0.000215  
2422.000000	0.000322  
2421.000000	0.000403  
2420.000000	0.000427  
2419.000000	0.000392  
2418.000000	0.000342  
2417.000000	0.000354  
2416.000000	0.000454  
2415.000000	0.000570  
2414.000000	0.000619  
2413.000000	0.000606  
2412.000000	0.000597  
2411.000000	0.000614  
2410.000000	0.000609  
2409.000000	0.000559  
2408.000000	0.000518  
2407.000000	0.000525  
2406.000000	0.000526  
2405.000000	0.000428  
2404.000000	0.000242  
2403.000000	0.000097  
2402.000000	0.000105  
2401.000000	0.000233  
2400.000000	0.000358  
2399.000000	0.000415  
2398.000000	0.000441  
2397.000000	0.000496  
2396.000000	0.000581  
2395.000000	0.000664  
2394.000000	0.000727  
2393.000000	0.000757  
2392.000000	0.000738  
2391.000000	0.000670  
2390.000000	0.000579  
2389.000000	0.000477  
2388.000000	0.000348  
2387.000000	0.000196  
2386.000000	0.000082  
2385.000000	0.000077  
2384.000000	0.000181  
2383.000000	0.000335  
2382.000000	0.000496  
2381.000000	0.000655  
2380.000000	0.000789  
2379.000000	0.000853  
2378.000000	0.000822  
2377.000000	0.000706  
2376.000000	0.000513  
2375.000000	0.000262  
2374.000000	0.000061  
2373.000000	0.000067  
2372.000000	0.000298  
2371.000000	0.000562  
2370.000000	0.000674  
2369.000000	0.000667  
2368.000000	0.000712  
2367.000000	0.000907  
2366.000000	0.001218  
2365.000000	0.001484  
2364.000000	0.001419  
2363.000000	0.000841  
2362.000000	0.000014  
2361.000000	-0.000453 
2360.000000	-0.000254 
2359.000000	0.000287  
2358.000000	0.000690  
2357.000000	0.000832  
2356.000000	0.000870  
2355.000000	0.000957  
2354.000000	0.001131  
2353.000000	0.001291  
2352.000000	0.001260  
2351.000000	0.001014  
2350.000000	0.000761  
2349.000000	0.000731  
2348.000000	0.000948  
2347.000000	0.001167  
2346.000000	0.001072  
2345.000000	0.000657  
2344.000000	0.000258  
2343.000000	0.000161  
2342.000000	0.000390  
2341.000000	0.000805  
2340.000000	0.001189  
2339.000000	0.001380  
2338.000000	0.001374  
2337.000000	0.001281  
2336.000000	0.001176  
2335.000000	0.001068  
2334.000000	0.000961  
2333.000000	0.000852  
2332.000000	0.000712  
2331.000000	0.000556  
2330.000000	0.000464  
2329.000000	0.000469  
2328.000000	0.000510  
2327.000000	0.000511  
2326.000000	0.000491  
2325.000000	0.000502  
2324.000000	0.000550  
2323.000000	0.000617  
2322.000000	0.000683  
2321.000000	0.000686  
2320.000000	0.000523  
2319.000000	0.000192  
2318.000000	-0.000122 
2317.000000	-0.000197 
2316.000000	0.000000  
2315.000000	0.000291  
2314.000000	0.000455  
2313.000000	0.000411  
2312.000000	0.000221  
2311.000000	0.000002  
2310.000000	-0.000156 
2309.000000	-0.000227 
2308.000000	-0.000246 
2307.000000	-0.000278 
2306.000000	-0.000359 
2305.000000	-0.000476 
2304.000000	-0.000589 
2303.000000	-0.000666 
2302.000000	-0.000695 
2301.000000	-0.000681 
2300.000000	-0.000638 
2299.000000	-0.000591 
2298.000000	-0.000577 
2297.000000	-0.000619 
2296.000000	-0.000680 
2295.000000	-0.000667 
2294.000000	-0.000515 
2293.000000	-0.000285 
2292.000000	-0.000122 
2291.000000	-0.000117 
2290.000000	-0.000225 
2289.000000	-0.000332 
2288.000000	-0.000374 
2287.000000	-0.000366 
2286.000000	-0.000348 
2285.000000	-0.000350 
2284.000000	-0.000375 
2283.000000	-0.000383 
2282.000000	-0.000319 
2281.000000	-0.000188 
2280.000000	-0.000068 
2279.000000	-0.000025 
2278.000000	-0.000031 
2277.000000	-0.000021 
2276.000000	0.000015  
2275.000000	0.000052  
2274.000000	0.000094  
2273.000000	0.000158  
2272.000000	0.000198  
2271.000000	0.000145  
2270.000000	0.000036  
2269.000000	0.000004  
2268.000000	0.000128  
2267.000000	0.000326  
2266.000000	0.000430  
2265.000000	0.000319  
2264.000000	-0.000022 
2263.000000	-0.000494 
2262.000000	-0.000916 
2261.000000	-0.001104 
2260.000000	-0.000993 
2259.000000	-0.000672 
2258.000000	-0.000319 
2257.000000	-0.000079 
2256.000000	0.000015  
2255.000000	0.000045  
2254.000000	0.000110  
2253.000000	0.000233  
2252.000000	0.000346  
2251.000000	0.000384  
2250.000000	0.000334  
2249.000000	0.000210  
2248.000000	0.000029  
2247.000000	-0.000137 
2246.000000	-0.000176 
2245.000000	-0.000063 
2244.000000	0.000064  
2243.000000	0.000052  
2242.000000	-0.000113 
2241.000000	-0.000339 
2240.000000	-0.000565 
2239.000000	-0.000756 
2238.000000	-0.000824 
2237.000000	-0.000681 
2236.000000	-0.000400 
2235.000000	-0.000188 
2234.000000	-0.000168 
2233.000000	-0.000257 
2232.000000	-0.000299 
2231.000000	-0.000254 
2230.000000	-0.000223 
2229.000000	-0.000328 
2228.000000	-0.000589 
2227.000000	-0.000863 
2226.000000	-0.000943 
2225.000000	-0.000744 
2224.000000	-0.000403 
2223.000000	-0.000134 
2222.000000	-0.000032 
2221.000000	-0.000071 
2220.000000	-0.000219 
2219.000000	-0.000452 
2218.000000	-0.000679 
2217.000000	-0.000791 
2216.000000	-0.000781 
2215.000000	-0.000709 
2214.000000	-0.000590 
2213.000000	-0.000411 
2212.000000	-0.000262 
2211.000000	-0.000272 
2210.000000	-0.000404 
2209.000000	-0.000445 
2208.000000	-0.000272 
2207.000000	-0.000013 
2206.000000	0.000120  
2205.000000	0.000059  
2204.000000	-0.000110 
2203.000000	-0.000269 
2202.000000	-0.000318 
2201.000000	-0.000222 
2200.000000	-0.000060 
2199.000000	0.000004  
2198.000000	-0.000129 
2197.000000	-0.000396 
2196.000000	-0.000636 
2195.000000	-0.000705 
2194.000000	-0.000512 
2193.000000	-0.000061 
2192.000000	0.000474  
2191.000000	0.000794  
2190.000000	0.000695  
2189.000000	0.000232  
2188.000000	-0.000380 
2187.000000	-0.000964 
2186.000000	-0.001423 
2185.000000	-0.001654 
2184.000000	-0.001561 
2183.000000	-0.001201 
2182.000000	-0.000815 
2181.000000	-0.000643 
2180.000000	-0.000674 
2179.000000	-0.000655 
2178.000000	-0.000372 
2177.000000	0.000099  
2176.000000	0.000467  
2175.000000	0.000525  
2174.000000	0.000321  
2173.000000	0.000029  
2172.000000	-0.000246 
2171.000000	-0.000495 
2170.000000	-0.000700 
2169.000000	-0.000824 
2168.000000	-0.000870 
2167.000000	-0.000877 
2166.000000	-0.000834 
2165.000000	-0.000653 
2164.000000	-0.000235 
2163.000000	0.000409  
2162.000000	0.001107  
2161.000000	0.001572  
2160.000000	0.001624  
2159.000000	0.001367  
2158.000000	0.001030  
2157.000000	0.000693  
2156.000000	0.000302  
2155.000000	-0.000100 
2154.000000	-0.000358 
2153.000000	-0.000407 
2152.000000	-0.000356 
2151.000000	-0.000318 
2150.000000	-0.000320 
2149.000000	-0.000368 
2148.000000	-0.000453 
2147.000000	-0.000453 
2146.000000	-0.000219 
2145.000000	0.000144  
2144.000000	0.000304  
2143.000000	0.000095  
2142.000000	-0.000255 
2141.000000	-0.000409 
2140.000000	-0.000287 
2139.000000	-0.000058 
2138.000000	0.000094  
2137.000000	0.000048  
2136.000000	-0.000246 
2135.000000	-0.000660 
2134.000000	-0.000890 
2133.000000	-0.000761 
2132.000000	-0.000447 
2131.000000	-0.000255 
2130.000000	-0.000285 
2129.000000	-0.000427 
2128.000000	-0.000587 
2127.000000	-0.000732 
2126.000000	-0.000786 
2125.000000	-0.000667 
2124.000000	-0.000444 
2123.000000	-0.000296 
2122.000000	-0.000292 
2121.000000	-0.000339 
2120.000000	-0.000343 
2119.000000	-0.000310 
2118.000000	-0.000284 
2117.000000	-0.000289 
2116.000000	-0.000355 
2115.000000	-0.000475 
2114.000000	-0.000536 
2113.000000	-0.000407 
2112.000000	-0.000143 
2111.000000	0.000030  
2110.000000	-0.000025 
2109.000000	-0.000230 
2108.000000	-0.000418 
2107.000000	-0.000521 
2106.000000	-0.000562 
2105.000000	-0.000586 
2104.000000	-0.000645 
2103.000000	-0.000783 
2102.000000	-0.000969 
2101.000000	-0.001103 
2100.000000	-0.001128 
2099.000000	-0.001091 
2098.000000	-0.001053 
2097.000000	-0.001023 
2096.000000	-0.000957 
2095.000000	-0.000773 
2094.000000	-0.000387 
2093.000000	0.000160  
2092.000000	0.000629  
2091.000000	0.000742  
2090.000000	0.000471  
2089.000000	0.000060  
2088.000000	-0.000260 
2087.000000	-0.000469 
2086.000000	-0.000628 
2085.000000	-0.000723 
2084.000000	-0.000711 
2083.000000	-0.000629 
2082.000000	-0.000559 
2081.000000	-0.000553 
2080.000000	-0.000631 
2079.000000	-0.000796 
2078.000000	-0.000975 
2077.000000	-0.001021 
2076.000000	-0.000867 
2075.000000	-0.000623 
2074.000000	-0.000463 
2073.000000	-0.000453 
2072.000000	-0.000531 
2071.000000	-0.000607 
2070.000000	-0.000641 
2069.000000	-0.000652 
2068.000000	-0.000684 
2067.000000	-0.000732 
2066.000000	-0.000706 
2065.000000	-0.000535 
2064.000000	-0.000297 
2063.000000	-0.000139 
2062.000000	-0.000074 
2061.000000	0.000019  
2060.000000	0.000198  
2059.000000	0.000363  
2058.000000	0.000423  
2057.000000	0.000420  
2056.000000	0.000421  
2055.000000	0.000373  
2054.000000	0.000163  
2053.000000	-0.000230 
2052.000000	-0.000699 
2051.000000	-0.001068 
2050.000000	-0.001178 
2049.000000	-0.000996 
2048.000000	-0.000708 
2047.000000	-0.000562 
2046.000000	-0.000583 
2045.000000	-0.000565 
2044.000000	-0.000383 
2043.000000	-0.000164 
2042.000000	-0.000076 
2041.000000	-0.000089 
2040.000000	-0.000067 
2039.000000	0.000001  
2038.000000	0.000029  
2037.000000	-0.000017 
2036.000000	-0.000106 
2035.000000	-0.000222 
2034.000000	-0.000356 
2033.000000	-0.000463 
2032.000000	-0.000521 
2031.000000	-0.000573 
2030.000000	-0.000640 
2029.000000	-0.000639 
2028.000000	-0.000489 
2027.000000	-0.000211 
2026.000000	0.000105  
2025.000000	0.000383  
2024.000000	0.000555  
2023.000000	0.000555  
2022.000000	0.000371  
2021.000000	0.000078  
2020.000000	-0.000229 
2019.000000	-0.000499 
2018.000000	-0.000700 
2017.000000	-0.000821 
2016.000000	-0.000886 
2015.000000	-0.000885 
2014.000000	-0.000729 
2013.000000	-0.000401 
2012.000000	-0.000100 
2011.000000	-0.000073 
2010.000000	-0.000285 
2009.000000	-0.000441 
2008.000000	-0.000362 
2007.000000	-0.000174 
2006.000000	-0.000048 
2005.000000	0.000021  
2004.000000	0.000055  
2003.000000	-0.000060 
2002.000000	-0.000397 
2001.000000	-0.000782 
2000.000000	-0.000944 
1999.000000	-0.000827 
1998.000000	-0.000622 
1997.000000	-0.000510 
1996.000000	-0.000510 
1995.000000	-0.000542 
1994.000000	-0.000534 
1993.000000	-0.000415 
1992.000000	-0.000148 
1991.000000	0.000178  
1990.000000	0.000386  
1989.000000	0.000383  
1988.000000	0.000256  
1987.000000	0.000148  
1986.000000	0.000047  
1985.000000	-0.000205 
1984.000000	-0.000636 
1983.000000	-0.000969 
1982.000000	-0.000868 
1981.000000	-0.000366 
1980.000000	0.000109  
1979.000000	0.000197  
1978.000000	-0.000070 
1977.000000	-0.000478 
1976.000000	-0.000944 
1975.000000	-0.001410 
1974.000000	-0.001654 
1973.000000	-0.001504 
1972.000000	-0.001123 
1971.000000	-0.000796 
1970.000000	-0.000535 
1969.000000	-0.000165 
1968.000000	0.000268  
1967.000000	0.000470  
1966.000000	0.000365  
1965.000000	0.000232  
1964.000000	0.000297  
1963.000000	0.000490  
1962.000000	0.000636  
1961.000000	0.000652  
1960.000000	0.000520  
1959.000000	0.000237  
1958.000000	-0.000109 
1957.000000	-0.000370 
1956.000000	-0.000510 
1955.000000	-0.000620 
1954.000000	-0.000715 
1953.000000	-0.000665 
1952.000000	-0.000433 
1951.000000	-0.000211 
1950.000000	-0.000206 
1949.000000	-0.000372 
1948.000000	-0.000490 
1947.000000	-0.000449 
1946.000000	-0.000357 
1945.000000	-0.000387 
1944.000000	-0.000586 
1943.000000	-0.000835 
1942.000000	-0.000980 
1941.000000	-0.001009 
1940.000000	-0.001010 
1939.000000	-0.001013 
1938.000000	-0.000944 
1937.000000	-0.000757 
1936.000000	-0.000537 
1935.000000	-0.000413 
1934.000000	-0.000402 
1933.000000	-0.000408 
1932.000000	-0.000372 
1931.000000	-0.000291 
1930.000000	-0.000156 
1929.000000	0.000028  
1928.000000	0.000163  
1927.000000	0.000130  
1926.000000	-0.000035 
1925.000000	-0.000177 
1924.000000	-0.000205 
1923.000000	-0.000186 
1922.000000	-0.000206 
1921.000000	-0.000256 
1920.000000	-0.000317 
1919.000000	-0.000413 
1918.000000	-0.000507 
1917.000000	-0.000498 
1916.000000	-0.000396 
1915.000000	-0.000326 
1914.000000	-0.000351 
1913.000000	-0.000385 
1912.000000	-0.000313 
1911.000000	-0.000137 
1910.000000	0.000053  
1909.000000	0.000194  
1908.000000	0.000256  
1907.000000	0.000216  
1906.000000	0.000077  
1905.000000	-0.000101 
1904.000000	-0.000252 
1903.000000	-0.000355 
1902.000000	-0.000411 
1901.000000	-0.000411 
1900.000000	-0.000365 
1899.000000	-0.000329 
1898.000000	-0.000356 
1897.000000	-0.000430 
1896.000000	-0.000478 
1895.000000	-0.000417 
1894.000000	-0.000214 
1893.000000	0.000077  
1892.000000	0.000335  
1891.000000	0.000422  
1890.000000	0.000298  
1889.000000	0.000078  
1888.000000	-0.000096 
1887.000000	-0.000186 
1886.000000	-0.000216 
1885.000000	-0.000219 
1884.000000	-0.000247 
1883.000000	-0.000324 
1882.000000	-0.000397 
1881.000000	-0.000382 
1880.000000	-0.000287 
1879.000000	-0.000203 
1878.000000	-0.000174 
1877.000000	-0.000133 
1876.000000	-0.000014 
1875.000000	0.000153  
1874.000000	0.000298  
1873.000000	0.000376  
1872.000000	0.000362  
1871.000000	0.000235  
1870.000000	0.000043  
1869.000000	-0.000047 
1868.000000	0.000020  
1867.000000	0.000083  
1866.000000	0.000032  
1865.000000	-0.000078 
1864.000000	-0.000179 
1863.000000	-0.000256 
1862.000000	-0.000319 
1861.000000	-0.000359 
1860.000000	-0.000384 
1859.000000	-0.000426 
1858.000000	-0.000489 
1857.000000	-0.000518 
1856.000000	-0.000474 
1855.000000	-0.000374 
1854.000000	-0.000234 
1853.000000	-0.000058 
1852.000000	0.000112  
1851.000000	0.000191  
1850.000000	0.000132  
1849.000000	-0.000001 
1848.000000	-0.000116 
1847.000000	-0.000208 
1846.000000	-0.000312 
1845.000000	-0.000370 
1844.000000	-0.000288 
1843.000000	-0.000136 
1842.000000	-0.000040 
1841.000000	-0.000014 
1840.000000	-0.000025 
1839.000000	-0.000066 
1838.000000	-0.000131 
1837.000000	-0.000180 
1836.000000	-0.000181 
1835.000000	-0.000161 
1834.000000	-0.000166 
1833.000000	-0.000197 
1832.000000	-0.000220 
1831.000000	-0.000227 
1830.000000	-0.000241 
1829.000000	-0.000263 
1828.000000	-0.000277 
1827.000000	-0.000273 
1826.000000	-0.000262 
1825.000000	-0.000244 
1824.000000	-0.000215 
1823.000000	-0.000200 
1822.000000	-0.000225 
1821.000000	-0.000284 
1820.000000	-0.000344 
1819.000000	-0.000362 
1818.000000	-0.000301 
1817.000000	-0.000157 
1816.000000	0.000006  
1815.000000	0.000119  
1814.000000	0.000168  
1813.000000	0.000191  
1812.000000	0.000204  
1811.000000	0.000171  
1810.000000	0.000077  
1809.000000	-0.000037 
1808.000000	-0.000140 
1807.000000	-0.000221 
1806.000000	-0.000237 
1805.000000	-0.000129 
1804.000000	0.000080  
1803.000000	0.000280  
1802.000000	0.000375  
1801.000000	0.000380  
1800.000000	0.000353  
1799.000000	0.000300  
1798.000000	0.000236  
1797.000000	0.000228  
1796.000000	0.000287  
1795.000000	0.000342  
1794.000000	0.000325  
1793.000000	0.000307  
1792.000000	0.000402  
1791.000000	0.000535  
1790.000000	0.000587  
1789.000000	0.000578  
1788.000000	0.000554  
1787.000000	0.000531  
1786.000000	0.000545  
1785.000000	0.000666  
1784.000000	0.000890  
1783.000000	0.001113  
1782.000000	0.001239  
1781.000000	0.001282  
1780.000000	0.001323  
1779.000000	0.001374  
1778.000000	0.001403  
1777.000000	0.001426  
1776.000000	0.001464  
1775.000000	0.001477  
1774.000000	0.001377  
1773.000000	0.001214  
1772.000000	0.001197  
1771.000000	0.001335  
1770.000000	0.001494  
1769.000000	0.001692  
1768.000000	0.001974  
1767.000000	0.002274  
1766.000000	0.002534  
1765.000000	0.002792  
1764.000000	0.003099  
1763.000000	0.003407  
1762.000000	0.003635  
1761.000000	0.003835  
1760.000000	0.004131  
1759.000000	0.004546  
1758.000000	0.005073  
1757.000000	0.005759  
1756.000000	0.006576  
1755.000000	0.007388  
1754.000000	0.008204  
1753.000000	0.009301  
1752.000000	0.011114  
1751.000000	0.013902  
1750.000000	0.017656  
1749.000000	0.022427  
1748.000000	0.027969  
1747.000000	0.033614  
1746.000000	0.039190  
1745.000000	0.045126  
1744.000000	0.051288  
1743.000000	0.056526  
1742.000000	0.059859  
1741.000000	0.061153  
1740.000000	0.060397  
1739.000000	0.057905  
1738.000000	0.054785  
1737.000000	0.051623  
1736.000000	0.047807  
1735.000000	0.041875  
1734.000000	0.034587  
1733.000000	0.029229  
1732.000000	0.026266  
1731.000000	0.024161  
1730.000000	0.022347  
1729.000000	0.020783  
1728.000000	0.019527  
1727.000000	0.018522  
1726.000000	0.017717  
1725.000000	0.017027  
1724.000000	0.016358  
1723.000000	0.015696  
1722.000000	0.015116  
1721.000000	0.014607  
1720.000000	0.014020  
1719.000000	0.013111  
1718.000000	0.011868  
1717.000000	0.010726  
1716.000000	0.009903  
1715.000000	0.009257  
1714.000000	0.008736  
1713.000000	0.008289  
1712.000000	0.007813  
1711.000000	0.007260  
1710.000000	0.006691  
1709.000000	0.006186  
1708.000000	0.005739  
1707.000000	0.005291  
1706.000000	0.004875  
1705.000000	0.004616  
1704.000000	0.004515  
1703.000000	0.004481  
1702.000000	0.004434  
1701.000000	0.004280  
1700.000000	0.003980  
1699.000000	0.003697  
1698.000000	0.003587  
1697.000000	0.003587  
1696.000000	0.003518  
1695.000000	0.003323  
1694.000000	0.003164  
1693.000000	0.003125  
1692.000000	0.003123  
1691.000000	0.003084  
1690.000000	0.003022  
1689.000000	0.002996  
1688.000000	0.003013  
1687.000000	0.003062  
1686.000000	0.003101  
1685.000000	0.003123  
1684.000000	0.003118  
1683.000000	0.003056  
1682.000000	0.003047  
1681.000000	0.003129  
1680.000000	0.003204  
1679.000000	0.003235  
1678.000000	0.003281  
1677.000000	0.003365  
1676.000000	0.003428  
1675.000000	0.003410  
1674.000000	0.003364  
1673.000000	0.003354  
1672.000000	0.003350  
1671.000000	0.003320  
1670.000000	0.003380  
1669.000000	0.003581  
1668.000000	0.003773  
1667.000000	0.003894  
1666.000000	0.003992  
1665.000000	0.004096  
1664.000000	0.004207  
1663.000000	0.004355  
1662.000000	0.004564  
1661.000000	0.004777  
1660.000000	0.004956  
1659.000000	0.005084  
1658.000000	0.005214  
1657.000000	0.005319  
1656.000000	0.005396  
1655.000000	0.005281  
1654.000000	0.005120  
1653.000000	0.005420  
1652.000000	0.005809  
1651.000000	0.005999  
1650.000000	0.006149  
1649.000000	0.006256  
1648.000000	0.006274  
1647.000000	0.006335  
1646.000000	0.006530  
1645.000000	0.006713  
1644.000000	0.006813  
1643.000000	0.006861  
1642.000000	0.006891  
1641.000000	0.006947  
1640.000000	0.007006  
1639.000000	0.007044  
1638.000000	0.007076  
1637.000000	0.007188  
1636.000000	0.007354  
1635.000000	0.007311  
1634.000000	0.007076  
1633.000000	0.006909  
1632.000000	0.006843  
1631.000000	0.006793  
1630.000000	0.006713  
1629.000000	0.006591  
1628.000000	0.006436  
1627.000000	0.006258  
1626.000000	0.006075  
1625.000000	0.005880  
1624.000000	0.005665  
1623.000000	0.005477  
1622.000000	0.005364  
1621.000000	0.005296  
1620.000000	0.005221  
1619.000000	0.005090  
1618.000000	0.004887  
1617.000000	0.004699  
1616.000000	0.004588  
1615.000000	0.004511  
1614.000000	0.004459  
1613.000000	0.004425  
1612.000000	0.004350  
1611.000000	0.004217  
1610.000000	0.004078  
1609.000000	0.003999  
1608.000000	0.003989  
1607.000000	0.004022  
1606.000000	0.004061  
1605.000000	0.004067  
1604.000000	0.004014  
1603.000000	0.003924  
1602.000000	0.003849  
1601.000000	0.003800  
1600.000000	0.003732  
1599.000000	0.003625  
1598.000000	0.003516  
1597.000000	0.003453  
1596.000000	0.003440  
1595.000000	0.003464  
1594.000000	0.003518  
1593.000000	0.003599  
1592.000000	0.003699  
1591.000000	0.003826  
1590.000000	0.003994  
1589.000000	0.004170  
1588.000000	0.004296  
1587.000000	0.004367  
1586.000000	0.004443  
1585.000000	0.004555  
1584.000000	0.004674  
1583.000000	0.004771  
1582.000000	0.004851  
1581.000000	0.004934  
1580.000000	0.005011  
1579.000000	0.005060  
1578.000000	0.005064  
1577.000000	0.005101  
1576.000000	0.005278  
1575.000000	0.005496  
1574.000000	0.005649  
1573.000000	0.005753  
1572.000000	0.005808  
1571.000000	0.005810  
1570.000000	0.005866  
1569.000000	0.006012  
1568.000000	0.006115  
1567.000000	0.006119  
1566.000000	0.006080  
1565.000000	0.006026  
1564.000000	0.005956  
1563.000000	0.005874  
1562.000000	0.005830  
1561.000000	0.005855  
1560.000000	0.005816  
1559.000000	0.005485  
1558.000000	0.005059  
1557.000000	0.004818  
1556.000000	0.004730  
1555.000000	0.004675  
1554.000000	0.004541  
1553.000000	0.004409  
1552.000000	0.004303  
1551.000000	0.004212  
1550.000000	0.004115  
1549.000000	0.004027  
1548.000000	0.003925  
1547.000000	0.003808  
1546.000000	0.003695  
1545.000000	0.003639  
1544.000000	0.003579  
1543.000000	0.003398  
1542.000000	0.003080  
1541.000000	0.003023  
1540.000000	0.003426  
1539.000000	0.003636  
1538.000000	0.003540  
1537.000000	0.003484  
1536.000000	0.003466  
1535.000000	0.003391  
1534.000000	0.003304  
1533.000000	0.003379  
1532.000000	0.003538  
1531.000000	0.003603  
1530.000000	0.003576  
1529.000000	0.003519  
1528.000000	0.003458  
1527.000000	0.003376  
1526.000000	0.003298  
1525.000000	0.003274  
1524.000000	0.003290  
1523.000000	0.003281  
1522.000000	0.003390  
1521.000000	0.003732  
1520.000000	0.004033  
1519.000000	0.004166  
1518.000000	0.004277  
1517.000000	0.004461  
1516.000000	0.004611  
1515.000000	0.004613  
1514.000000	0.004594  
1513.000000	0.004674  
1512.000000	0.004835  
1511.000000	0.004972  
1510.000000	0.005095  
1509.000000	0.005287  
1508.000000	0.005629  
1507.000000	0.006028  
1506.000000	0.006152  
1505.000000	0.006117  
1504.000000	0.006193  
1503.000000	0.006341  
1502.000000	0.006511  
1501.000000	0.006686  
1500.000000	0.006793  
1499.000000	0.006785  
1498.000000	0.006839  
1497.000000	0.007246  
1496.000000	0.007816  
1495.000000	0.008146  
1494.000000	0.008294  
1493.000000	0.008464  
1492.000000	0.008660  
1491.000000	0.008836  
1490.000000	0.009180  
1489.000000	0.009812  
1488.000000	0.010395  
1487.000000	0.010753  
1486.000000	0.011133  
1485.000000	0.011710  
1484.000000	0.012441  
1483.000000	0.013283  
1482.000000	0.014341  
1481.000000	0.015627  
1480.000000	0.016917  
1479.000000	0.018116  
1478.000000	0.019495  
1477.000000	0.021293  
1476.000000	0.023333  
1475.000000	0.025525  
1474.000000	0.029010  
1473.000000	0.035432  
1472.000000	0.043421  
1471.000000	0.050197  
1470.000000	0.055739  
1469.000000	0.060889  
1468.000000	0.065640  
1467.000000	0.069756  
1466.000000	0.073222  
1465.000000	0.076024  
1464.000000	0.077793  
1463.000000	0.078592  
1462.000000	0.078984  
1461.000000	0.079274  
1460.000000	0.079510  
1459.000000	0.079811  
1458.000000	0.080595  
1457.000000	0.081079  
1456.000000	0.079787  
1455.000000	0.077358  
1454.000000	0.074740  
1453.000000	0.071948  
1452.000000	0.069040  
1451.000000	0.066293  
1450.000000	0.063867  
1449.000000	0.061478  
1448.000000	0.058851  
1447.000000	0.056136  
1446.000000	0.053525  
1445.000000	0.050911  
1444.000000	0.048195  
1443.000000	0.045491  
1442.000000	0.042966  
1441.000000	0.040683  
1440.000000	0.038644  
1439.000000	0.036808  
1438.000000	0.034968  
1437.000000	0.032896  
1436.000000	0.030856  
1435.000000	0.029283  
1434.000000	0.028037  
1433.000000	0.026754  
1432.000000	0.025302  
1431.000000	0.023781  
1430.000000	0.022334  
1429.000000	0.021056  
1428.000000	0.020067  
1427.000000	0.019420  
1426.000000	0.018992  
1425.000000	0.018620  
1424.000000	0.018301  
1423.000000	0.018098  
1422.000000	0.017941  
1421.000000	0.017688  
1420.000000	0.017319  
1419.000000	0.016953  
1418.000000	0.016610  
1417.000000	0.016202  
1416.000000	0.015751  
1415.000000	0.015324  
1414.000000	0.014901  
1413.000000	0.014464  
1412.000000	0.014079  
1411.000000	0.013842  
1410.000000	0.013726  
1409.000000	0.013650  
1408.000000	0.013621  
1407.000000	0.013709  
1406.000000	0.013914  
1405.000000	0.014174  
1404.000000	0.014470  
1403.000000	0.014798  
1402.000000	0.015121  
1401.000000	0.015432  
1400.000000	0.015793  
1399.000000	0.016221  
1398.000000	0.016588  
1397.000000	0.016817  
1396.000000	0.017026  
1395.000000	0.017343  
1394.000000	0.017692  
1393.000000	0.017977  
1392.000000	0.018265  
1391.000000	0.018644  
1390.000000	0.019166  
1389.000000	0.019964  
1388.000000	0.021292  
1387.000000	0.023172  
1386.000000	0.025210  
1385.000000	0.027167  
1384.000000	0.029244  
1383.000000	0.031726  
1382.000000	0.034703  
1381.000000	0.038042  
1380.000000	0.041371  
1379.000000	0.044036  
1378.000000	0.045408  
1377.000000	0.045284  
1376.000000	0.043754  
1375.000000	0.040959  
1374.000000	0.037457  
1373.000000	0.034235  
1372.000000	0.031847  
1371.000000	0.030198  
1370.000000	0.029080  
1369.000000	0.028400  
1368.000000	0.028070  
1367.000000	0.027872  
1366.000000	0.027541  
1365.000000	0.026878  
1364.000000	0.025786  
1363.000000	0.024383  
1362.000000	0.023044  
1361.000000	0.022060  
1360.000000	0.021425  
1359.000000	0.021019  
1358.000000	0.020749  
1357.000000	0.020567  
1356.000000	0.020458  
1355.000000	0.020421  
1354.000000	0.020428  
1353.000000	0.020419  
1352.000000	0.020338  
1351.000000	0.020173  
1350.000000	0.019951  
1349.000000	0.019717  
1348.000000	0.019512  
1347.000000	0.019335  
1346.000000	0.019136  
1345.000000	0.018875  
1344.000000	0.018592  
1343.000000	0.018378  
1342.000000	0.018272  
1341.000000	0.018203  
1340.000000	0.018032  
1339.000000	0.017677  
1338.000000	0.017187  
1337.000000	0.016678  
1336.000000	0.016229  
1335.000000	0.015857  
1334.000000	0.015537  
1333.000000	0.015246  
1332.000000	0.015007  
1331.000000	0.014856  
1330.000000	0.014780  
1329.000000	0.014735  
1328.000000	0.014719  
1327.000000	0.014780  
1326.000000	0.014944  
1325.000000	0.015167  
1324.000000	0.015392  
1323.000000	0.015589  
1322.000000	0.015746  
1321.000000	0.015844  
1320.000000	0.015888  
1319.000000	0.015918  
1318.000000	0.015976  
1317.000000	0.016067  
1316.000000	0.016193  
1315.000000	0.016369  
1314.000000	0.016592  
1313.000000	0.016808  
1312.000000	0.016965  
1311.000000	0.017068  
1310.000000	0.017166  
1309.000000	0.017282  
1308.000000	0.017396  
1307.000000	0.017471  
1306.000000	0.017508  
1305.000000	0.017543  
1304.000000	0.017612  
1303.000000	0.017697  
1302.000000	0.017726  
1301.000000	0.017643  
1300.000000	0.017464  
1299.000000	0.017249  
1298.000000	0.017035  
1297.000000	0.016809  
1296.000000	0.016560  
1295.000000	0.016298  
1294.000000	0.016042  
1293.000000	0.015801  
1292.000000	0.015591  
1291.000000	0.015446  
1290.000000	0.015396  
1289.000000	0.015447  
1288.000000	0.015577  
1287.000000	0.015748  
1286.000000	0.015930  
1285.000000	0.016126  
1284.000000	0.016371  
1283.000000	0.016678  
1282.000000	0.017003  
1281.000000	0.017296  
1280.000000	0.017550  
1279.000000	0.017787  
1278.000000	0.018008  
1277.000000	0.018193  
1276.000000	0.018348  
1275.000000	0.018508  
1274.000000	0.018689  
1273.000000	0.018868  
1272.000000	0.019035  
1271.000000	0.019205  
1270.000000	0.019369  
1269.000000	0.019485  
1268.000000	0.019534  
1267.000000	0.019569  
1266.000000	0.019654  
1265.000000	0.019786  
1264.000000	0.019910  
1263.000000	0.020005  
1262.000000	0.020116  
1261.000000	0.020288  
1260.000000	0.020495  
1259.000000	0.020652  
1258.000000	0.020707  
1257.000000	0.020695  
1256.000000	0.020714  
1255.000000	0.020846  
1254.000000	0.021101  
1253.000000	0.021425  
1252.000000	0.021772  
1251.000000	0.022135  
1250.000000	0.022539  
1249.000000	0.022986  
1248.000000	0.023438  
1247.000000	0.023835  
1246.000000	0.024140  
1245.000000	0.024363  
1244.000000	0.024519  
1243.000000	0.024594  
1242.000000	0.024550  
1241.000000	0.024378  
1240.000000	0.024104  
1239.000000	0.023758  
1238.000000	0.023351  
1237.000000	0.022897  
1236.000000	0.022443  
1235.000000	0.022031  
1234.000000	0.021650  
1233.000000	0.021253  
1232.000000	0.020835  
1231.000000	0.020447  
1230.000000	0.020129  
1229.000000	0.019865  
1228.000000	0.019617  
1227.000000	0.019384  
1226.000000	0.019187  
1225.000000	0.019034  
1224.000000	0.018909  
1223.000000	0.018799  
1222.000000	0.018713  
1221.000000	0.018682  
1220.000000	0.018740  
1219.000000	0.018885  
1218.000000	0.019055  
1217.000000	0.019176  
1216.000000	0.019242  
1215.000000	0.019332  
1214.000000	0.019513  
1213.000000	0.019767  
1212.000000	0.020016  
1211.000000	0.020209  
1210.000000	0.020359  
1209.000000	0.020516  
1208.000000	0.020722  
1207.000000	0.020981  
1206.000000	0.021271  
1205.000000	0.021568  
1204.000000	0.021871  
1203.000000	0.022201  
1202.000000	0.022573  
1201.000000	0.022989  
1200.000000	0.023457  
1199.000000	0.023995  
1198.000000	0.024614  
1197.000000	0.025296  
1196.000000	0.026012  
1195.000000	0.026735  
1194.000000	0.027459  
1193.000000	0.028190  
1192.000000	0.028946  
1191.000000	0.029729  
1190.000000	0.030527  
1189.000000	0.031323  
1188.000000	0.032121  
1187.000000	0.032938  
1186.000000	0.033776  
1185.000000	0.034604  
1184.000000	0.035392  
1183.000000	0.036133  
1182.000000	0.036841  
1181.000000	0.037509  
1180.000000	0.038104  
1179.000000	0.038597  
1178.000000	0.039000  
1177.000000	0.039333  
1176.000000	0.039585  
1175.000000	0.039708  
1174.000000	0.039672  
1173.000000	0.039491  
1172.000000	0.039211  
1171.000000	0.038871  
1170.000000	0.038475  
1169.000000	0.038000  
1168.000000	0.037424  
1167.000000	0.036760  
1166.000000	0.036032  
1165.000000	0.035223  
1164.000000	0.034281  
1163.000000	0.033199  
1162.000000	0.032052  
1161.000000	0.030936  
1160.000000	0.029903  
1159.000000	0.028955  
1158.000000	0.028067  
1157.000000	0.027204  
1156.000000	0.026359  
1155.000000	0.025578  
1154.000000	0.024922  
1153.000000	0.024376  
1152.000000	0.023840  
1151.000000	0.023244  
1150.000000	0.022626  
1149.000000	0.022066  
1148.000000	0.021579  
1147.000000	0.021106  
1146.000000	0.020585  
1145.000000	0.020006  
1144.000000	0.019388  
1143.000000	0.018769  
1142.000000	0.018196  
1141.000000	0.017713  
1140.000000	0.017330  
1139.000000	0.017006  
1138.000000	0.016693  
1137.000000	0.016372  
1136.000000	0.016054  
1135.000000	0.015759  
1134.000000	0.015502  
1133.000000	0.015289  
1132.000000	0.015133  
1131.000000	0.015050  
1130.000000	0.015057  
1129.000000	0.015172  
1128.000000	0.015410  
1127.000000	0.015773  
1126.000000	0.016244  
1125.000000	0.016798  
1124.000000	0.017414  
1123.000000	0.018058  
1122.000000	0.018687  
1121.000000	0.019259  
1120.000000	0.019738  
1119.000000	0.020097  
1118.000000	0.020323  
1117.000000	0.020425  
1116.000000	0.020405  
1115.000000	0.020246  
1114.000000	0.019942  
1113.000000	0.019544  
1112.000000	0.019152  
1111.000000	0.018837  
1110.000000	0.018587  
1109.000000	0.018359  
1108.000000	0.018162  
1107.000000	0.018047  
1106.000000	0.018031  
1105.000000	0.018070  
1104.000000	0.018109  
1103.000000	0.018134  
1102.000000	0.018151  
1101.000000	0.018154  
1100.000000	0.018119  
1099.000000	0.018036  
1098.000000	0.017923  
1097.000000	0.017816  
1096.000000	0.017737  
1095.000000	0.017673  
1094.000000	0.017597  
1093.000000	0.017511  
1092.000000	0.017478  
1091.000000	0.017557  
1090.000000	0.017721  
1089.000000	0.017876  
1088.000000	0.017965  
1087.000000	0.018043  
1086.000000	0.018213  
1085.000000	0.018530  
1084.000000	0.018968  
1083.000000	0.019471  
1082.000000	0.019996  
1081.000000	0.020529  
1080.000000	0.021072  
1079.000000	0.021646  
1078.000000	0.022282  
1077.000000	0.023010  
1076.000000	0.023828  
1075.000000	0.024677  
1074.000000	0.025439  
1073.000000	0.026008  
1072.000000	0.026354  
1071.000000	0.026530  
1070.000000	0.026604  
1069.000000	0.026602  
1068.000000	0.026529  
1067.000000	0.026425  
1066.000000	0.026359  
1065.000000	0.026353  
1064.000000	0.026348  
1063.000000	0.026252  
1062.000000	0.026019  
1061.000000	0.025653  
1060.000000	0.025177  
1059.000000	0.024609  
1058.000000	0.023992  
1057.000000	0.023396  
1056.000000	0.022908  
1055.000000	0.022580  
1054.000000	0.022415  
1053.000000	0.022384  
1052.000000	0.022458  
1051.000000	0.022615  
1050.000000	0.022821  
1049.000000	0.023036  
1048.000000	0.023240  
1047.000000	0.023444  
1046.000000	0.023650  
1045.000000	0.023842  
1044.000000	0.023996  
1043.000000	0.024109  
1042.000000	0.024183  
1041.000000	0.024201  
1040.000000	0.024136  
1039.000000	0.023976  
1038.000000	0.023740  
1037.000000	0.023476  
1036.000000	0.023251  
1035.000000	0.023123  
1034.000000	0.023109  
1033.000000	0.023177  
1032.000000	0.023281  
1031.000000	0.023375  
1030.000000	0.023383  
1029.000000	0.023194  
1028.000000	0.022724  
1027.000000	0.022017  
1026.000000	0.021225  
1025.000000	0.020494  
1024.000000	0.019869  
1023.000000	0.019313  
1022.000000	0.018766  
1021.000000	0.018192  
1020.000000	0.017589  
1019.000000	0.017005  
1018.000000	0.016522  
1017.000000	0.016210  
1016.000000	0.016082  
1015.000000	0.016095  
1014.000000	0.016176  
1013.000000	0.016255  
1012.000000	0.016285  
1011.000000	0.016236  
1010.000000	0.016090  
1009.000000	0.015839  
1008.000000	0.015505  
1007.000000	0.015127  
1006.000000	0.014734  
1005.000000	0.014338  
1004.000000	0.013970  
1003.000000	0.013682  
1002.000000	0.013491  
1001.000000	0.013354  
1000.000000	0.013221  
999.000000	 0.013121  
998.000000	 0.013125  
997.000000	 0.013258  
996.000000	 0.013462  
995.000000	 0.013660  
994.000000	 0.013801  
993.000000	 0.013846  
992.000000	 0.013764  
991.000000	 0.013582  
990.000000	 0.013384  
989.000000	 0.013216  
988.000000	 0.013035  
987.000000	 0.012782  
986.000000	 0.012485  
985.000000	 0.012234  
984.000000	 0.012069  
983.000000	 0.011952  
982.000000	 0.011870  
981.000000	 0.011888  
980.000000	 0.012073  
979.000000	 0.012382  
978.000000	 0.012685  
977.000000	 0.012897  
976.000000	 0.013051  
975.000000	 0.013230  
974.000000	 0.013469  
973.000000	 0.013730  
972.000000	 0.013961  
971.000000	 0.014152  
970.000000	 0.014333  
969.000000	 0.014522  
968.000000	 0.014700  
967.000000	 0.014830  
966.000000	 0.014896  
965.000000	 0.014898  
964.000000	 0.014828  
963.000000	 0.014670  
962.000000	 0.014446  
961.000000	 0.014241  
960.000000	 0.014146  
959.000000	 0.014177  
958.000000	 0.014261  
957.000000	 0.014317  
956.000000	 0.014331  
955.000000	 0.014359  
954.000000	 0.014458  
953.000000	 0.014620  
952.000000	 0.014766  
951.000000	 0.014794  
950.000000	 0.014664  
949.000000	 0.014428  
948.000000	 0.014169  
947.000000	 0.013922  
946.000000	 0.013661  
945.000000	 0.013371  
944.000000	 0.013097  
943.000000	 0.012891  
942.000000	 0.012737  
941.000000	 0.012551  
940.000000	 0.012265  
939.000000	 0.011878  
938.000000	 0.011451  
937.000000	 0.011052  
936.000000	 0.010731  
935.000000	 0.010495  
934.000000	 0.010319  
933.000000	 0.010187  
932.000000	 0.010108  
931.000000	 0.010077  
930.000000	 0.010049  
929.000000	 0.009983  
928.000000	 0.009920  
927.000000	 0.009941  
926.000000	 0.010043  
925.000000	 0.010122  
924.000000	 0.010116  
923.000000	 0.010097  
922.000000	 0.010177  
921.000000	 0.010358  
920.000000	 0.010535  
919.000000	 0.010623  
918.000000	 0.010624  
917.000000	 0.010572  
916.000000	 0.010483  
915.000000	 0.010378  
914.000000	 0.010290  
913.000000	 0.010232  
912.000000	 0.010172  
911.000000	 0.010083  
910.000000	 0.009969  
909.000000	 0.009842  
908.000000	 0.009699  
907.000000	 0.009557  
906.000000	 0.009460  
905.000000	 0.009420  
904.000000	 0.009384  
903.000000	 0.009304  
902.000000	 0.009220  
901.000000	 0.009222  
900.000000	 0.009330  
899.000000	 0.009457  
898.000000	 0.009500  
897.000000	 0.009435  
896.000000	 0.009329  
895.000000	 0.009264  
894.000000	 0.009272  
893.000000	 0.009315  
892.000000	 0.009320  
891.000000	 0.009257  
890.000000	 0.009166  
889.000000	 0.009106  
888.000000	 0.009072  
887.000000	 0.009008  
886.000000	 0.008894  
885.000000	 0.008801  
884.000000	 0.008825  
883.000000	 0.008989  
882.000000	 0.009225  
881.000000	 0.009434  
880.000000	 0.009550  
879.000000	 0.009564  
878.000000	 0.009528  
877.000000	 0.009522  
876.000000	 0.009586  
875.000000	 0.009680  
874.000000	 0.009729  
873.000000	 0.009718  
872.000000	 0.009699  
871.000000	 0.009717  
870.000000	 0.009769  
869.000000	 0.009833  
868.000000	 0.009898  
867.000000	 0.009943  
866.000000	 0.009925  
865.000000	 0.009822  
864.000000	 0.009689  
863.000000	 0.009632  
862.000000	 0.009713  
861.000000	 0.009884  
860.000000	 0.010030  
859.000000	 0.010090  
858.000000	 0.010139  
857.000000	 0.010304  
856.000000	 0.010612  
855.000000	 0.010952  
854.000000	 0.011225  
853.000000	 0.011484  
852.000000	 0.011869  
851.000000	 0.012423  
850.000000	 0.013021  
849.000000	 0.013518  
848.000000	 0.013876  
847.000000	 0.014124  
846.000000	 0.014257  
845.000000	 0.014230  
844.000000	 0.014038  
843.000000	 0.013749  
842.000000	 0.013448  
841.000000	 0.013173  
840.000000	 0.012906  
839.000000	 0.012596  
838.000000	 0.012218  
837.000000	 0.011809  
836.000000	 0.011452  
835.000000	 0.011197  
834.000000	 0.011005  
833.000000	 0.010806  
832.000000	 0.010594  
831.000000	 0.010427  
830.000000	 0.010335  
829.000000	 0.010275  
828.000000	 0.010206  
827.000000	 0.010165  
826.000000	 0.010227  
825.000000	 0.010390  
824.000000	 0.010565  
823.000000	 0.010670  
822.000000	 0.010700  
821.000000	 0.010692  
820.000000	 0.010664  
819.000000	 0.010629  
818.000000	 0.010629  
817.000000	 0.010719  
816.000000	 0.010903  
815.000000	 0.011091  
814.000000	 0.011159  
813.000000	 0.011062  
812.000000	 0.010887  
811.000000	 0.010778  
810.000000	 0.010821  
809.000000	 0.011002  
808.000000	 0.011253  
807.000000	 0.011523  
806.000000	 0.011773  
805.000000	 0.011932  
804.000000	 0.011892  
803.000000	 0.011587  
802.000000	 0.011096  
801.000000	 0.010610  
800.000000	 0.010287  
799.000000	 0.010138  
798.000000	 0.010074  
797.000000	 0.010026  
796.000000	 0.009969  
795.000000	 0.009870  
794.000000	 0.009704  
793.000000	 0.009536  
792.000000	 0.009502  
791.000000	 0.009669  
790.000000	 0.009950  
789.000000	 0.010219  
788.000000	 0.010453  
787.000000	 0.010716  
786.000000	 0.011035  
785.000000	 0.011381  
784.000000	 0.011742  
783.000000	 0.012141  
782.000000	 0.012577  
781.000000	 0.012990  
780.000000	 0.013318  
779.000000	 0.013541  
778.000000	 0.013671  
777.000000	 0.013753  
776.000000	 0.013860  
775.000000	 0.014053  
774.000000	 0.014332  
773.000000	 0.014655  
772.000000	 0.015014  
771.000000	 0.015433  
770.000000	 0.015879  
769.000000	 0.016251  
768.000000	 0.016480  
767.000000	 0.016626  
766.000000	 0.016799  
765.000000	 0.017031  
764.000000	 0.017241  
763.000000	 0.017323  
762.000000	 0.017247  
761.000000	 0.017074  
760.000000	 0.016919  
759.000000	 0.016892  
758.000000	 0.017052  
757.000000	 0.017394  
756.000000	 0.017867  
755.000000	 0.018388  
754.000000	 0.018853  
753.000000	 0.019211  
752.000000	 0.019532  
751.000000	 0.019955  
750.000000	 0.020517  
749.000000	 0.021084  
748.000000	 0.021535  
747.000000	 0.021969  
746.000000	 0.022667  
745.000000	 0.023806  
744.000000	 0.025280  
743.000000	 0.026811  
742.000000	 0.028183  
741.000000	 0.029311  
740.000000	 0.030170  
739.000000	 0.030755  
738.000000	 0.031114  
737.000000	 0.031355  
736.000000	 0.031581  
735.000000	 0.031819  
734.000000	 0.032040  
733.000000	 0.032244  
732.000000	 0.032523  
731.000000	 0.033030  
730.000000	 0.033865  
729.000000	 0.034970  
728.000000	 0.036175  
727.000000	 0.037336  
726.000000	 0.038409  
725.000000	 0.039384  
724.000000	 0.040177  
723.000000	 0.040610  
722.000000	 0.040477  
721.000000	 0.039672  
720.000000	 0.038291  
719.000000	 0.036615  
718.000000	 0.034939  
717.000000	 0.033441  
716.000000	 0.032182  
715.000000	 0.031139  
714.000000	 0.030237  
713.000000	 0.029387  
712.000000	 0.028557  
711.000000	 0.027781  
710.000000	 0.027111  
709.000000	 0.026584  
708.000000	 0.026222  
707.000000	 0.026035  
706.000000	 0.025973  
705.000000	 0.025955  
704.000000	 0.025959  
703.000000	 0.026038  
702.000000	 0.026200  
701.000000	 0.026345  
700.000000	 0.026336  
699.000000	 0.026111  
698.000000	 0.025673  
697.000000	 0.025025  
696.000000	 0.024186  
695.000000	 0.023241  
694.000000	 0.022321  
693.000000	 0.021525  
692.000000	 0.020881  
691.000000	 0.020400  
690.000000	 0.020097  
689.000000	 0.019956  
688.000000	 0.019878  
687.000000	 0.019710  
686.000000	 0.019370  
685.000000	 0.018942  
684.000000	 0.018598  
683.000000	 0.018415  
682.000000	 0.018266  
681.000000	 0.017947  
680.000000	 0.017430  
679.000000	 0.016921  
678.000000	 0.016606  
677.000000	 0.016442  
676.000000	 0.016315  
675.000000	 0.016193  
674.000000	 0.016111  
673.000000	 0.016093  
672.000000	 0.016199  
671.000000	 0.016608  
670.000000	 0.017522  
669.000000	 0.018828  
668.000000	 0.019236  
667.000000	 0.017599  
666.000000	 0.015581  
665.000000	 0.014294  
664.000000	 0.013581  
663.000000	 0.013238  
662.000000	 0.013198  
661.000000	 0.013344  
660.000000	 0.013546  
659.000000	 0.013720  
658.000000	 0.013812  
657.000000	 0.013739  
656.000000	 0.013478  
655.000000	 0.013084  
654.000000	 0.012643  
653.000000	 0.012231  
652.000000	 0.011921  
651.000000	 0.011782  
650.000000	 0.011792  

