PE IR                   SPECTRUM    ASCII       PEDS        1.60        
  -1
NB431~1.ASC
17/05/24
07:50:57.00
17/05/24
07:50:57.00
Admin

650.000000
4









SPECTRUM ONE,CPU32 MAIN 00.02.6000 25-JUNE-2003 12:00:00
MIR TGS
MIR
OPTKBR
68128
0.200000

4.000000
STRONG
RATIO
SPECTRUM
MAGNITUDE
UNIVERSAL ATR
DOUBLE

COMBINED


0


#HDR
-1
-1
#GR
CM-1
A
0.00000011920928955078
0.0
4000.000000
-1.000000
3351
8
0.196736
-0.001825
#DATA
4000.000000	0.002823  
3999.000000	0.002727  
3998.000000	0.002718  
3997.000000	0.002763  
3996.000000	0.002793  
3995.000000	0.002759  
3994.000000	0.002670  
3993.000000	0.002591  
3992.000000	0.002488  
3991.000000	0.002423  
3990.000000	0.002416  
3989.000000	0.002476  
3988.000000	0.002587  
3987.000000	0.002710  
3986.000000	0.002800  
3985.000000	0.002831  
3984.000000	0.002805  
3983.000000	0.002740  
3982.000000	0.002657  
3981.000000	0.002559  
3980.000000	0.002444  
3979.000000	0.002320  
3978.000000	0.002212  
3977.000000	0.002152  
3976.000000	0.002159  
3975.000000	0.002231  
3974.000000	0.002345  
3973.000000	0.002475  
3972.000000	0.002594  
3971.000000	0.002683  
3970.000000	0.002726  
3969.000000	0.002707  
3968.000000	0.002622  
3967.000000	0.002496  
3966.000000	0.002375  
3965.000000	0.002302  
3964.000000	0.002286  
3963.000000	0.002310  
3962.000000	0.002351  
3961.000000	0.002397  
3960.000000	0.002435  
3959.000000	0.002442  
3958.000000	0.002404  
3957.000000	0.002349  
3956.000000	0.002332  
3955.000000	0.002390  
3954.000000	0.002513  
3953.000000	0.002645  
3952.000000	0.002721  
3951.000000	0.002708  
3950.000000	0.002613  
3949.000000	0.002478  
3948.000000	0.002354  
3947.000000	0.002292  
3946.000000	0.002316  
3945.000000	0.002400  
3944.000000	0.002479  
3943.000000	0.002505  
3942.000000	0.002497  
3941.000000	0.002503  
3940.000000	0.002530  
3939.000000	0.002541  
3938.000000	0.002511  
3937.000000	0.002466  
3936.000000	0.002452  
3935.000000	0.002475  
3934.000000	0.002494  
3933.000000	0.002474  
3932.000000	0.002440  
3931.000000	0.002440  
3930.000000	0.002481  
3929.000000	0.002536  
3928.000000	0.002595  
3927.000000	0.002654  
3926.000000	0.002687  
3925.000000	0.002667  
3924.000000	0.002592  
3923.000000	0.002490  
3922.000000	0.002397  
3921.000000	0.002357  
3920.000000	0.002399  
3919.000000	0.002505  
3918.000000	0.002597  
3917.000000	0.002622  
3916.000000	0.002622  
3915.000000	0.002673  
3914.000000	0.002779  
3913.000000	0.002879  
3912.000000	0.002913  
3911.000000	0.002870  
3910.000000	0.002778  
3909.000000	0.002679  
3908.000000	0.002609  
3907.000000	0.002601  
3906.000000	0.002664  
3905.000000	0.002787  
3904.000000	0.002947  
3903.000000	0.003116  
3902.000000	0.003261  
3901.000000	0.003342  
3900.000000	0.003339  
3899.000000	0.003274  
3898.000000	0.003179  
3897.000000	0.003056  
3896.000000	0.002900  
3895.000000	0.002757  
3894.000000	0.002699  
3893.000000	0.002749  
3892.000000	0.002809  
3891.000000	0.002788  
3890.000000	0.002732  
3889.000000	0.002733  
3888.000000	0.002765  
3887.000000	0.002682  
3886.000000	0.002446  
3885.000000	0.002253  
3884.000000	0.002296  
3883.000000	0.002539  
3882.000000	0.002772  
3881.000000	0.002819  
3880.000000	0.002695  
3879.000000	0.002544  
3878.000000	0.002468  
3877.000000	0.002444  
3876.000000	0.002395  
3875.000000	0.002317  
3874.000000	0.002326  
3873.000000	0.002500  
3872.000000	0.002718  
3871.000000	0.002759  
3870.000000	0.002634  
3869.000000	0.002622  
3868.000000	0.002877  
3867.000000	0.003232  
3866.000000	0.003385  
3865.000000	0.003245  
3864.000000	0.003005  
3863.000000	0.002835  
3862.000000	0.002702  
3861.000000	0.002540  
3860.000000	0.002349  
3859.000000	0.002178  
3858.000000	0.002087  
3857.000000	0.002159  
3856.000000	0.002424  
3855.000000	0.002706  
3854.000000	0.002792  
3853.000000	0.002809  
3852.000000	0.002892  
3851.000000	0.002975  
3850.000000	0.002950  
3849.000000	0.002806  
3848.000000	0.002621  
3847.000000	0.002472  
3846.000000	0.002374  
3845.000000	0.002334  
3844.000000	0.002401  
3843.000000	0.002651  
3842.000000	0.003084  
3841.000000	0.003542  
3840.000000	0.003765  
3839.000000	0.003638  
3838.000000	0.003305  
3837.000000	0.003011  
3836.000000	0.002873  
3835.000000	0.002853  
3834.000000	0.002828  
3833.000000	0.002702  
3832.000000	0.002500  
3831.000000	0.002362  
3830.000000	0.002399  
3829.000000	0.002570  
3828.000000	0.002692  
3827.000000	0.002617  
3826.000000	0.002425  
3825.000000	0.002359  
3824.000000	0.002555  
3823.000000	0.002854  
3822.000000	0.002924  
3821.000000	0.002753  
3820.000000	0.002679  
3819.000000	0.002909  
3818.000000	0.003286  
3817.000000	0.003424  
3816.000000	0.003173  
3815.000000	0.002811  
3814.000000	0.002627  
3813.000000	0.002603  
3812.000000	0.002586  
3811.000000	0.002521  
3810.000000	0.002459  
3809.000000	0.002400  
3808.000000	0.002267  
3807.000000	0.002112  
3806.000000	0.002145  
3805.000000	0.002489  
3804.000000	0.002982  
3803.000000	0.003226  
3802.000000	0.002997  
3801.000000	0.002622  
3800.000000	0.002546  
3799.000000	0.002806  
3798.000000	0.003107  
3797.000000	0.003152  
3796.000000	0.002909  
3795.000000	0.002572  
3794.000000	0.002322  
3793.000000	0.002194  
3792.000000	0.002156  
3791.000000	0.002167  
3790.000000	0.002195  
3789.000000	0.002229  
3788.000000	0.002289  
3787.000000	0.002387  
3786.000000	0.002481  
3785.000000	0.002513  
3784.000000	0.002493  
3783.000000	0.002486  
3782.000000	0.002503  
3781.000000	0.002458  
3780.000000	0.002294  
3779.000000	0.002101  
3778.000000	0.002005  
3777.000000	0.002018  
3776.000000	0.002043  
3775.000000	0.002014  
3774.000000	0.001987  
3773.000000	0.002059  
3772.000000	0.002209  
3771.000000	0.002308  
3770.000000	0.002306  
3769.000000	0.002308  
3768.000000	0.002400  
3767.000000	0.002513  
3766.000000	0.002517  
3765.000000	0.002406  
3764.000000	0.002323  
3763.000000	0.002373  
3762.000000	0.002505  
3761.000000	0.002599  
3760.000000	0.002628  
3759.000000	0.002652  
3758.000000	0.002688  
3757.000000	0.002719  
3756.000000	0.002760  
3755.000000	0.002813  
3754.000000	0.002802  
3753.000000	0.002628  
3752.000000	0.002370  
3751.000000	0.002295  
3750.000000	0.002431  
3749.000000	0.002584  
3748.000000	0.002693  
3747.000000	0.002749  
3746.000000	0.002597  
3745.000000	0.002166  
3744.000000	0.001823  
3743.000000	0.001912  
3742.000000	0.002263  
3741.000000	0.002512  
3740.000000	0.002503  
3739.000000	0.002365  
3738.000000	0.002289  
3737.000000	0.002357  
3736.000000	0.002554  
3735.000000	0.002789  
3734.000000	0.002895  
3733.000000	0.002769  
3732.000000	0.002491  
3731.000000	0.002249  
3730.000000	0.002153  
3729.000000	0.002140  
3728.000000	0.002057  
3727.000000	0.001835  
3726.000000	0.001596  
3725.000000	0.001494  
3724.000000	0.001552  
3723.000000	0.001708  
3722.000000	0.001907  
3721.000000	0.002108  
3720.000000	0.002249  
3719.000000	0.002272  
3718.000000	0.002166  
3717.000000	0.002002  
3716.000000	0.001870  
3715.000000	0.001786  
3714.000000	0.001678  
3713.000000	0.001500  
3712.000000	0.001397  
3711.000000	0.001535  
3710.000000	0.001823  
3709.000000	0.002094  
3708.000000	0.002291  
3707.000000	0.002433  
3706.000000	0.002562  
3705.000000	0.002700  
3704.000000	0.002806  
3703.000000	0.002782  
3702.000000	0.002568  
3701.000000	0.002251  
3700.000000	0.001993  
3699.000000	0.001884  
3698.000000	0.001872  
3697.000000	0.001872  
3696.000000	0.001900  
3695.000000	0.002057  
3694.000000	0.002421  
3693.000000	0.002975  
3692.000000	0.003576  
3691.000000	0.003966  
3690.000000	0.003917  
3689.000000	0.003488  
3688.000000	0.003006  
3687.000000	0.002742  
3686.000000	0.002709  
3685.000000	0.002736  
3684.000000	0.002669  
3683.000000	0.002478  
3682.000000	0.002222  
3681.000000	0.001972  
3680.000000	0.001845  
3679.000000	0.002018  
3678.000000	0.002553  
3677.000000	0.003129  
3676.000000	0.003247  
3675.000000	0.002919  
3674.000000	0.002638  
3673.000000	0.002721  
3672.000000	0.003067  
3671.000000	0.003354  
3670.000000	0.003355  
3669.000000	0.003116  
3668.000000	0.002810  
3667.000000	0.002524  
3666.000000	0.002268  
3665.000000	0.002070  
3664.000000	0.001988  
3663.000000	0.002039  
3662.000000	0.002149  
3661.000000	0.002215  
3660.000000	0.002190  
3659.000000	0.002092  
3658.000000	0.001962  
3657.000000	0.001869  
3656.000000	0.001928  
3655.000000	0.002204  
3654.000000	0.002648  
3653.000000	0.003110  
3652.000000	0.003388  
3651.000000	0.003411  
3650.000000	0.003519  
3649.000000	0.003993  
3648.000000	0.004400  
3647.000000	0.004354  
3646.000000	0.003987  
3645.000000	0.003549  
3644.000000	0.003164  
3643.000000	0.002873  
3642.000000	0.002700  
3641.000000	0.002637  
3640.000000	0.002610  
3639.000000	0.002524  
3638.000000	0.002377  
3637.000000	0.002267  
3636.000000	0.002249  
3635.000000	0.002245  
3634.000000	0.002153  
3633.000000	0.002002  
3632.000000	0.001940  
3631.000000	0.002085  
3630.000000	0.002406  
3629.000000	0.002765  
3628.000000	0.003007  
3627.000000	0.003106  
3626.000000	0.003116  
3625.000000	0.003099  
3624.000000	0.003142  
3623.000000	0.003330  
3622.000000	0.003653  
3621.000000	0.003954  
3620.000000	0.004044  
3619.000000	0.003903  
3618.000000	0.003694  
3617.000000	0.003565  
3616.000000	0.003533  
3615.000000	0.003509  
3614.000000	0.003410  
3613.000000	0.003243  
3612.000000	0.003092  
3611.000000	0.003026  
3610.000000	0.003049  
3609.000000	0.003131  
3608.000000	0.003247  
3607.000000	0.003365  
3606.000000	0.003459  
3605.000000	0.003547  
3604.000000	0.003670  
3603.000000	0.003829  
3602.000000	0.003959  
3601.000000	0.003970  
3600.000000	0.003853  
3599.000000	0.003697  
3598.000000	0.003607  
3597.000000	0.003628  
3596.000000	0.003715  
3595.000000	0.003782  
3594.000000	0.003795  
3593.000000	0.003794  
3592.000000	0.003836  
3591.000000	0.003942  
3590.000000	0.004067  
3589.000000	0.004138  
3588.000000	0.004154  
3587.000000	0.004198  
3586.000000	0.004301  
3585.000000	0.004421  
3584.000000	0.004503  
3583.000000	0.004526  
3582.000000	0.004522  
3581.000000	0.004554  
3580.000000	0.004675  
3579.000000	0.004871  
3578.000000	0.005049  
3577.000000	0.005110  
3576.000000	0.005034  
3575.000000	0.004903  
3574.000000	0.004825  
3573.000000	0.004860  
3572.000000	0.004990  
3571.000000	0.005154  
3570.000000	0.005276  
3569.000000	0.005295  
3568.000000	0.005261  
3567.000000	0.005333  
3566.000000	0.005528  
3565.000000	0.005691  
3564.000000	0.005713  
3563.000000	0.005604  
3562.000000	0.005437  
3561.000000	0.005298  
3560.000000	0.005252  
3559.000000	0.005328  
3558.000000	0.005506  
3557.000000	0.005722  
3556.000000	0.005905  
3555.000000	0.006009  
3554.000000	0.006023  
3553.000000	0.005964  
3552.000000	0.005862  
3551.000000	0.005747  
3550.000000	0.005650  
3549.000000	0.005619  
3548.000000	0.005703  
3547.000000	0.005918  
3546.000000	0.006195  
3545.000000	0.006415  
3544.000000	0.006504  
3543.000000	0.006474  
3542.000000	0.006379  
3541.000000	0.006267  
3540.000000	0.006170  
3539.000000	0.006112  
3538.000000	0.006095  
3537.000000	0.006106  
3536.000000	0.006131  
3535.000000	0.006169  
3534.000000	0.006220  
3533.000000	0.006269  
3532.000000	0.006284  
3531.000000	0.006248  
3530.000000	0.006190  
3529.000000	0.006186  
3528.000000	0.006307  
3527.000000	0.006543  
3526.000000	0.006787  
3525.000000	0.006916  
3524.000000	0.006903  
3523.000000	0.006858  
3522.000000	0.006916  
3521.000000	0.007109  
3520.000000	0.007354  
3519.000000	0.007532  
3518.000000	0.007593  
3517.000000	0.007574  
3516.000000	0.007547  
3515.000000	0.007551  
3514.000000	0.007585  
3513.000000	0.007652  
3512.000000	0.007780  
3511.000000	0.007990  
3510.000000	0.008240  
3509.000000	0.008433  
3508.000000	0.008514  
3507.000000	0.008519  
3506.000000	0.008516  
3505.000000	0.008531  
3504.000000	0.008527  
3503.000000	0.008479  
3502.000000	0.008414  
3501.000000	0.008381  
3500.000000	0.008390  
3499.000000	0.008404  
3498.000000	0.008401  
3497.000000	0.008397  
3496.000000	0.008414  
3495.000000	0.008430  
3494.000000	0.008423  
3493.000000	0.008431  
3492.000000	0.008545  
3491.000000	0.008804  
3490.000000	0.009113  
3489.000000	0.009323  
3488.000000	0.009386  
3487.000000	0.009405  
3486.000000	0.009500  
3485.000000	0.009654  
3484.000000	0.009724  
3483.000000	0.009606  
3482.000000	0.009361  
3481.000000	0.009169  
3480.000000	0.009159  
3479.000000	0.009313  
3478.000000	0.009523  
3477.000000	0.009708  
3476.000000	0.009870  
3475.000000	0.010051  
3474.000000	0.010248  
3473.000000	0.010398  
3472.000000	0.010452  
3471.000000	0.010425  
3470.000000	0.010372  
3469.000000	0.010317  
3468.000000	0.010253  
3467.000000	0.010192  
3466.000000	0.010182  
3465.000000	0.010253  
3464.000000	0.010364  
3463.000000	0.010440  
3462.000000	0.010452  
3461.000000	0.010450  
3460.000000	0.010506  
3459.000000	0.010645  
3458.000000	0.010825  
3457.000000	0.010982  
3456.000000	0.011085  
3455.000000	0.011138  
3454.000000	0.011146  
3453.000000	0.011107  
3452.000000	0.011045  
3451.000000	0.011032  
3450.000000	0.011136  
3449.000000	0.011348  
3448.000000	0.011578  
3447.000000	0.011735  
3446.000000	0.011796  
3445.000000	0.011799  
3444.000000	0.011787  
3443.000000	0.011794  
3442.000000	0.011836  
3441.000000	0.011904  
3440.000000	0.011948  
3439.000000	0.011918  
3438.000000	0.011811  
3437.000000	0.011687  
3436.000000	0.011624  
3435.000000	0.011658  
3434.000000	0.011773  
3433.000000	0.011928  
3432.000000	0.012098  
3431.000000	0.012270  
3430.000000	0.012409  
3429.000000	0.012465  
3428.000000	0.012426  
3427.000000	0.012352  
3426.000000	0.012320  
3425.000000	0.012348  
3424.000000	0.012383  
3423.000000	0.012375  
3422.000000	0.012334  
3421.000000	0.012297  
3420.000000	0.012264  
3419.000000	0.012189  
3418.000000	0.012056  
3417.000000	0.011926  
3416.000000	0.011907  
3415.000000	0.012061  
3414.000000	0.012346  
3413.000000	0.012639  
3412.000000	0.012837  
3411.000000	0.012920  
3410.000000	0.012933  
3409.000000	0.012937  
3408.000000	0.012969  
3407.000000	0.013041  
3406.000000	0.013126  
3405.000000	0.013169  
3404.000000	0.013127  
3403.000000	0.013012  
3402.000000	0.012877  
3401.000000	0.012782  
3400.000000	0.012757  
3399.000000	0.012819  
3398.000000	0.012957  
3397.000000	0.013121  
3396.000000	0.013236  
3395.000000	0.013263  
3394.000000	0.013241  
3393.000000	0.013259  
3392.000000	0.013357  
3391.000000	0.013482  
3390.000000	0.013534  
3389.000000	0.013458  
3388.000000	0.013313  
3387.000000	0.013224  
3386.000000	0.013272  
3385.000000	0.013417  
3384.000000	0.013548  
3383.000000	0.013606  
3382.000000	0.013637  
3381.000000	0.013722  
3380.000000	0.013870  
3379.000000	0.014006  
3378.000000	0.014044  
3377.000000	0.013964  
3376.000000	0.013810  
3375.000000	0.013638  
3374.000000	0.013477  
3373.000000	0.013346  
3372.000000	0.013291  
3371.000000	0.013367  
3370.000000	0.013580  
3369.000000	0.013846  
3368.000000	0.014039  
3367.000000	0.014093  
3366.000000	0.014039  
3365.000000	0.013949  
3364.000000	0.013865  
3363.000000	0.013798  
3362.000000	0.013759  
3361.000000	0.013766  
3360.000000	0.013826  
3359.000000	0.013923  
3358.000000	0.014023  
3357.000000	0.014082  
3356.000000	0.014059  
3355.000000	0.013941  
3354.000000	0.013774  
3353.000000	0.013630  
3352.000000	0.013561  
3351.000000	0.013575  
3350.000000	0.013656  
3349.000000	0.013777  
3348.000000	0.013893  
3347.000000	0.013958  
3346.000000	0.013968  
3345.000000	0.013980  
3344.000000	0.014060  
3343.000000	0.014212  
3342.000000	0.014378  
3341.000000	0.014492  
3340.000000	0.014531  
3339.000000	0.014497  
3338.000000	0.014389  
3337.000000	0.014211  
3336.000000	0.014022  
3335.000000	0.013914  
3334.000000	0.013934  
3333.000000	0.014024  
3332.000000	0.014073  
3331.000000	0.014014  
3330.000000	0.013865  
3329.000000	0.013688  
3328.000000	0.013529  
3327.000000	0.013418  
3326.000000	0.013389  
3325.000000	0.013478  
3324.000000	0.013685  
3323.000000	0.013950  
3322.000000	0.014186  
3321.000000	0.014331  
3320.000000	0.014390  
3319.000000	0.014407  
3318.000000	0.014413  
3317.000000	0.014396  
3316.000000	0.014335  
3315.000000	0.014239  
3314.000000	0.014141  
3313.000000	0.014062  
3312.000000	0.013994  
3311.000000	0.013934  
3310.000000	0.013898  
3309.000000	0.013895  
3308.000000	0.013910  
3307.000000	0.013912  
3306.000000	0.013893  
3305.000000	0.013869  
3304.000000	0.013864  
3303.000000	0.013883  
3302.000000	0.013905  
3301.000000	0.013895  
3300.000000	0.013842  
3299.000000	0.013773  
3298.000000	0.013726  
3297.000000	0.013700  
3296.000000	0.013657  
3295.000000	0.013582  
3294.000000	0.013518  
3293.000000	0.013521  
3292.000000	0.013585  
3291.000000	0.013630  
3290.000000	0.013584  
3289.000000	0.013450  
3288.000000	0.013316  
3287.000000	0.013292  
3286.000000	0.013422  
3285.000000	0.013622  
3284.000000	0.013726  
3283.000000	0.013617  
3282.000000	0.013335  
3281.000000	0.013030  
3280.000000	0.012825  
3279.000000	0.012733  
3278.000000	0.012698  
3277.000000	0.012679  
3276.000000	0.012674  
3275.000000	0.012687  
3274.000000	0.012703  
3273.000000	0.012697  
3272.000000	0.012658  
3271.000000	0.012594  
3270.000000	0.012535  
3269.000000	0.012519  
3268.000000	0.012563  
3267.000000	0.012639  
3266.000000	0.012688  
3265.000000	0.012667  
3264.000000	0.012593  
3263.000000	0.012527  
3262.000000	0.012506  
3261.000000	0.012500  
3260.000000	0.012450  
3259.000000	0.012348  
3258.000000	0.012254  
3257.000000	0.012236  
3256.000000	0.012296  
3255.000000	0.012372  
3254.000000	0.012396  
3253.000000	0.012337  
3252.000000	0.012212  
3251.000000	0.012066  
3250.000000	0.011953  
3249.000000	0.011911  
3248.000000	0.011933  
3247.000000	0.011976  
3246.000000	0.012009  
3245.000000	0.012025  
3244.000000	0.012033  
3243.000000	0.012031  
3242.000000	0.012004  
3241.000000	0.011937  
3240.000000	0.011821  
3239.000000	0.011661  
3238.000000	0.011488  
3237.000000	0.011350  
3236.000000	0.011292  
3235.000000	0.011317  
3234.000000	0.011389  
3233.000000	0.011449  
3232.000000	0.011456  
3231.000000	0.011413  
3230.000000	0.011361  
3229.000000	0.011348  
3228.000000	0.011397  
3227.000000	0.011481  
3226.000000	0.011542  
3225.000000	0.011532  
3224.000000	0.011445  
3223.000000	0.011320  
3222.000000	0.011203  
3221.000000	0.011105  
3220.000000	0.011019  
3219.000000	0.010958  
3218.000000	0.010946  
3217.000000	0.010964  
3216.000000	0.010936  
3215.000000	0.010810  
3214.000000	0.010636  
3213.000000	0.010535  
3212.000000	0.010574  
3211.000000	0.010711  
3210.000000	0.010837  
3209.000000	0.010857  
3208.000000	0.010745  
3207.000000	0.010557  
3206.000000	0.010396  
3205.000000	0.010343  
3204.000000	0.010395  
3203.000000	0.010475  
3202.000000	0.010506  
3201.000000	0.010467  
3200.000000	0.010387  
3199.000000	0.010313  
3198.000000	0.010280  
3197.000000	0.010274  
3196.000000	0.010235  
3195.000000	0.010111  
3194.000000	0.009937  
3193.000000	0.009819  
3192.000000	0.009820  
3191.000000	0.009885  
3190.000000	0.009899  
3189.000000	0.009810  
3188.000000	0.009667  
3187.000000	0.009555  
3186.000000	0.009510  
3185.000000	0.009510  
3184.000000	0.009515  
3183.000000	0.009509  
3182.000000	0.009495  
3181.000000	0.009465  
3180.000000	0.009399  
3179.000000	0.009287  
3178.000000	0.009159  
3177.000000	0.009061  
3176.000000	0.008995  
3175.000000	0.008922  
3174.000000	0.008812  
3173.000000	0.008692  
3172.000000	0.008618  
3171.000000	0.008609  
3170.000000	0.008641  
3169.000000	0.008679  
3168.000000	0.008717  
3167.000000	0.008765  
3166.000000	0.008832  
3165.000000	0.008903  
3164.000000	0.008937  
3163.000000	0.008888  
3162.000000	0.008738  
3161.000000	0.008530  
3160.000000	0.008335  
3159.000000	0.008194  
3158.000000	0.008093  
3157.000000	0.008015  
3156.000000	0.007971  
3155.000000	0.007994  
3154.000000	0.008085  
3153.000000	0.008190  
3152.000000	0.008230  
3151.000000	0.008154  
3150.000000	0.007981  
3149.000000	0.007799  
3148.000000	0.007709  
3147.000000	0.007744  
3146.000000	0.007825  
3145.000000	0.007827  
3144.000000	0.007687  
3143.000000	0.007458  
3142.000000	0.007255  
3141.000000	0.007161  
3140.000000	0.007185  
3139.000000	0.007291  
3138.000000	0.007432  
3137.000000	0.007561  
3136.000000	0.007652  
3135.000000	0.007699  
3134.000000	0.007705  
3133.000000	0.007666  
3132.000000	0.007573  
3131.000000	0.007445  
3130.000000	0.007325  
3129.000000	0.007240  
3128.000000	0.007189  
3127.000000	0.007169  
3126.000000	0.007195  
3125.000000	0.007260  
3124.000000	0.007313  
3123.000000	0.007299  
3122.000000	0.007225  
3121.000000	0.007155  
3120.000000	0.007152  
3119.000000	0.007220  
3118.000000	0.007310  
3117.000000	0.007355  
3116.000000	0.007318  
3115.000000	0.007222  
3114.000000	0.007134  
3113.000000	0.007097  
3112.000000	0.007089  
3111.000000	0.007054  
3110.000000	0.006970  
3109.000000	0.006860  
3108.000000	0.006757  
3107.000000	0.006690  
3106.000000	0.006676  
3105.000000	0.006704  
3104.000000	0.006721  
3103.000000	0.006678  
3102.000000	0.006604  
3101.000000	0.006588  
3100.000000	0.006671  
3099.000000	0.006785  
3098.000000	0.006828  
3097.000000	0.006784  
3096.000000	0.006717  
3095.000000	0.006686  
3094.000000	0.006674  
3093.000000	0.006636  
3092.000000	0.006558  
3091.000000	0.006482  
3090.000000	0.006465  
3089.000000	0.006536  
3088.000000	0.006669  
3087.000000	0.006800  
3086.000000	0.006868  
3085.000000	0.006855  
3084.000000	0.006785  
3083.000000	0.006690  
3082.000000	0.006581  
3081.000000	0.006464  
3080.000000	0.006355  
3079.000000	0.006286  
3078.000000	0.006279  
3077.000000	0.006324  
3076.000000	0.006370  
3075.000000	0.006369  
3074.000000	0.006317  
3073.000000	0.006258  
3072.000000	0.006239  
3071.000000	0.006264  
3070.000000	0.006311  
3069.000000	0.006373  
3068.000000	0.006458  
3067.000000	0.006550  
3066.000000	0.006588  
3065.000000	0.006531  
3064.000000	0.006414  
3063.000000	0.006322  
3062.000000	0.006302  
3061.000000	0.006316  
3060.000000	0.006305  
3059.000000	0.006255  
3058.000000	0.006199  
3057.000000	0.006169  
3056.000000	0.006167  
3055.000000	0.006200  
3054.000000	0.006296  
3053.000000	0.006475  
3052.000000	0.006700  
3051.000000	0.006888  
3050.000000	0.006965  
3049.000000	0.006912  
3048.000000	0.006778  
3047.000000	0.006645  
3046.000000	0.006580  
3045.000000	0.006593  
3044.000000	0.006646  
3043.000000	0.006698  
3042.000000	0.006738  
3041.000000	0.006781  
3040.000000	0.006831  
3039.000000	0.006879  
3038.000000	0.006924  
3037.000000	0.006984  
3036.000000	0.007075  
3035.000000	0.007199  
3034.000000	0.007360  
3033.000000	0.007553  
3032.000000	0.007743  
3031.000000	0.007859  
3030.000000	0.007860  
3029.000000	0.007794  
3028.000000	0.007776  
3027.000000	0.007891  
3026.000000	0.008125  
3025.000000	0.008381  
3024.000000	0.008576  
3023.000000	0.008722  
3022.000000	0.008911  
3021.000000	0.009238  
3020.000000	0.009716  
3019.000000	0.010276  
3018.000000	0.010842  
3017.000000	0.011382  
3016.000000	0.011892  
3015.000000	0.012361  
3014.000000	0.012775  
3013.000000	0.013140  
3012.000000	0.013465  
3011.000000	0.013718  
3010.000000	0.013840  
3009.000000	0.013817  
3008.000000	0.013709  
3007.000000	0.013593  
3006.000000	0.013483  
3005.000000	0.013333  
3004.000000	0.013105  
3003.000000	0.012816  
3002.000000	0.012523  
3001.000000	0.012277  
3000.000000	0.012111  
2999.000000	0.012030  
2998.000000	0.012018  
2997.000000	0.012053  
2996.000000	0.012126  
2995.000000	0.012235  
2994.000000	0.012376  
2993.000000	0.012541  
2992.000000	0.012742  
2991.000000	0.013025  
2990.000000	0.013443  
2989.000000	0.014012  
2988.000000	0.014696  
2987.000000	0.015428  
2986.000000	0.016172  
2985.000000	0.016948  
2984.000000	0.017823  
2983.000000	0.018845  
2982.000000	0.020000  
2981.000000	0.021247  
2980.000000	0.022594  
2979.000000	0.024128  
2978.000000	0.025946  
2977.000000	0.028074  
2976.000000	0.030474  
2975.000000	0.033126  
2974.000000	0.036074  
2973.000000	0.039376  
2972.000000	0.043040  
2971.000000	0.047024  
2970.000000	0.051303  
2969.000000	0.055901  
2968.000000	0.060848  
2967.000000	0.066094  
2966.000000	0.071485  
2965.000000	0.076833  
2964.000000	0.082002  
2963.000000	0.086940  
2962.000000	0.091616  
2961.000000	0.095967  
2960.000000	0.099892  
2959.000000	0.103270  
2958.000000	0.105973  
2957.000000	0.107896  
2956.000000	0.108980  
2955.000000	0.109222  
2954.000000	0.108663  
2953.000000	0.107398  
2952.000000	0.105597  
2951.000000	0.103491  
2950.000000	0.101328  
2949.000000	0.099334  
2948.000000	0.097681  
2947.000000	0.096485  
2946.000000	0.095825  
2945.000000	0.095786  
2944.000000	0.096482  
2943.000000	0.098038  
2942.000000	0.100516  
2941.000000	0.103860  
2940.000000	0.107919  
2939.000000	0.112516  
2938.000000	0.117532  
2937.000000	0.122920  
2936.000000	0.128658  
2935.000000	0.134695  
2934.000000	0.140938  
2933.000000	0.147320  
2932.000000	0.153834  
2931.000000	0.160475  
2930.000000	0.167124  
2929.000000	0.173546  
2928.000000	0.179501  
2927.000000	0.184837  
2926.000000	0.189436  
2925.000000	0.193124  
2924.000000	0.195643  
2923.000000	0.196736  
2922.000000	0.196282  
2921.000000	0.194391  
2920.000000	0.191357  
2919.000000	0.187501  
2918.000000	0.183063  
2917.000000	0.178222  
2916.000000	0.173157  
2915.000000	0.168026  
2914.000000	0.162915  
2913.000000	0.157866  
2912.000000	0.152929  
2911.000000	0.148169  
2910.000000	0.143630  
2909.000000	0.139314  
2908.000000	0.135206  
2907.000000	0.131291  
2906.000000	0.127547  
2905.000000	0.123947  
2904.000000	0.120461  
2903.000000	0.117066  
2902.000000	0.113758  
2901.000000	0.110563  
2900.000000	0.107489  
2899.000000	0.104476  
2898.000000	0.101422  
2897.000000	0.098283  
2896.000000	0.095131  
2895.000000	0.092086  
2894.000000	0.089212  
2893.000000	0.086493  
2892.000000	0.083895  
2891.000000	0.081397  
2890.000000	0.078990  
2889.000000	0.076667  
2888.000000	0.074473  
2887.000000	0.072513  
2886.000000	0.070920  
2885.000000	0.069775  
2884.000000	0.069089  
2883.000000	0.068853  
2882.000000	0.069094  
2881.000000	0.069880  
2880.000000	0.071265  
2879.000000	0.073249  
2878.000000	0.075773  
2877.000000	0.078721  
2876.000000	0.081890  
2875.000000	0.084967  
2874.000000	0.087607  
2873.000000	0.089574  
2872.000000	0.090841  
2871.000000	0.091552  
2870.000000	0.091903  
2869.000000	0.092081  
2868.000000	0.092262  
2867.000000	0.092630  
2866.000000	0.093381  
2865.000000	0.094701  
2864.000000	0.096722  
2863.000000	0.099462  
2862.000000	0.102810  
2861.000000	0.106580  
2860.000000	0.110573  
2859.000000	0.114593  
2858.000000	0.118436  
2857.000000	0.121887  
2856.000000	0.124699  
2855.000000	0.126540  
2854.000000	0.127010  
2853.000000	0.125803  
2852.000000	0.122891  
2851.000000	0.118536  
2850.000000	0.113130  
2849.000000	0.107037  
2848.000000	0.100560  
2847.000000	0.093959  
2846.000000	0.087462  
2845.000000	0.081234  
2844.000000	0.075351  
2843.000000	0.069791  
2842.000000	0.064490  
2841.000000	0.059429  
2840.000000	0.054664  
2839.000000	0.050290  
2838.000000	0.046374  
2837.000000	0.042934  
2836.000000	0.039945  
2835.000000	0.037346  
2834.000000	0.035043  
2833.000000	0.032941  
2832.000000	0.030991  
2831.000000	0.029199  
2830.000000	0.027593  
2829.000000	0.026183  
2828.000000	0.024942  
2827.000000	0.023825  
2826.000000	0.022782  
2825.000000	0.021776  
2824.000000	0.020803  
2823.000000	0.019882  
2822.000000	0.019037  
2821.000000	0.018280  
2820.000000	0.017614  
2819.000000	0.017029  
2818.000000	0.016500  
2817.000000	0.015993  
2816.000000	0.015494  
2815.000000	0.015027  
2814.000000	0.014619  
2813.000000	0.014266  
2812.000000	0.013934  
2811.000000	0.013596  
2810.000000	0.013261  
2809.000000	0.012960  
2808.000000	0.012716  
2807.000000	0.012518  
2806.000000	0.012327  
2805.000000	0.012107  
2804.000000	0.011864  
2803.000000	0.011634  
2802.000000	0.011438  
2801.000000	0.011247  
2800.000000	0.011022  
2799.000000	0.010775  
2798.000000	0.010572  
2797.000000	0.010454  
2796.000000	0.010393  
2795.000000	0.010326  
2794.000000	0.010219  
2793.000000	0.010091  
2792.000000	0.009973  
2791.000000	0.009867  
2790.000000	0.009753  
2789.000000	0.009615  
2788.000000	0.009453  
2787.000000	0.009275  
2786.000000	0.009091  
2785.000000	0.008918  
2784.000000	0.008779  
2783.000000	0.008689  
2782.000000	0.008629  
2781.000000	0.008550  
2780.000000	0.008418  
2779.000000	0.008239  
2778.000000	0.008057  
2777.000000	0.007904  
2776.000000	0.007779  
2775.000000	0.007653  
2774.000000	0.007505  
2773.000000	0.007339  
2772.000000	0.007181  
2771.000000	0.007060  
2770.000000	0.006977  
2769.000000	0.006900  
2768.000000	0.006788  
2767.000000	0.006643  
2766.000000	0.006515  
2765.000000	0.006462  
2764.000000	0.006491  
2763.000000	0.006551  
2762.000000	0.006564  
2761.000000	0.006479  
2760.000000	0.006310  
2759.000000	0.006122  
2758.000000	0.005988  
2757.000000	0.005928  
2756.000000	0.005904  
2755.000000	0.005857  
2754.000000	0.005771  
2753.000000	0.005676  
2752.000000	0.005612  
2751.000000	0.005586  
2750.000000	0.005570  
2749.000000	0.005539  
2748.000000	0.005497  
2747.000000	0.005467  
2746.000000	0.005459  
2745.000000	0.005462  
2744.000000	0.005456  
2743.000000	0.005437  
2742.000000	0.005423  
2741.000000	0.005442  
2740.000000	0.005515  
2739.000000	0.005632  
2738.000000	0.005742  
2737.000000	0.005789  
2736.000000	0.005760  
2735.000000	0.005714  
2734.000000	0.005722  
2733.000000	0.005801  
2732.000000	0.005896  
2731.000000	0.005936  
2730.000000	0.005897  
2729.000000	0.005807  
2728.000000	0.005719  
2727.000000	0.005669  
2726.000000	0.005659  
2725.000000	0.005662  
2724.000000	0.005651  
2723.000000	0.005627  
2722.000000	0.005608  
2721.000000	0.005598  
2720.000000	0.005580  
2719.000000	0.005538  
2718.000000	0.005468  
2717.000000	0.005381  
2716.000000	0.005295  
2715.000000	0.005226  
2714.000000	0.005179  
2713.000000	0.005126  
2712.000000	0.005030  
2711.000000	0.004890  
2710.000000	0.004758  
2709.000000	0.004698  
2708.000000	0.004728  
2707.000000	0.004800  
2706.000000	0.004835  
2705.000000	0.004772  
2704.000000	0.004614  
2703.000000	0.004440  
2702.000000	0.004347  
2701.000000	0.004369  
2700.000000	0.004452  
2699.000000	0.004514  
2698.000000	0.004518  
2697.000000	0.004488  
2696.000000	0.004469  
2695.000000	0.004488  
2694.000000	0.004546  
2693.000000	0.004625  
2692.000000	0.004685  
2691.000000	0.004694  
2690.000000	0.004652  
2689.000000	0.004594  
2688.000000	0.004556  
2687.000000	0.004545  
2686.000000	0.004542  
2685.000000	0.004534  
2684.000000	0.004532  
2683.000000	0.004559  
2682.000000	0.004616  
2681.000000	0.004667  
2680.000000	0.004667  
2679.000000	0.004604  
2678.000000	0.004508  
2677.000000	0.004417  
2676.000000	0.004365  
2675.000000	0.004369  
2674.000000	0.004428  
2673.000000	0.004522  
2672.000000	0.004619  
2671.000000	0.004699  
2670.000000	0.004747  
2669.000000	0.004751  
2668.000000	0.004703  
2667.000000	0.004621  
2666.000000	0.004540  
2665.000000	0.004481  
2664.000000	0.004426  
2663.000000	0.004350  
2662.000000	0.004238  
2661.000000	0.004091  
2660.000000	0.003929  
2659.000000	0.003805  
2658.000000	0.003784  
2657.000000	0.003882  
2656.000000	0.004030  
2655.000000	0.004125  
2654.000000	0.004115  
2653.000000	0.004032  
2652.000000	0.003939  
2651.000000	0.003872  
2650.000000	0.003821  
2649.000000	0.003747  
2648.000000	0.003629  
2647.000000	0.003496  
2646.000000	0.003408  
2645.000000	0.003398  
2644.000000	0.003437  
2643.000000	0.003473  
2642.000000	0.003484  
2641.000000	0.003475  
2640.000000	0.003441  
2639.000000	0.003370  
2638.000000	0.003271  
2637.000000	0.003185  
2636.000000	0.003146  
2635.000000	0.003146  
2634.000000	0.003151  
2633.000000	0.003138  
2632.000000	0.003118  
2631.000000	0.003119  
2630.000000	0.003157  
2629.000000	0.003211  
2628.000000	0.003241  
2627.000000	0.003235  
2626.000000	0.003217  
2625.000000	0.003202  
2624.000000	0.003170  
2623.000000	0.003102  
2622.000000	0.003022  
2621.000000	0.002966  
2620.000000	0.002934  
2619.000000	0.002901  
2618.000000	0.002873  
2617.000000	0.002886  
2616.000000	0.002942  
2615.000000	0.002999  
2614.000000	0.003028  
2613.000000	0.003037  
2612.000000	0.003035  
2611.000000	0.002992  
2610.000000	0.002893  
2609.000000	0.002782  
2608.000000	0.002737  
2607.000000	0.002789  
2606.000000	0.002895  
2605.000000	0.002977  
2604.000000	0.002969  
2603.000000	0.002851  
2602.000000	0.002657  
2601.000000	0.002467  
2600.000000	0.002349  
2599.000000	0.002304  
2598.000000	0.002286  
2597.000000	0.002262  
2596.000000	0.002242  
2595.000000	0.002237  
2594.000000	0.002224  
2593.000000	0.002177  
2592.000000	0.002117  
2591.000000	0.002112  
2590.000000	0.002208  
2589.000000	0.002363  
2588.000000	0.002478  
2587.000000	0.002476  
2586.000000	0.002379  
2585.000000	0.002285  
2584.000000	0.002272  
2583.000000	0.002314  
2582.000000	0.002316  
2581.000000	0.002227  
2580.000000	0.002099  
2579.000000	0.002011  
2578.000000	0.001966  
2577.000000	0.001904  
2576.000000	0.001802  
2575.000000	0.001715  
2574.000000	0.001707  
2573.000000	0.001765  
2572.000000	0.001824  
2571.000000	0.001824  
2570.000000	0.001753  
2569.000000	0.001655  
2568.000000	0.001612  
2567.000000	0.001675  
2566.000000	0.001789  
2565.000000	0.001812  
2564.000000	0.001678  
2563.000000	0.001485  
2562.000000	0.001384  
2561.000000	0.001412  
2560.000000	0.001494  
2559.000000	0.001582  
2558.000000	0.001690  
2557.000000	0.001809  
2556.000000	0.001868  
2555.000000	0.001823  
2554.000000	0.001713  
2553.000000	0.001603  
2552.000000	0.001530  
2551.000000	0.001529  
2550.000000	0.001629  
2549.000000	0.001782  
2548.000000	0.001853  
2547.000000	0.001762  
2546.000000	0.001590  
2545.000000	0.001481  
2544.000000	0.001461  
2543.000000	0.001441  
2542.000000	0.001376  
2541.000000	0.001328  
2540.000000	0.001366  
2539.000000	0.001457  
2538.000000	0.001500  
2537.000000	0.001434  
2536.000000	0.001278  
2535.000000	0.001096  
2534.000000	0.000942  
2533.000000	0.000839  
2532.000000	0.000795  
2531.000000	0.000833  
2530.000000	0.000980  
2529.000000	0.001216  
2528.000000	0.001440  
2527.000000	0.001533  
2526.000000	0.001458  
2525.000000	0.001281  
2524.000000	0.001106  
2523.000000	0.000998  
2522.000000	0.000976  
2521.000000	0.001039  
2520.000000	0.001162  
2519.000000	0.001289  
2518.000000	0.001342  
2517.000000	0.001290  
2516.000000	0.001199  
2515.000000	0.001180  
2514.000000	0.001288  
2513.000000	0.001464  
2512.000000	0.001596  
2511.000000	0.001616  
2510.000000	0.001542  
2509.000000	0.001434  
2508.000000	0.001352  
2507.000000	0.001323  
2506.000000	0.001325  
2505.000000	0.001299  
2504.000000	0.001217  
2503.000000	0.001133  
2502.000000	0.001131  
2501.000000	0.001229  
2500.000000	0.001347  
2499.000000	0.001398  
2498.000000	0.001356  
2497.000000	0.001262  
2496.000000	0.001180  
2495.000000	0.001155  
2494.000000	0.001181  
2493.000000	0.001202  
2492.000000	0.001185  
2491.000000	0.001184  
2490.000000	0.001278  
2489.000000	0.001442  
2488.000000	0.001539  
2487.000000	0.001477  
2486.000000	0.001309  
2485.000000	0.001148  
2484.000000	0.001036  
2483.000000	0.000946  
2482.000000	0.000875  
2481.000000	0.000879  
2480.000000	0.000998  
2479.000000	0.001195  
2478.000000	0.001357  
2477.000000	0.001368  
2476.000000	0.001190  
2475.000000	0.000907  
2474.000000	0.000656  
2473.000000	0.000526  
2472.000000	0.000507  
2471.000000	0.000539  
2470.000000	0.000568  
2469.000000	0.000565  
2468.000000	0.000529  
2467.000000	0.000481  
2466.000000	0.000440  
2465.000000	0.000394  
2464.000000	0.000343  
2463.000000	0.000347  
2462.000000	0.000460  
2461.000000	0.000614  
2460.000000	0.000663  
2459.000000	0.000562  
2458.000000	0.000423  
2457.000000	0.000360  
2456.000000	0.000358  
2455.000000	0.000341  
2454.000000	0.000299  
2453.000000	0.000270  
2452.000000	0.000266  
2451.000000	0.000296  
2450.000000	0.000408  
2449.000000	0.000599  
2448.000000	0.000733  
2447.000000	0.000660  
2446.000000	0.000422  
2445.000000	0.000228  
2444.000000	0.000229  
2443.000000	0.000378  
2442.000000	0.000527  
2441.000000	0.000579  
2440.000000	0.000532  
2439.000000	0.000440  
2438.000000	0.000382  
2437.000000	0.000414  
2436.000000	0.000508  
2435.000000	0.000580  
2434.000000	0.000572  
2433.000000	0.000516  
2432.000000	0.000500  
2431.000000	0.000587  
2430.000000	0.000766  
2429.000000	0.000943  
2428.000000	0.001006  
2427.000000	0.000919  
2426.000000	0.000748  
2425.000000	0.000586  
2424.000000	0.000467  
2423.000000	0.000379  
2422.000000	0.000338  
2421.000000	0.000372  
2420.000000	0.000462  
2419.000000	0.000548  
2418.000000	0.000611  
2417.000000	0.000697  
2416.000000	0.000830  
2415.000000	0.000964  
2414.000000	0.001042  
2413.000000	0.001061  
2412.000000	0.001054  
2411.000000	0.001022  
2410.000000	0.000943  
2409.000000	0.000824  
2408.000000	0.000714  
2407.000000	0.000648  
2406.000000	0.000597  
2405.000000	0.000511  
2404.000000	0.000405  
2403.000000	0.000365  
2402.000000	0.000444  
2401.000000	0.000581  
2400.000000	0.000650  
2399.000000	0.000608  
2398.000000	0.000527  
2397.000000	0.000505  
2396.000000	0.000558  
2395.000000	0.000628  
2394.000000	0.000648  
2393.000000	0.000594  
2392.000000	0.000497  
2391.000000	0.000426  
2390.000000	0.000416  
2389.000000	0.000410  
2388.000000	0.000303  
2387.000000	0.000080  
2386.000000	-0.000155 
2385.000000	-0.000295 
2384.000000	-0.000324 
2383.000000	-0.000270 
2382.000000	-0.000133 
2381.000000	0.000079  
2380.000000	0.000281  
2379.000000	0.000372  
2378.000000	0.000363  
2377.000000	0.000315  
2376.000000	0.000181  
2375.000000	-0.000144 
2374.000000	-0.000556 
2373.000000	-0.000719 
2372.000000	-0.000437 
2371.000000	0.000086  
2370.000000	0.000492  
2369.000000	0.000659  
2368.000000	0.000727  
2367.000000	0.000867  
2366.000000	0.001170  
2365.000000	0.001588  
2364.000000	0.001784  
2363.000000	0.001305  
2362.000000	0.000210  
2361.000000	-0.000772 
2360.000000	-0.001020 
2359.000000	-0.000589 
2358.000000	0.000049  
2357.000000	0.000634  
2356.000000	0.001151  
2355.000000	0.001554  
2354.000000	0.001792  
2353.000000	0.001841  
2352.000000	0.001759  
2351.000000	0.001638  
2350.000000	0.001519  
2349.000000	0.001413  
2348.000000	0.001251  
2347.000000	0.001015  
2346.000000	0.000752  
2345.000000	0.000588  
2344.000000	0.000532  
2343.000000	0.000356  
2342.000000	0.000042  
2341.000000	-0.000184 
2340.000000	-0.000137 
2339.000000	0.000102  
2338.000000	0.000343  
2337.000000	0.000475  
2336.000000	0.000505  
2335.000000	0.000484  
2334.000000	0.000492  
2333.000000	0.000512  
2332.000000	0.000451  
2331.000000	0.000260  
2330.000000	0.000046  
2329.000000	0.000017  
2328.000000	0.000145  
2327.000000	0.000270  
2326.000000	0.000263  
2325.000000	0.000174  
2324.000000	0.000136  
2323.000000	0.000151  
2322.000000	0.000155  
2321.000000	0.000052  
2320.000000	-0.000132 
2319.000000	-0.000318 
2318.000000	-0.000407 
2317.000000	-0.000386 
2316.000000	-0.000314 
2315.000000	-0.000275 
2314.000000	-0.000336 
2313.000000	-0.000517 
2312.000000	-0.000780 
2311.000000	-0.000995 
2310.000000	-0.001038 
2309.000000	-0.000912 
2308.000000	-0.000764 
2307.000000	-0.000716 
2306.000000	-0.000752 
2305.000000	-0.000794 
2304.000000	-0.000813 
2303.000000	-0.000828 
2302.000000	-0.000823 
2301.000000	-0.000769 
2300.000000	-0.000698 
2299.000000	-0.000679 
2298.000000	-0.000731 
2297.000000	-0.000797 
2296.000000	-0.000824 
2295.000000	-0.000791 
2294.000000	-0.000710 
2293.000000	-0.000633 
2292.000000	-0.000665 
2291.000000	-0.000853 
2290.000000	-0.001076 
2289.000000	-0.001120 
2288.000000	-0.000906 
2287.000000	-0.000587 
2286.000000	-0.000374 
2285.000000	-0.000349 
2284.000000	-0.000440 
2283.000000	-0.000529 
2282.000000	-0.000525 
2281.000000	-0.000395 
2280.000000	-0.000186 
2279.000000	0.000001  
2278.000000	0.000089  
2277.000000	0.000065  
2276.000000	-0.000043 
2275.000000	-0.000202 
2274.000000	-0.000352 
2273.000000	-0.000422 
2272.000000	-0.000388 
2271.000000	-0.000278 
2270.000000	-0.000111 
2269.000000	0.000112  
2268.000000	0.000336  
2267.000000	0.000441  
2266.000000	0.000339  
2265.000000	0.000054  
2264.000000	-0.000329 
2263.000000	-0.000731 
2262.000000	-0.001057 
2261.000000	-0.001183 
2260.000000	-0.001044 
2259.000000	-0.000720 
2258.000000	-0.000403 
2257.000000	-0.000263 
2256.000000	-0.000338 
2255.000000	-0.000505 
2254.000000	-0.000551 
2253.000000	-0.000333 
2252.000000	0.000086  
2251.000000	0.000474  
2250.000000	0.000612  
2249.000000	0.000479  
2248.000000	0.000256  
2247.000000	0.000172  
2246.000000	0.000312  
2245.000000	0.000528  
2244.000000	0.000562  
2243.000000	0.000291  
2242.000000	-0.000155 
2241.000000	-0.000543 
2240.000000	-0.000758 
2239.000000	-0.000820 
2238.000000	-0.000768 
2237.000000	-0.000639 
2236.000000	-0.000553 
2235.000000	-0.000635 
2234.000000	-0.000824 
2233.000000	-0.000874 
2232.000000	-0.000624 
2231.000000	-0.000201 
2230.000000	0.000123  
2229.000000	0.000184  
2228.000000	0.000013  
2227.000000	-0.000241 
2226.000000	-0.000409 
2225.000000	-0.000378 
2224.000000	-0.000169 
2223.000000	0.000075  
2222.000000	0.000209  
2221.000000	0.000179  
2220.000000	0.000032  
2219.000000	-0.000135 
2218.000000	-0.000210 
2217.000000	-0.000138 
2216.000000	0.000009  
2215.000000	0.000105  
2214.000000	0.000117  
2213.000000	0.000120  
2212.000000	0.000159  
2211.000000	0.000201  
2210.000000	0.000259  
2209.000000	0.000437  
2208.000000	0.000783  
2207.000000	0.001154  
2206.000000	0.001314  
2205.000000	0.001141  
2204.000000	0.000722  
2203.000000	0.000276  
2202.000000	0.000026  
2201.000000	0.000054  
2200.000000	0.000244  
2199.000000	0.000411  
2198.000000	0.000493  
2197.000000	0.000540  
2196.000000	0.000547  
2195.000000	0.000426  
2194.000000	0.000214  
2193.000000	0.000130  
2192.000000	0.000302  
2191.000000	0.000551  
2190.000000	0.000575  
2189.000000	0.000283  
2188.000000	-0.000169 
2187.000000	-0.000614 
2186.000000	-0.000955 
2185.000000	-0.001086 
2184.000000	-0.000935 
2183.000000	-0.000638 
2182.000000	-0.000495 
2181.000000	-0.000642 
2180.000000	-0.000843 
2179.000000	-0.000747 
2178.000000	-0.000296 
2177.000000	0.000187  
2176.000000	0.000342  
2175.000000	0.000144  
2174.000000	-0.000103 
2173.000000	-0.000132 
2172.000000	-0.000009 
2171.000000	-0.000028 
2170.000000	-0.000326 
2169.000000	-0.000694 
2168.000000	-0.000807 
2167.000000	-0.000589 
2166.000000	-0.000257 
2165.000000	-0.000015 
2164.000000	0.000161  
2163.000000	0.000396  
2162.000000	0.000644  
2161.000000	0.000713  
2160.000000	0.000536  
2159.000000	0.000292  
2158.000000	0.000171  
2157.000000	0.000148  
2156.000000	0.000086  
2155.000000	-0.000048 
2154.000000	-0.000164 
2153.000000	-0.000153 
2152.000000	0.000023  
2151.000000	0.000279  
2150.000000	0.000389  
2149.000000	0.000135  
2148.000000	-0.000410 
2147.000000	-0.000846 
2146.000000	-0.000821 
2145.000000	-0.000422 
2144.000000	-0.000045 
2143.000000	0.000090  
2142.000000	0.000085  
2141.000000	0.000073  
2140.000000	0.000015  
2139.000000	-0.000133 
2138.000000	-0.000272 
2137.000000	-0.000302 
2136.000000	-0.000293 
2135.000000	-0.000344 
2134.000000	-0.000399 
2133.000000	-0.000353 
2132.000000	-0.000255 
2131.000000	-0.000245 
2130.000000	-0.000351 
2129.000000	-0.000464 
2128.000000	-0.000492 
2127.000000	-0.000418 
2126.000000	-0.000246 
2125.000000	0.000011  
2124.000000	0.000274  
2123.000000	0.000440  
2122.000000	0.000487  
2121.000000	0.000468  
2120.000000	0.000408  
2119.000000	0.000287  
2118.000000	0.000117  
2117.000000	-0.000043 
2116.000000	-0.000162 
2115.000000	-0.000243 
2114.000000	-0.000268 
2113.000000	-0.000200 
2112.000000	-0.000076 
2111.000000	-0.000015 
2110.000000	-0.000093 
2109.000000	-0.000250 
2108.000000	-0.000361 
2107.000000	-0.000359 
2106.000000	-0.000269 
2105.000000	-0.000187 
2104.000000	-0.000216 
2103.000000	-0.000395 
2102.000000	-0.000651 
2101.000000	-0.000852 
2100.000000	-0.000911 
2099.000000	-0.000827 
2098.000000	-0.000648 
2097.000000	-0.000457 
2096.000000	-0.000327 
2095.000000	-0.000247 
2094.000000	-0.000108 
2093.000000	0.000150  
2092.000000	0.000431  
2091.000000	0.000564  
2090.000000	0.000496  
2089.000000	0.000310  
2088.000000	0.000085  
2087.000000	-0.000144 
2086.000000	-0.000307 
2085.000000	-0.000310 
2084.000000	-0.000181 
2083.000000	-0.000104 
2082.000000	-0.000226 
2081.000000	-0.000487 
2080.000000	-0.000689 
2079.000000	-0.000690 
2078.000000	-0.000488 
2077.000000	-0.000194 
2076.000000	0.000033  
2075.000000	0.000078  
2074.000000	-0.000060 
2073.000000	-0.000292 
2072.000000	-0.000531 
2071.000000	-0.000743 
2070.000000	-0.000908 
2069.000000	-0.001003 
2068.000000	-0.001045 
2067.000000	-0.001079 
2066.000000	-0.001100 
2065.000000	-0.001035 
2064.000000	-0.000846 
2063.000000	-0.000571 
2062.000000	-0.000276 
2061.000000	-0.000011 
2060.000000	0.000159  
2059.000000	0.000180  
2058.000000	0.000060  
2057.000000	-0.000120 
2056.000000	-0.000283 
2055.000000	-0.000404 
2054.000000	-0.000505 
2053.000000	-0.000625 
2052.000000	-0.000770 
2051.000000	-0.000850 
2050.000000	-0.000701 
2049.000000	-0.000297 
2048.000000	0.000098  
2047.000000	0.000168  
2046.000000	-0.000096 
2045.000000	-0.000407 
2044.000000	-0.000541 
2043.000000	-0.000530 
2042.000000	-0.000493 
2041.000000	-0.000458 
2040.000000	-0.000426 
2039.000000	-0.000426 
2038.000000	-0.000433 
2037.000000	-0.000335 
2036.000000	-0.000107 
2035.000000	0.000102  
2034.000000	0.000155  
2033.000000	0.000101  
2032.000000	0.000087  
2031.000000	0.000147  
2030.000000	0.000176  
2029.000000	0.000082  
2028.000000	-0.000111 
2027.000000	-0.000277 
2026.000000	-0.000283 
2025.000000	-0.000127 
2024.000000	0.000042  
2023.000000	0.000093  
2022.000000	0.000063  
2021.000000	0.000083  
2020.000000	0.000161  
2019.000000	0.000166  
2018.000000	-0.000002 
2017.000000	-0.000292 
2016.000000	-0.000559 
2015.000000	-0.000657 
2014.000000	-0.000509 
2013.000000	-0.000214 
2012.000000	-0.000068 
2011.000000	-0.000304 
2010.000000	-0.000813 
2009.000000	-0.001242 
2008.000000	-0.001374 
2007.000000	-0.001249 
2006.000000	-0.000945 
2005.000000	-0.000507 
2004.000000	-0.000108 
2003.000000	-0.000013 
2002.000000	-0.000278 
2001.000000	-0.000618 
2000.000000	-0.000697 
1999.000000	-0.000455 
1998.000000	-0.000091 
1997.000000	0.000164  
1996.000000	0.000196  
1995.000000	0.000025  
1994.000000	-0.000179 
1993.000000	-0.000149 
1992.000000	0.000240  
1991.000000	0.000779  
1990.000000	0.001123  
1989.000000	0.001118  
1988.000000	0.000848  
1987.000000	0.000494  
1986.000000	0.000179  
1985.000000	-0.000077 
1984.000000	-0.000305 
1983.000000	-0.000507 
1982.000000	-0.000639 
1981.000000	-0.000694 
1980.000000	-0.000751 
1979.000000	-0.000882 
1978.000000	-0.001047 
1977.000000	-0.001173 
1976.000000	-0.001296 
1975.000000	-0.001500 
1974.000000	-0.001729 
1973.000000	-0.001825 
1972.000000	-0.001733 
1971.000000	-0.001536 
1970.000000	-0.001290 
1969.000000	-0.000974 
1968.000000	-0.000615 
1967.000000	-0.000334 
1966.000000	-0.000190 
1965.000000	-0.000125 
1964.000000	-0.000091 
1963.000000	-0.000099 
1962.000000	-0.000110 
1961.000000	-0.000035 
1960.000000	0.000123  
1959.000000	0.000233  
1958.000000	0.000198  
1957.000000	0.000060  
1956.000000	-0.000094 
1955.000000	-0.000232 
1954.000000	-0.000339 
1953.000000	-0.000370 
1952.000000	-0.000316 
1951.000000	-0.000261 
1950.000000	-0.000276 
1949.000000	-0.000315 
1948.000000	-0.000262 
1947.000000	-0.000090 
1946.000000	0.000068  
1945.000000	0.000056  
1944.000000	-0.000125 
1943.000000	-0.000270 
1942.000000	-0.000196 
1941.000000	-0.000005 
1940.000000	0.000079  
1939.000000	0.000017  
1938.000000	-0.000028 
1937.000000	0.000065  
1936.000000	0.000204  
1935.000000	0.000222  
1934.000000	0.000126  
1933.000000	0.000066  
1932.000000	0.000097  
1931.000000	0.000138  
1930.000000	0.000141  
1929.000000	0.000139  
1928.000000	0.000133  
1927.000000	0.000060  
1926.000000	-0.000079 
1925.000000	-0.000181 
1924.000000	-0.000165 
1923.000000	-0.000070 
1922.000000	0.000006  
1921.000000	0.000035  
1920.000000	0.000027  
1919.000000	-0.000011 
1918.000000	-0.000046 
1917.000000	-0.000044 
1916.000000	-0.000044 
1915.000000	-0.000116 
1914.000000	-0.000244 
1913.000000	-0.000315 
1912.000000	-0.000237 
1911.000000	-0.000028 
1910.000000	0.000222  
1909.000000	0.000413  
1908.000000	0.000455  
1907.000000	0.000309  
1906.000000	0.000045  
1905.000000	-0.000166 
1904.000000	-0.000203 
1903.000000	-0.000092 
1902.000000	0.000025  
1901.000000	0.000021  
1900.000000	-0.000116 
1899.000000	-0.000286 
1898.000000	-0.000360 
1897.000000	-0.000300 
1896.000000	-0.000207 
1895.000000	-0.000189 
1894.000000	-0.000220 
1893.000000	-0.000198 
1892.000000	-0.000111 
1891.000000	-0.000048 
1890.000000	-0.000069 
1889.000000	-0.000135 
1888.000000	-0.000172 
1887.000000	-0.000150 
1886.000000	-0.000077 
1885.000000	-0.000010 
1884.000000	-0.000048 
1883.000000	-0.000228 
1882.000000	-0.000433 
1881.000000	-0.000497 
1880.000000	-0.000399 
1879.000000	-0.000257 
1878.000000	-0.000149 
1877.000000	-0.000030 
1876.000000	0.000122  
1875.000000	0.000222  
1874.000000	0.000195  
1873.000000	0.000086  
1872.000000	-0.000018 
1871.000000	-0.000115 
1870.000000	-0.000251 
1869.000000	-0.000394 
1868.000000	-0.000454 
1867.000000	-0.000414 
1866.000000	-0.000313 
1865.000000	-0.000193 
1864.000000	-0.000106 
1863.000000	-0.000081 
1862.000000	-0.000077 
1861.000000	-0.000029 
1860.000000	0.000040  
1859.000000	0.000028  
1858.000000	-0.000103 
1857.000000	-0.000264 
1856.000000	-0.000343 
1855.000000	-0.000315 
1854.000000	-0.000205 
1853.000000	-0.000041 
1852.000000	0.000119  
1851.000000	0.000195  
1850.000000	0.000141  
1849.000000	0.000008  
1848.000000	-0.000120 
1847.000000	-0.000224 
1846.000000	-0.000321 
1845.000000	-0.000347 
1844.000000	-0.000226 
1843.000000	-0.000052 
1842.000000	0.000048  
1841.000000	0.000070  
1840.000000	0.000050  
1839.000000	0.000003  
1838.000000	-0.000065 
1837.000000	-0.000131 
1836.000000	-0.000183 
1835.000000	-0.000230 
1834.000000	-0.000283 
1833.000000	-0.000329 
1832.000000	-0.000338 
1831.000000	-0.000277 
1830.000000	-0.000136 
1829.000000	0.000014  
1828.000000	0.000079  
1827.000000	0.000033  
1826.000000	-0.000085 
1825.000000	-0.000192 
1824.000000	-0.000229 
1823.000000	-0.000238 
1822.000000	-0.000264 
1821.000000	-0.000293 
1820.000000	-0.000278 
1819.000000	-0.000193 
1818.000000	-0.000043 
1817.000000	0.000129  
1816.000000	0.000236  
1815.000000	0.000215  
1814.000000	0.000108  
1813.000000	0.000031  
1812.000000	0.000054  
1811.000000	0.000108  
1810.000000	0.000098  
1809.000000	0.000030  
1808.000000	-0.000043 
1807.000000	-0.000100 
1806.000000	-0.000117 
1805.000000	-0.000056 
1804.000000	0.000089  
1803.000000	0.000288  
1802.000000	0.000493  
1801.000000	0.000647  
1800.000000	0.000684  
1799.000000	0.000566  
1798.000000	0.000380  
1797.000000	0.000283  
1796.000000	0.000341  
1795.000000	0.000466  
1794.000000	0.000526  
1793.000000	0.000528  
1792.000000	0.000607  
1791.000000	0.000767  
1790.000000	0.000917  
1789.000000	0.001009  
1788.000000	0.001017  
1787.000000	0.000940  
1786.000000	0.000848  
1785.000000	0.000842  
1784.000000	0.000918  
1783.000000	0.000984  
1782.000000	0.000986  
1781.000000	0.000979  
1780.000000	0.001038  
1779.000000	0.001127  
1778.000000	0.001192  
1777.000000	0.001258  
1776.000000	0.001358  
1775.000000	0.001460  
1774.000000	0.001471  
1773.000000	0.001428  
1772.000000	0.001480  
1771.000000	0.001591  
1770.000000	0.001688  
1769.000000	0.001872  
1768.000000	0.002169  
1767.000000	0.002433  
1766.000000	0.002559  
1765.000000	0.002632  
1764.000000	0.002779  
1763.000000	0.003030  
1762.000000	0.003317  
1761.000000	0.003607  
1760.000000	0.003959  
1759.000000	0.004415  
1758.000000	0.005000  
1757.000000	0.005750  
1756.000000	0.006601  
1755.000000	0.007411  
1754.000000	0.008202  
1753.000000	0.009251  
1752.000000	0.010979  
1751.000000	0.013641  
1750.000000	0.017263  
1749.000000	0.021942  
1748.000000	0.027415  
1747.000000	0.032967  
1746.000000	0.038419  
1745.000000	0.044261  
1744.000000	0.050433  
1743.000000	0.055786  
1742.000000	0.059258  
1741.000000	0.060633  
1740.000000	0.059879  
1739.000000	0.057331  
1738.000000	0.054124  
1737.000000	0.050872  
1736.000000	0.046980  
1735.000000	0.041074  
1734.000000	0.033984  
1733.000000	0.028844  
1732.000000	0.026011  
1731.000000	0.024001  
1730.000000	0.022279  
1729.000000	0.020806  
1728.000000	0.019630  
1727.000000	0.018680  
1726.000000	0.017886  
1725.000000	0.017167  
1724.000000	0.016459  
1723.000000	0.015774  
1722.000000	0.015194  
1721.000000	0.014705  
1720.000000	0.014158  
1719.000000	0.013333  
1718.000000	0.012231  
1717.000000	0.011180  
1716.000000	0.010304  
1715.000000	0.009542  
1714.000000	0.008925  
1713.000000	0.008415  
1712.000000	0.007893  
1711.000000	0.007303  
1710.000000	0.006705  
1709.000000	0.006186  
1708.000000	0.005762  
1707.000000	0.005385  
1706.000000	0.005052  
1705.000000	0.004807  
1704.000000	0.004625  
1703.000000	0.004483  
1702.000000	0.004341  
1701.000000	0.004120  
1700.000000	0.003837  
1699.000000	0.003618  
1698.000000	0.003550  
1697.000000	0.003552  
1696.000000	0.003466  
1695.000000	0.003280  
1694.000000	0.003173  
1693.000000	0.003194  
1692.000000	0.003210  
1691.000000	0.003127  
1690.000000	0.003006  
1689.000000	0.002959  
1688.000000	0.002996  
1687.000000	0.003087  
1686.000000	0.003174  
1685.000000	0.003265  
1684.000000	0.003331  
1683.000000	0.003259  
1682.000000	0.003213  
1681.000000	0.003285  
1680.000000	0.003344  
1679.000000	0.003340  
1678.000000	0.003333  
1677.000000	0.003362  
1676.000000	0.003397  
1675.000000	0.003422  
1674.000000	0.003462  
1673.000000	0.003532  
1672.000000	0.003600  
1671.000000	0.003659  
1670.000000	0.003836  
1669.000000	0.004112  
1668.000000	0.004284  
1667.000000	0.004353  
1666.000000	0.004431  
1665.000000	0.004557  
1664.000000	0.004717  
1663.000000	0.004930  
1662.000000	0.005213  
1661.000000	0.005477  
1660.000000	0.005669  
1659.000000	0.005766  
1658.000000	0.005830  
1657.000000	0.005862  
1656.000000	0.005927  
1655.000000	0.005914  
1654.000000	0.006070  
1653.000000	0.006693  
1652.000000	0.007033  
1651.000000	0.007025  
1650.000000	0.007074  
1649.000000	0.007153  
1648.000000	0.007175  
1647.000000	0.007188  
1646.000000	0.007281  
1645.000000	0.007381  
1644.000000	0.007434  
1643.000000	0.007443  
1642.000000	0.007440  
1641.000000	0.007491  
1640.000000	0.007594  
1639.000000	0.007708  
1638.000000	0.007801  
1637.000000	0.007894  
1636.000000	0.007969  
1635.000000	0.007850  
1634.000000	0.007586  
1633.000000	0.007435  
1632.000000	0.007404  
1631.000000	0.007379  
1630.000000	0.007299  
1629.000000	0.007172  
1628.000000	0.007030  
1627.000000	0.006875  
1626.000000	0.006702  
1625.000000	0.006500  
1624.000000	0.006285  
1623.000000	0.006129  
1622.000000	0.006053  
1621.000000	0.005996  
1620.000000	0.005911  
1619.000000	0.005748  
1618.000000	0.005487  
1617.000000	0.005239  
1616.000000	0.005091  
1615.000000	0.004991  
1614.000000	0.004929  
1613.000000	0.004902  
1612.000000	0.004843  
1611.000000	0.004735  
1610.000000	0.004630  
1609.000000	0.004577  
1608.000000	0.004561  
1607.000000	0.004549  
1606.000000	0.004516  
1605.000000	0.004434  
1604.000000	0.004293  
1603.000000	0.004136  
1602.000000	0.004035  
1601.000000	0.004007  
1600.000000	0.003990  
1599.000000	0.003930  
1598.000000	0.003839  
1597.000000	0.003771  
1596.000000	0.003772  
1595.000000	0.003852  
1594.000000	0.003980  
1593.000000	0.004099  
1592.000000	0.004175  
1591.000000	0.004237  
1590.000000	0.004336  
1589.000000	0.004474  
1588.000000	0.004606  
1587.000000	0.004723  
1586.000000	0.004862  
1585.000000	0.005028  
1584.000000	0.005185  
1583.000000	0.005319  
1582.000000	0.005432  
1581.000000	0.005511  
1580.000000	0.005539  
1579.000000	0.005534  
1578.000000	0.005524  
1577.000000	0.005606  
1576.000000	0.005818  
1575.000000	0.005986  
1574.000000	0.006057  
1573.000000	0.006122  
1572.000000	0.006169  
1571.000000	0.006148  
1570.000000	0.006144  
1569.000000	0.006225  
1568.000000	0.006293  
1567.000000	0.006304  
1566.000000	0.006296  
1565.000000	0.006269  
1564.000000	0.006205  
1563.000000	0.006117  
1562.000000	0.006056  
1561.000000	0.006023  
1560.000000	0.005814  
1559.000000	0.005361  
1558.000000	0.004975  
1557.000000	0.004801  
1556.000000	0.004787  
1555.000000	0.004799  
1554.000000	0.004695  
1553.000000	0.004547  
1552.000000	0.004405  
1551.000000	0.004284  
1550.000000	0.004184  
1549.000000	0.004120  
1548.000000	0.004048  
1547.000000	0.003930  
1546.000000	0.003770  
1545.000000	0.003646  
1544.000000	0.003521  
1543.000000	0.003286  
1542.000000	0.002935  
1541.000000	0.002960  
1540.000000	0.003558  
1539.000000	0.003850  
1538.000000	0.003693  
1537.000000	0.003581  
1536.000000	0.003568  
1535.000000	0.003564  
1534.000000	0.003586  
1533.000000	0.003723  
1532.000000	0.003857  
1531.000000	0.003873  
1530.000000	0.003810  
1529.000000	0.003725  
1528.000000	0.003641  
1527.000000	0.003539  
1526.000000	0.003455  
1525.000000	0.003452  
1524.000000	0.003506  
1523.000000	0.003504  
1522.000000	0.003534  
1521.000000	0.003722  
1520.000000	0.003870  
1519.000000	0.003876  
1518.000000	0.003858  
1517.000000	0.003954  
1516.000000	0.004122  
1515.000000	0.004217  
1514.000000	0.004292  
1513.000000	0.004430  
1512.000000	0.004601  
1511.000000	0.004703  
1510.000000	0.004766  
1509.000000	0.004922  
1508.000000	0.005358  
1507.000000	0.005971  
1506.000000	0.006223  
1505.000000	0.006185  
1504.000000	0.006221  
1503.000000	0.006337  
1502.000000	0.006503  
1501.000000	0.006717  
1500.000000	0.006924  
1499.000000	0.007065  
1498.000000	0.007250  
1497.000000	0.007697  
1496.000000	0.008201  
1495.000000	0.008426  
1494.000000	0.008468  
1493.000000	0.008519  
1492.000000	0.008582  
1491.000000	0.008661  
1490.000000	0.009022  
1489.000000	0.009781  
1488.000000	0.010534  
1487.000000	0.011041  
1486.000000	0.011506  
1485.000000	0.012087  
1484.000000	0.012760  
1483.000000	0.013524  
1482.000000	0.014527  
1481.000000	0.015807  
1480.000000	0.017122  
1479.000000	0.018324  
1478.000000	0.019641  
1477.000000	0.021304  
1476.000000	0.023157  
1475.000000	0.025146  
1474.000000	0.028468  
1473.000000	0.034873  
1472.000000	0.043037  
1471.000000	0.050054  
1470.000000	0.055789  
1469.000000	0.061056  
1468.000000	0.065856  
1467.000000	0.069974  
1466.000000	0.073421  
1465.000000	0.076192  
1464.000000	0.077913  
1463.000000	0.078655  
1462.000000	0.078995  
1461.000000	0.079242  
1460.000000	0.079433  
1459.000000	0.079658  
1458.000000	0.080279  
1457.000000	0.080567  
1456.000000	0.079230  
1455.000000	0.076931  
1454.000000	0.074487  
1453.000000	0.071821  
1452.000000	0.068963  
1451.000000	0.066223  
1450.000000	0.063817  
1449.000000	0.061494  
1448.000000	0.058957  
1447.000000	0.056306  
1446.000000	0.053714  
1445.000000	0.051087  
1444.000000	0.048351  
1443.000000	0.045636  
1442.000000	0.043124  
1441.000000	0.040874  
1440.000000	0.038864  
1439.000000	0.037013  
1438.000000	0.035112  
1437.000000	0.033016  
1436.000000	0.031062  
1435.000000	0.029620  
1434.000000	0.028463  
1433.000000	0.027204  
1432.000000	0.025743  
1431.000000	0.024236  
1430.000000	0.022836  
1429.000000	0.021600  
1428.000000	0.020611  
1427.000000	0.019921  
1426.000000	0.019435  
1425.000000	0.019011  
1424.000000	0.018656  
1423.000000	0.018418  
1422.000000	0.018198  
1421.000000	0.017848  
1420.000000	0.017397  
1419.000000	0.017053  
1418.000000	0.016823  
1417.000000	0.016538  
1416.000000	0.016184  
1415.000000	0.015814  
1414.000000	0.015417  
1413.000000	0.015004  
1412.000000	0.014671  
1411.000000	0.014510  
1410.000000	0.014457  
1409.000000	0.014404  
1408.000000	0.014350  
1407.000000	0.014377  
1406.000000	0.014526  
1405.000000	0.014773  
1404.000000	0.015089  
1403.000000	0.015407  
1402.000000	0.015647  
1401.000000	0.015810  
1400.000000	0.016036  
1399.000000	0.016436  
1398.000000	0.016878  
1397.000000	0.017202  
1396.000000	0.017458  
1395.000000	0.017762  
1394.000000	0.018078  
1393.000000	0.018356  
1392.000000	0.018665  
1391.000000	0.019060  
1390.000000	0.019565  
1389.000000	0.020327  
1388.000000	0.021648  
1387.000000	0.023577  
1386.000000	0.025683  
1385.000000	0.027682  
1384.000000	0.029774  
1383.000000	0.032255  
1382.000000	0.035222  
1381.000000	0.038526  
1380.000000	0.041775  
1379.000000	0.044320  
1378.000000	0.045554  
1377.000000	0.045305  
1376.000000	0.043698  
1375.000000	0.040906  
1374.000000	0.037475  
1373.000000	0.034331  
1372.000000	0.031988  
1371.000000	0.030357  
1370.000000	0.029246  
1369.000000	0.028585  
1368.000000	0.028295  
1367.000000	0.028141  
1366.000000	0.027825  
1365.000000	0.027137  
1364.000000	0.026015  
1363.000000	0.024646  
1362.000000	0.023415  
1361.000000	0.022552  
1360.000000	0.021997  
1359.000000	0.021622  
1358.000000	0.021362  
1357.000000	0.021189  
1356.000000	0.021085  
1355.000000	0.021030  
1354.000000	0.020995  
1353.000000	0.020957  
1352.000000	0.020908  
1351.000000	0.020844  
1350.000000	0.020746  
1349.000000	0.020587  
1348.000000	0.020377  
1347.000000	0.020142  
1346.000000	0.019877  
1345.000000	0.019572  
1344.000000	0.019251  
1343.000000	0.018960  
1342.000000	0.018704  
1341.000000	0.018434  
1340.000000	0.018113  
1339.000000	0.017757  
1338.000000	0.017395  
1337.000000	0.017031  
1336.000000	0.016667  
1335.000000	0.016317  
1334.000000	0.015992  
1333.000000	0.015706  
1332.000000	0.015503  
1331.000000	0.015430  
1330.000000	0.015460  
1329.000000	0.015511  
1328.000000	0.015538  
1327.000000	0.015565  
1326.000000	0.015623  
1325.000000	0.015703  
1324.000000	0.015801  
1323.000000	0.015932  
1322.000000	0.016088  
1321.000000	0.016222  
1320.000000	0.016310  
1319.000000	0.016377  
1318.000000	0.016462  
1317.000000	0.016563  
1316.000000	0.016679  
1315.000000	0.016830  
1314.000000	0.017020  
1313.000000	0.017216  
1312.000000	0.017384  
1311.000000	0.017527  
1310.000000	0.017658  
1309.000000	0.017765  
1308.000000	0.017834  
1307.000000	0.017879  
1306.000000	0.017931  
1305.000000	0.018002  
1304.000000	0.018077  
1303.000000	0.018124  
1302.000000	0.018100  
1301.000000	0.017968  
1300.000000	0.017742  
1299.000000	0.017487  
1298.000000	0.017273  
1297.000000	0.017112  
1296.000000	0.016969  
1295.000000	0.016808  
1294.000000	0.016618  
1293.000000	0.016409  
1292.000000	0.016209  
1291.000000	0.016054  
1290.000000	0.015979  
1289.000000	0.015998  
1288.000000	0.016101  
1287.000000	0.016256  
1286.000000	0.016436  
1285.000000	0.016648  
1284.000000	0.016910  
1283.000000	0.017210  
1282.000000	0.017492  
1281.000000	0.017726  
1280.000000	0.017947  
1279.000000	0.018202  
1278.000000	0.018464  
1277.000000	0.018670  
1276.000000	0.018814  
1275.000000	0.018955  
1274.000000	0.019125  
1273.000000	0.019292  
1272.000000	0.019429  
1271.000000	0.019557  
1270.000000	0.019692  
1269.000000	0.019794  
1268.000000	0.019830  
1267.000000	0.019844  
1266.000000	0.019914  
1265.000000	0.020053  
1264.000000	0.020206  
1263.000000	0.020336  
1262.000000	0.020465  
1261.000000	0.020628  
1260.000000	0.020802  
1259.000000	0.020927  
1258.000000	0.020970  
1257.000000	0.020974  
1256.000000	0.021026  
1255.000000	0.021195  
1254.000000	0.021477  
1253.000000	0.021811  
1252.000000	0.022149  
1251.000000	0.022499  
1250.000000	0.022894  
1249.000000	0.023333  
1248.000000	0.023770  
1247.000000	0.024149  
1246.000000	0.024437  
1245.000000	0.024632  
1244.000000	0.024746  
1243.000000	0.024789  
1242.000000	0.024761  
1241.000000	0.024644  
1240.000000	0.024416  
1239.000000	0.024080  
1238.000000	0.023672  
1237.000000	0.023240  
1236.000000	0.022821  
1235.000000	0.022434  
1234.000000	0.022075  
1233.000000	0.021728  
1232.000000	0.021380  
1231.000000	0.021035  
1230.000000	0.020704  
1229.000000	0.020391  
1228.000000	0.020100  
1227.000000	0.019838  
1226.000000	0.019615  
1225.000000	0.019439  
1224.000000	0.019323  
1223.000000	0.019269  
1222.000000	0.019256  
1221.000000	0.019257  
1220.000000	0.019270  
1219.000000	0.019315  
1218.000000	0.019396  
1217.000000	0.019484  
1216.000000	0.019563  
1215.000000	0.019666  
1214.000000	0.019834  
1213.000000	0.020051  
1212.000000	0.020248  
1211.000000	0.020381  
1210.000000	0.020486  
1209.000000	0.020642  
1208.000000	0.020896  
1207.000000	0.021226  
1206.000000	0.021574  
1205.000000	0.021901  
1204.000000	0.022219  
1203.000000	0.022563  
1202.000000	0.022958  
1201.000000	0.023398  
1200.000000	0.023869  
1199.000000	0.024371  
1198.000000	0.024930  
1197.000000	0.025570  
1196.000000	0.026275  
1195.000000	0.026988  
1194.000000	0.027665  
1193.000000	0.028319  
1192.000000	0.029000  
1191.000000	0.029735  
1190.000000	0.030516  
1189.000000	0.031330  
1188.000000	0.032175  
1187.000000	0.033034  
1186.000000	0.033864  
1185.000000	0.034642  
1184.000000	0.035388  
1183.000000	0.036132  
1182.000000	0.036871  
1181.000000	0.037573  
1180.000000	0.038201  
1179.000000	0.038738  
1178.000000	0.039170  
1177.000000	0.039475  
1176.000000	0.039637  
1175.000000	0.039664  
1174.000000	0.039586  
1173.000000	0.039426  
1172.000000	0.039183  
1171.000000	0.038841  
1170.000000	0.038397  
1169.000000	0.037863  
1168.000000	0.037257  
1167.000000	0.036591  
1166.000000	0.035858  
1165.000000	0.035037  
1164.000000	0.034118  
1163.000000	0.033127  
1162.000000	0.032109  
1161.000000	0.031092  
1160.000000	0.030091  
1159.000000	0.029135  
1158.000000	0.028243  
1157.000000	0.027390  
1156.000000	0.026542  
1155.000000	0.025723  
1154.000000	0.025009  
1153.000000	0.024420  
1152.000000	0.023871  
1151.000000	0.023262  
1150.000000	0.022589  
1149.000000	0.021929  
1148.000000	0.021342  
1147.000000	0.020815  
1146.000000	0.020308  
1145.000000	0.019807  
1144.000000	0.019316  
1143.000000	0.018830  
1142.000000	0.018335  
1141.000000	0.017834  
1140.000000	0.017369  
1139.000000	0.016983  
1138.000000	0.016690  
1137.000000	0.016471  
1136.000000	0.016286  
1135.000000	0.016092  
1134.000000	0.015858  
1133.000000	0.015601  
1132.000000	0.015382  
1131.000000	0.015257  
1130.000000	0.015246  
1129.000000	0.015350  
1128.000000	0.015598  
1127.000000	0.016017  
1126.000000	0.016590  
1125.000000	0.017248  
1124.000000	0.017939  
1123.000000	0.018639  
1122.000000	0.019329  
1121.000000	0.019972  
1120.000000	0.020525  
1119.000000	0.020951  
1118.000000	0.021209  
1117.000000	0.021271  
1116.000000	0.021149  
1115.000000	0.020903  
1114.000000	0.020601  
1113.000000	0.020291  
1112.000000	0.019990  
1111.000000	0.019700  
1110.000000	0.019420  
1109.000000	0.019166  
1108.000000	0.018983  
1107.000000	0.018901  
1106.000000	0.018892  
1105.000000	0.018890  
1104.000000	0.018866  
1103.000000	0.018849  
1102.000000	0.018863  
1101.000000	0.018885  
1100.000000	0.018870  
1099.000000	0.018809  
1098.000000	0.018723  
1097.000000	0.018639  
1096.000000	0.018570  
1095.000000	0.018509  
1094.000000	0.018428  
1093.000000	0.018319  
1092.000000	0.018233  
1091.000000	0.018251  
1090.000000	0.018383  
1089.000000	0.018550  
1088.000000	0.018688  
1087.000000	0.018830  
1086.000000	0.019057  
1085.000000	0.019405  
1084.000000	0.019850  
1083.000000	0.020360  
1082.000000	0.020916  
1081.000000	0.021497  
1080.000000	0.022104  
1079.000000	0.022772  
1078.000000	0.023526  
1077.000000	0.024334  
1076.000000	0.025133  
1075.000000	0.025904  
1074.000000	0.026642  
1073.000000	0.027281  
1072.000000	0.027706  
1071.000000	0.027868  
1070.000000	0.027850  
1069.000000	0.027780  
1068.000000	0.027722  
1067.000000	0.027681  
1066.000000	0.027657  
1065.000000	0.027652  
1064.000000	0.027631  
1063.000000	0.027548  
1062.000000	0.027368  
1061.000000	0.027066  
1060.000000	0.026605  
1059.000000	0.025990  
1058.000000	0.025315  
1057.000000	0.024720  
1056.000000	0.024297  
1055.000000	0.024047  
1054.000000	0.023942  
1053.000000	0.023979  
1052.000000	0.024161  
1051.000000	0.024450  
1050.000000	0.024766  
1049.000000	0.025047  
1048.000000	0.025278  
1047.000000	0.025475  
1046.000000	0.025647  
1045.000000	0.025786  
1044.000000	0.025866  
1043.000000	0.025865  
1042.000000	0.025785  
1041.000000	0.025668  
1040.000000	0.025561  
1039.000000	0.025465  
1038.000000	0.025336  
1037.000000	0.025139  
1036.000000	0.024914  
1035.000000	0.024753  
1034.000000	0.024732  
1033.000000	0.024852  
1032.000000	0.025044  
1031.000000	0.025194  
1030.000000	0.025164  
1029.000000	0.024851  
1028.000000	0.024261  
1027.000000	0.023517  
1026.000000	0.022761  
1025.000000	0.022040  
1024.000000	0.021321  
1023.000000	0.020577  
1022.000000	0.019835  
1021.000000	0.019131  
1020.000000	0.018479  
1019.000000	0.017898  
1018.000000	0.017427  
1017.000000	0.017095  
1016.000000	0.016895  
1015.000000	0.016801  
1014.000000	0.016800  
1013.000000	0.016881  
1012.000000	0.016995  
1011.000000	0.017042  
1010.000000	0.016922  
1009.000000	0.016617  
1008.000000	0.016211  
1007.000000	0.015815  
1006.000000	0.015472  
1005.000000	0.015149  
1004.000000	0.014810  
1003.000000	0.014475  
1002.000000	0.014189  
1001.000000	0.013966  
1000.000000	0.013805  
999.000000	 0.013730  
998.000000	 0.013761  
997.000000	 0.013877  
996.000000	 0.014035  
995.000000	 0.014214  
994.000000	 0.014397  
993.000000	 0.014512  
992.000000	 0.014466  
991.000000	 0.014251  
990.000000	 0.013983  
989.000000	 0.013774  
988.000000	 0.013623  
987.000000	 0.013455  
986.000000	 0.013228  
985.000000	 0.012972  
984.000000	 0.012733  
983.000000	 0.012550  
982.000000	 0.012464  
981.000000	 0.012499  
980.000000	 0.012633  
979.000000	 0.012810  
978.000000	 0.013008  
977.000000	 0.013257  
976.000000	 0.013581  
975.000000	 0.013940  
974.000000	 0.014249  
973.000000	 0.014451  
972.000000	 0.014562  
971.000000	 0.014646  
970.000000	 0.014766  
969.000000	 0.014940  
968.000000	 0.015127  
967.000000	 0.015266  
966.000000	 0.015329  
965.000000	 0.015334  
964.000000	 0.015301  
963.000000	 0.015223  
962.000000	 0.015103  
961.000000	 0.014980  
960.000000	 0.014906  
959.000000	 0.014886  
958.000000	 0.014894  
957.000000	 0.014916  
956.000000	 0.014973  
955.000000	 0.015084  
954.000000	 0.015231  
953.000000	 0.015369  
952.000000	 0.015441  
951.000000	 0.015400  
950.000000	 0.015232  
949.000000	 0.014976  
948.000000	 0.014697  
947.000000	 0.014430  
946.000000	 0.014168  
945.000000	 0.013912  
944.000000	 0.013690  
943.000000	 0.013505  
942.000000	 0.013300  
941.000000	 0.012997  
940.000000	 0.012581  
939.000000	 0.012114  
938.000000	 0.011671  
937.000000	 0.011298  
936.000000	 0.011017  
935.000000	 0.010834  
934.000000	 0.010742  
933.000000	 0.010709  
932.000000	 0.010694  
931.000000	 0.010654  
930.000000	 0.010569  
929.000000	 0.010472  
928.000000	 0.010441  
927.000000	 0.010510  
926.000000	 0.010604  
925.000000	 0.010608  
924.000000	 0.010520  
923.000000	 0.010477  
922.000000	 0.010614  
921.000000	 0.010910  
920.000000	 0.011219  
919.000000	 0.011398  
918.000000	 0.011393  
917.000000	 0.011237  
916.000000	 0.011013  
915.000000	 0.010826  
914.000000	 0.010730  
913.000000	 0.010685  
912.000000	 0.010600  
911.000000	 0.010434  
910.000000	 0.010238  
909.000000	 0.010086  
908.000000	 0.010001  
907.000000	 0.009955  
906.000000	 0.009911  
905.000000	 0.009850  
904.000000	 0.009772  
903.000000	 0.009702  
902.000000	 0.009683  
901.000000	 0.009733  
900.000000	 0.009799  
899.000000	 0.009798  
898.000000	 0.009709  
897.000000	 0.009611  
896.000000	 0.009589  
895.000000	 0.009632  
894.000000	 0.009657  
893.000000	 0.009621  
892.000000	 0.009576  
891.000000	 0.009596  
890.000000	 0.009691  
889.000000	 0.009811  
888.000000	 0.009902  
887.000000	 0.009922  
886.000000	 0.009837  
885.000000	 0.009658  
884.000000	 0.009483  
883.000000	 0.009451  
882.000000	 0.009613  
881.000000	 0.009878  
880.000000	 0.010094  
879.000000	 0.010177  
878.000000	 0.010157  
877.000000	 0.010122  
876.000000	 0.010139  
875.000000	 0.010217  
874.000000	 0.010324  
873.000000	 0.010420  
872.000000	 0.010479  
871.000000	 0.010489  
870.000000	 0.010453  
869.000000	 0.010388  
868.000000	 0.010317  
867.000000	 0.010231  
866.000000	 0.010115  
865.000000	 0.009999  
864.000000	 0.009969  
863.000000	 0.010077  
862.000000	 0.010261  
861.000000	 0.010404  
860.000000	 0.010468  
859.000000	 0.010534  
858.000000	 0.010702  
857.000000	 0.010994  
856.000000	 0.011359  
855.000000	 0.011728  
854.000000	 0.012065  
853.000000	 0.012389  
852.000000	 0.012769  
851.000000	 0.013256  
850.000000	 0.013811  
849.000000	 0.014331  
848.000000	 0.014737  
847.000000	 0.015008  
846.000000	 0.015135  
845.000000	 0.015086  
844.000000	 0.014868  
843.000000	 0.014563  
842.000000	 0.014263  
841.000000	 0.013986  
840.000000	 0.013687  
839.000000	 0.013327  
838.000000	 0.012899  
837.000000	 0.012425  
836.000000	 0.011962  
835.000000	 0.011597  
834.000000	 0.011375  
833.000000	 0.011262  
832.000000	 0.011199  
831.000000	 0.011172  
830.000000	 0.011171  
829.000000	 0.011126  
828.000000	 0.010971  
827.000000	 0.010769  
826.000000	 0.010682  
825.000000	 0.010761  
824.000000	 0.010886  
823.000000	 0.010944  
822.000000	 0.010964  
821.000000	 0.011005  
820.000000	 0.011043  
819.000000	 0.011032  
818.000000	 0.011002  
817.000000	 0.011022  
816.000000	 0.011109  
815.000000	 0.011223  
814.000000	 0.011326  
813.000000	 0.011424  
812.000000	 0.011537  
811.000000	 0.011671  
810.000000	 0.011834  
809.000000	 0.012047  
808.000000	 0.012325  
807.000000	 0.012642  
806.000000	 0.012902  
805.000000	 0.012968  
804.000000	 0.012750  
803.000000	 0.012298  
802.000000	 0.011776  
801.000000	 0.011332  
800.000000	 0.011000  
799.000000	 0.010752  
798.000000	 0.010589  
797.000000	 0.010534  
796.000000	 0.010533  
795.000000	 0.010468  
794.000000	 0.010289  
793.000000	 0.010112  
792.000000	 0.010102  
791.000000	 0.010289  
790.000000	 0.010549  
789.000000	 0.010774  
788.000000	 0.011014  
787.000000	 0.011384  
786.000000	 0.011877  
785.000000	 0.012345  
784.000000	 0.012664  
783.000000	 0.012875  
782.000000	 0.013118  
781.000000	 0.013463  
780.000000	 0.013842  
779.000000	 0.014135  
778.000000	 0.014297  
777.000000	 0.014397  
776.000000	 0.014569  
775.000000	 0.014905  
774.000000	 0.015370  
773.000000	 0.015834  
772.000000	 0.016201  
771.000000	 0.016505  
770.000000	 0.016848  
769.000000	 0.017243  
768.000000	 0.017590  
767.000000	 0.017796  
766.000000	 0.017874  
765.000000	 0.017894  
764.000000	 0.017891  
763.000000	 0.017865  
762.000000	 0.017841  
761.000000	 0.017855  
760.000000	 0.017916  
759.000000	 0.018010  
758.000000	 0.018162  
757.000000	 0.018435  
756.000000	 0.018846  
755.000000	 0.019315  
754.000000	 0.019730  
753.000000	 0.020049  
752.000000	 0.020332  
751.000000	 0.020674  
750.000000	 0.021113  
749.000000	 0.021592  
748.000000	 0.022053  
747.000000	 0.022565  
746.000000	 0.023327  
745.000000	 0.024484  
744.000000	 0.025961  
743.000000	 0.027504  
742.000000	 0.028900  
741.000000	 0.030094  
740.000000	 0.031102  
739.000000	 0.031896  
738.000000	 0.032404  
737.000000	 0.032621  
736.000000	 0.032661  
735.000000	 0.032695  
734.000000	 0.032851  
733.000000	 0.033162  
732.000000	 0.033614  
731.000000	 0.034221  
730.000000	 0.035013  
729.000000	 0.035967  
728.000000	 0.036996  
727.000000	 0.038061  
726.000000	 0.039202  
725.000000	 0.040395  
724.000000	 0.041402  
723.000000	 0.041855  
722.000000	 0.041528  
721.000000	 0.040508  
720.000000	 0.039128  
719.000000	 0.037694  
718.000000	 0.036295  
717.000000	 0.034875  
716.000000	 0.033421  
715.000000	 0.032052  
714.000000	 0.030946  
713.000000	 0.030171  
712.000000	 0.029598  
711.000000	 0.029021  
710.000000	 0.028362  
709.000000	 0.027731  
708.000000	 0.027285  
707.000000	 0.027051  
706.000000	 0.026939  
705.000000	 0.026899  
704.000000	 0.026968  
703.000000	 0.027136  
702.000000	 0.027271  
701.000000	 0.027255  
700.000000	 0.027103  
699.000000	 0.026892  
698.000000	 0.026578  
697.000000	 0.026031  
696.000000	 0.025252  
695.000000	 0.024425  
694.000000	 0.023729  
693.000000	 0.023152  
692.000000	 0.022559  
691.000000	 0.021897  
690.000000	 0.021253  
689.000000	 0.020755  
688.000000	 0.020457  
687.000000	 0.020309  
686.000000	 0.020215  
685.000000	 0.020115  
684.000000	 0.019996  
683.000000	 0.019856  
682.000000	 0.019660  
681.000000	 0.019368  
680.000000	 0.019011  
679.000000	 0.018697  
678.000000	 0.018471  
677.000000	 0.018247  
676.000000	 0.017993  
675.000000	 0.017750  
674.000000	 0.017533  
673.000000	 0.017315  
672.000000	 0.017163  
671.000000	 0.017332  
670.000000	 0.018124  
669.000000	 0.019574  
668.000000	 0.020445  
667.000000	 0.019169  
666.000000	 0.017157  
665.000000	 0.015924  
664.000000	 0.015468  
663.000000	 0.015442  
662.000000	 0.015562  
661.000000	 0.015617  
660.000000	 0.015510  
659.000000	 0.015258  
658.000000	 0.014987  
657.000000	 0.014788  
656.000000	 0.014674  
655.000000	 0.014550  
654.000000	 0.014380  
653.000000	 0.014260  
652.000000	 0.014291  
651.000000	 0.014351  
650.000000	 0.014244  

