PE IR                   SPECTRUM    ASCII       PEDS        1.60        
  -1
NB402~1.ASC
17/05/24
07:42:36.00
17/05/24
07:42:36.00
Admin

650.000000
4









SPECTRUM ONE,CPU32 MAIN 00.02.6000 25-JUNE-2003 12:00:00
MIR TGS
MIR
OPTKBR
68128
0.200000

4.000000
STRONG
RATIO
SPECTRUM
MAGNITUDE
UNIVERSAL ATR
DOUBLE

COMBINED


0


#HDR
-1
-1
#GR
CM-1
A
0.00000011920928955078
0.0
4000.000000
-1.000000
3351
8
0.202776
0.000654
#DATA
4000.000000	0.003820 
3999.000000	0.003875 
3998.000000	0.003915 
3997.000000	0.003870 
3996.000000	0.003721 
3995.000000	0.003469 
3994.000000	0.003235 
3993.000000	0.003131 
3992.000000	0.003192 
3991.000000	0.003361 
3990.000000	0.003545 
3989.000000	0.003682 
3988.000000	0.003765 
3987.000000	0.003813 
3986.000000	0.003829 
3985.000000	0.003805 
3984.000000	0.003744 
3983.000000	0.003670 
3982.000000	0.003604 
3981.000000	0.003542 
3980.000000	0.003453 
3979.000000	0.003323 
3978.000000	0.003170 
3977.000000	0.003045 
3976.000000	0.002998 
3975.000000	0.003049 
3974.000000	0.003177 
3973.000000	0.003328 
3972.000000	0.003445 
3971.000000	0.003503 
3970.000000	0.003520 
3969.000000	0.003533 
3968.000000	0.003561 
3967.000000	0.003596 
3966.000000	0.003623 
3965.000000	0.003639 
3964.000000	0.003642 
3963.000000	0.003618 
3962.000000	0.003548 
3961.000000	0.003442 
3960.000000	0.003343 
3959.000000	0.003294 
3958.000000	0.003301 
3957.000000	0.003331 
3956.000000	0.003337 
3955.000000	0.003290 
3954.000000	0.003195 
3953.000000	0.003085 
3952.000000	0.002996 
3951.000000	0.002952 
3950.000000	0.002940 
3949.000000	0.002934 
3948.000000	0.002927 
3947.000000	0.002942 
3946.000000	0.003012 
3945.000000	0.003142 
3944.000000	0.003302 
3943.000000	0.003442 
3942.000000	0.003530 
3941.000000	0.003579 
3940.000000	0.003612 
3939.000000	0.003624 
3938.000000	0.003598 
3937.000000	0.003529 
3936.000000	0.003428 
3935.000000	0.003299 
3934.000000	0.003138 
3933.000000	0.002967 
3932.000000	0.002867 
3931.000000	0.002923 
3930.000000	0.003117 
3929.000000	0.003321 
3928.000000	0.003405 
3927.000000	0.003329 
3926.000000	0.003169 
3925.000000	0.003039 
3924.000000	0.002990 
3923.000000	0.002985 
3922.000000	0.002971 
3921.000000	0.002942 
3920.000000	0.002942 
3919.000000	0.003012 
3918.000000	0.003133 
3917.000000	0.003253 
3916.000000	0.003360 
3915.000000	0.003492 
3914.000000	0.003678 
3913.000000	0.003882 
3912.000000	0.004023 
3911.000000	0.004023 
3910.000000	0.003860 
3909.000000	0.003568 
3908.000000	0.003228 
3907.000000	0.002953 
3906.000000	0.002852 
3905.000000	0.002940 
3904.000000	0.003063 
3903.000000	0.003031 
3902.000000	0.002828 
3901.000000	0.002624 
3900.000000	0.002590 
3899.000000	0.002737 
3898.000000	0.002941 
3897.000000	0.003079 
3896.000000	0.003097 
3895.000000	0.003017 
3894.000000	0.002910 
3893.000000	0.002856 
3892.000000	0.002861 
3891.000000	0.002852 
3890.000000	0.002789 
3889.000000	0.002703 
3888.000000	0.002647 
3887.000000	0.002660 
3886.000000	0.002726 
3885.000000	0.002766 
3884.000000	0.002724 
3883.000000	0.002633 
3882.000000	0.002589 
3881.000000	0.002658 
3880.000000	0.002785 
3879.000000	0.002867 
3878.000000	0.002863 
3877.000000	0.002789 
3876.000000	0.002706 
3875.000000	0.002681 
3874.000000	0.002692 
3873.000000	0.002648 
3872.000000	0.002539 
3871.000000	0.002470 
3870.000000	0.002514 
3869.000000	0.002600 
3868.000000	0.002655 
3867.000000	0.002698 
3866.000000	0.002769 
3865.000000	0.002880 
3864.000000	0.002978 
3863.000000	0.003000 
3862.000000	0.002944 
3861.000000	0.002859 
3860.000000	0.002772 
3859.000000	0.002664 
3858.000000	0.002494 
3857.000000	0.002234 
3856.000000	0.001903 
3855.000000	0.001678 
3854.000000	0.001840 
3853.000000	0.002281 
3852.000000	0.002608 
3851.000000	0.002760 
3850.000000	0.002836 
3849.000000	0.002884 
3848.000000	0.002898 
3847.000000	0.002849 
3846.000000	0.002738 
3845.000000	0.002619 
3844.000000	0.002579 
3843.000000	0.002666 
3842.000000	0.002860 
3841.000000	0.003087 
3840.000000	0.003270 
3839.000000	0.003366 
3838.000000	0.003354 
3837.000000	0.003212 
3836.000000	0.002963 
3835.000000	0.002701 
3834.000000	0.002548 
3833.000000	0.002581 
3832.000000	0.002769 
3831.000000	0.002994 
3830.000000	0.003144 
3829.000000	0.003188 
3828.000000	0.003162 
3827.000000	0.003105 
3826.000000	0.003008 
3825.000000	0.002824 
3824.000000	0.002543 
3823.000000	0.002243 
3822.000000	0.002091 
3821.000000	0.002155 
3820.000000	0.002322 
3819.000000	0.002560 
3818.000000	0.002926 
3817.000000	0.003364 
3816.000000	0.003681 
3815.000000	0.003717 
3814.000000	0.003524 
3813.000000	0.003255 
3812.000000	0.002991 
3811.000000	0.002744 
3810.000000	0.002513 
3809.000000	0.002327 
3808.000000	0.002248 
3807.000000	0.002298 
3806.000000	0.002436 
3805.000000	0.002638 
3804.000000	0.002921 
3803.000000	0.003240 
3802.000000	0.003434 
3801.000000	0.003336 
3800.000000	0.002999 
3799.000000	0.002676 
3798.000000	0.002559 
3797.000000	0.002651 
3796.000000	0.002807 
3795.000000	0.002904 
3794.000000	0.002948 
3793.000000	0.003011 
3792.000000	0.003128 
3791.000000	0.003256 
3790.000000	0.003313 
3789.000000	0.003256 
3788.000000	0.003144 
3787.000000	0.003106 
3786.000000	0.003214 
3785.000000	0.003380 
3784.000000	0.003434 
3783.000000	0.003309 
3782.000000	0.003100 
3781.000000	0.002960 
3780.000000	0.002964 
3779.000000	0.003041 
3778.000000	0.003082 
3777.000000	0.003075 
3776.000000	0.003058 
3775.000000	0.003032 
3774.000000	0.002969 
3773.000000	0.002860 
3772.000000	0.002743 
3771.000000	0.002671 
3770.000000	0.002642 
3769.000000	0.002602 
3768.000000	0.002531 
3767.000000	0.002474 
3766.000000	0.002470 
3765.000000	0.002506 
3764.000000	0.002543 
3763.000000	0.002570 
3762.000000	0.002601 
3761.000000	0.002649 
3760.000000	0.002698 
3759.000000	0.002704 
3758.000000	0.002654 
3757.000000	0.002594 
3756.000000	0.002568 
3755.000000	0.002574 
3754.000000	0.002563 
3753.000000	0.002493 
3752.000000	0.002416 
3751.000000	0.002455 
3750.000000	0.002579 
3749.000000	0.002659 
3748.000000	0.002665 
3747.000000	0.002618 
3746.000000	0.002504 
3745.000000	0.002280 
3744.000000	0.001969 
3743.000000	0.001683 
3742.000000	0.001495 
3741.000000	0.001395 
3740.000000	0.001372 
3739.000000	0.001436 
3738.000000	0.001595 
3737.000000	0.001798 
3736.000000	0.001898 
3735.000000	0.001790 
3734.000000	0.001604 
3733.000000	0.001551 
3732.000000	0.001657 
3731.000000	0.001799 
3730.000000	0.001852 
3729.000000	0.001776 
3728.000000	0.001603 
3727.000000	0.001410 
3726.000000	0.001274 
3725.000000	0.001239 
3724.000000	0.001328 
3723.000000	0.001542 
3722.000000	0.001854 
3721.000000	0.002195 
3720.000000	0.002485 
3719.000000	0.002649 
3718.000000	0.002639 
3717.000000	0.002450 
3716.000000	0.002133 
3715.000000	0.001772 
3714.000000	0.001462 
3713.000000	0.001303 
3712.000000	0.001386 
3711.000000	0.001663 
3710.000000	0.001948 
3709.000000	0.002129 
3708.000000	0.002223 
3707.000000	0.002281 
3706.000000	0.002341 
3705.000000	0.002445 
3704.000000	0.002627 
3703.000000	0.002869 
3702.000000	0.003074 
3701.000000	0.003137 
3700.000000	0.003060 
3699.000000	0.002927 
3698.000000	0.002814 
3697.000000	0.002740 
3696.000000	0.002684 
3695.000000	0.002626 
3694.000000	0.002588 
3693.000000	0.002629 
3692.000000	0.002788 
3691.000000	0.003005 
3690.000000	0.003133 
3689.000000	0.003096 
3688.000000	0.002978 
3687.000000	0.002907 
3686.000000	0.002910 
3685.000000	0.002919 
3684.000000	0.002848 
3683.000000	0.002665 
3682.000000	0.002415 
3681.000000	0.002193 
3680.000000	0.002066 
3679.000000	0.002047 
3678.000000	0.002141 
3677.000000	0.002359 
3676.000000	0.002602 
3675.000000	0.002610 
3674.000000	0.002342 
3673.000000	0.002054 
3672.000000	0.001985 
3671.000000	0.002276 
3670.000000	0.002815 
3669.000000	0.003223 
3668.000000	0.003342 
3667.000000	0.003307 
3666.000000	0.003244 
3665.000000	0.003205 
3664.000000	0.003213 
3663.000000	0.003272 
3662.000000	0.003353 
3661.000000	0.003399 
3660.000000	0.003355 
3659.000000	0.003202 
3658.000000	0.002997 
3657.000000	0.002866 
3656.000000	0.002901 
3655.000000	0.003052 
3654.000000	0.003184 
3653.000000	0.003175 
3652.000000	0.002973 
3651.000000	0.002669 
3650.000000	0.002559 
3649.000000	0.002830 
3648.000000	0.003200 
3647.000000	0.003381 
3646.000000	0.003403 
3645.000000	0.003374 
3644.000000	0.003351 
3643.000000	0.003361 
3642.000000	0.003433 
3641.000000	0.003566 
3640.000000	0.003703 
3639.000000	0.003756 
3638.000000	0.003656 
3637.000000	0.003410 
3636.000000	0.003105 
3635.000000	0.002864 
3634.000000	0.002757 
3633.000000	0.002762 
3632.000000	0.002825 
3631.000000	0.002924 
3630.000000	0.003050 
3629.000000	0.003101 
3628.000000	0.003005 
3627.000000	0.002905 
3626.000000	0.002945 
3625.000000	0.003117 
3624.000000	0.003335 
3623.000000	0.003499 
3622.000000	0.003549 
3621.000000	0.003499 
3620.000000	0.003421 
3619.000000	0.003350 
3618.000000	0.003245 
3617.000000	0.003070 
3616.000000	0.002847 
3615.000000	0.002657 
3614.000000	0.002586 
3613.000000	0.002623 
3612.000000	0.002661 
3611.000000	0.002635 
3610.000000	0.002590 
3609.000000	0.002659 
3608.000000	0.002915 
3607.000000	0.003284 
3606.000000	0.003644 
3605.000000	0.003940 
3604.000000	0.004168 
3603.000000	0.004333 
3602.000000	0.004438 
3601.000000	0.004483 
3600.000000	0.004475 
3599.000000	0.004423 
3598.000000	0.004336 
3597.000000	0.004226 
3596.000000	0.004108 
3595.000000	0.004007 
3594.000000	0.003957 
3593.000000	0.003983 
3592.000000	0.004084 
3591.000000	0.004229 
3590.000000	0.004390 
3589.000000	0.004560 
3588.000000	0.004718 
3587.000000	0.004841 
3586.000000	0.004945 
3585.000000	0.005053 
3584.000000	0.005132 
3583.000000	0.005132 
3582.000000	0.005059 
3581.000000	0.005001 
3580.000000	0.005064 
3579.000000	0.005273 
3578.000000	0.005534 
3577.000000	0.005713 
3576.000000	0.005739 
3575.000000	0.005648 
3574.000000	0.005526 
3573.000000	0.005414 
3572.000000	0.005271 
3571.000000	0.005018 
3570.000000	0.004622 
3569.000000	0.004185 
3568.000000	0.003949 
3567.000000	0.004093 
3566.000000	0.004489 
3565.000000	0.004880 
3564.000000	0.005132 
3563.000000	0.005261 
3562.000000	0.005368 
3561.000000	0.005554 
3560.000000	0.005846 
3559.000000	0.006170 
3558.000000	0.006409 
3557.000000	0.006487 
3556.000000	0.006415 
3555.000000	0.006284 
3554.000000	0.006218 
3553.000000	0.006277 
3552.000000	0.006393 
3551.000000	0.006440 
3550.000000	0.006361 
3549.000000	0.006222 
3548.000000	0.006149 
3547.000000	0.006210 
3546.000000	0.006353 
3545.000000	0.006500 
3544.000000	0.006647 
3543.000000	0.006823 
3542.000000	0.006998 
3541.000000	0.007100 
3540.000000	0.007096 
3539.000000	0.007033 
3538.000000	0.006998 
3537.000000	0.007043 
3536.000000	0.007130 
3535.000000	0.007184 
3534.000000	0.007159 
3533.000000	0.007065 
3532.000000	0.006945 
3531.000000	0.006833 
3530.000000	0.006747 
3529.000000	0.006704 
3528.000000	0.006733 
3527.000000	0.006851 
3526.000000	0.007030 
3525.000000	0.007206 
3524.000000	0.007329 
3523.000000	0.007412 
3522.000000	0.007500 
3521.000000	0.007614 
3520.000000	0.007727 
3519.000000	0.007790 
3518.000000	0.007791 
3517.000000	0.007785 
3516.000000	0.007849 
3515.000000	0.008009 
3514.000000	0.008215 
3513.000000	0.008387 
3512.000000	0.008496 
3511.000000	0.008569 
3510.000000	0.008632 
3509.000000	0.008661 
3508.000000	0.008625 
3507.000000	0.008545 
3506.000000	0.008489 
3505.000000	0.008519 
3504.000000	0.008634 
3503.000000	0.008762 
3502.000000	0.008822 
3501.000000	0.008798 
3500.000000	0.008739 
3499.000000	0.008716 
3498.000000	0.008778 
3497.000000	0.008917 
3496.000000	0.009057 
3495.000000	0.009111 
3494.000000	0.009071 
3493.000000	0.009037 
3492.000000	0.009137 
3491.000000	0.009396 
3490.000000	0.009694 
3489.000000	0.009867 
3488.000000	0.009872 
3487.000000	0.009812 
3486.000000	0.009806 
3485.000000	0.009854 
3484.000000	0.009867 
3483.000000	0.009775 
3482.000000	0.009625 
3481.000000	0.009539 
3480.000000	0.009604 
3479.000000	0.009804 
3478.000000	0.010065 
3477.000000	0.010325 
3476.000000	0.010568 
3475.000000	0.010787 
3474.000000	0.010951 
3473.000000	0.011031 
3472.000000	0.011046 
3471.000000	0.011050 
3470.000000	0.011054 
3469.000000	0.011004 
3468.000000	0.010865 
3467.000000	0.010697 
3466.000000	0.010614 
3465.000000	0.010661 
3464.000000	0.010766 
3463.000000	0.010817 
3462.000000	0.010777 
3461.000000	0.010714 
3460.000000	0.010720 
3459.000000	0.010827 
3458.000000	0.010990 
3457.000000	0.011143 
3456.000000	0.011260 
3455.000000	0.011354 
3454.000000	0.011433 
3453.000000	0.011476 
3452.000000	0.011465 
3451.000000	0.011433 
3450.000000	0.011452 
3449.000000	0.011576 
3448.000000	0.011792 
3447.000000	0.012020 
3446.000000	0.012172 
3445.000000	0.012213 
3444.000000	0.012175 
3443.000000	0.012122 
3442.000000	0.012102 
3441.000000	0.012110 
3440.000000	0.012110 
3439.000000	0.012085 
3438.000000	0.012060 
3437.000000	0.012067 
3436.000000	0.012109 
3435.000000	0.012164 
3434.000000	0.012220 
3433.000000	0.012285 
3432.000000	0.012376 
3431.000000	0.012492 
3430.000000	0.012621 
3429.000000	0.012743 
3428.000000	0.012832 
3427.000000	0.012861 
3426.000000	0.012820 
3425.000000	0.012740 
3424.000000	0.012678 
3423.000000	0.012665 
3422.000000	0.012675 
3421.000000	0.012657 
3420.000000	0.012607 
3419.000000	0.012574 
3418.000000	0.012593 
3417.000000	0.012658 
3416.000000	0.012750 
3415.000000	0.012879 
3414.000000	0.013061 
3413.000000	0.013266 
3412.000000	0.013424 
3411.000000	0.013486 
3410.000000	0.013456 
3409.000000	0.013393 
3408.000000	0.013376 
3407.000000	0.013462 
3406.000000	0.013631 
3405.000000	0.013774 
3404.000000	0.013766 
3403.000000	0.013580 
3402.000000	0.013335 
3401.000000	0.013199 
3400.000000	0.013255 
3399.000000	0.013437 
3398.000000	0.013598 
3397.000000	0.013633 
3396.000000	0.013565 
3395.000000	0.013519 
3394.000000	0.013621 
3393.000000	0.013891 
3392.000000	0.014225 
3391.000000	0.014473 
3390.000000	0.014543 
3389.000000	0.014448 
3388.000000	0.014289 
3387.000000	0.014186 
3386.000000	0.014200 
3385.000000	0.014298 
3384.000000	0.014393 
3383.000000	0.014410 
3382.000000	0.014340 
3381.000000	0.014228 
3380.000000	0.014139 
3379.000000	0.014114 
3378.000000	0.014146 
3377.000000	0.014184 
3376.000000	0.014184 
3375.000000	0.014132 
3374.000000	0.014045 
3373.000000	0.013957 
3372.000000	0.013920 
3371.000000	0.014003 
3370.000000	0.014226 
3369.000000	0.014507 
3368.000000	0.014702 
3367.000000	0.014729 
3366.000000	0.014631 
3365.000000	0.014524 
3364.000000	0.014476 
3363.000000	0.014480 
3362.000000	0.014500 
3361.000000	0.014532 
3360.000000	0.014599 
3359.000000	0.014719 
3358.000000	0.014869 
3357.000000	0.014992 
3356.000000	0.015039 
3355.000000	0.015006 
3354.000000	0.014933 
3353.000000	0.014862 
3352.000000	0.014806 
3351.000000	0.014754 
3350.000000	0.014696 
3349.000000	0.014634 
3348.000000	0.014587 
3347.000000	0.014580 
3346.000000	0.014641 
3345.000000	0.014787 
3344.000000	0.015010 
3343.000000	0.015266 
3342.000000	0.015478 
3341.000000	0.015563 
3340.000000	0.015488 
3339.000000	0.015297 
3338.000000	0.015087 
3337.000000	0.014949 
3336.000000	0.014920 
3335.000000	0.014982 
3334.000000	0.015088 
3333.000000	0.015188 
3332.000000	0.015252 
3331.000000	0.015274 
3330.000000	0.015261 
3329.000000	0.015215 
3328.000000	0.015141 
3327.000000	0.015050 
3326.000000	0.014972 
3325.000000	0.014940 
3324.000000	0.014987 
3323.000000	0.015132 
3322.000000	0.015348 
3321.000000	0.015568 
3320.000000	0.015729 
3319.000000	0.015814 
3318.000000	0.015837 
3317.000000	0.015810 
3316.000000	0.015736 
3315.000000	0.015649 
3314.000000	0.015607 
3313.000000	0.015629 
3312.000000	0.015676 
3311.000000	0.015704 
3310.000000	0.015724 
3309.000000	0.015790 
3308.000000	0.015931 
3307.000000	0.016111 
3306.000000	0.016251 
3305.000000	0.016274 
3304.000000	0.016164 
3303.000000	0.015983 
3302.000000	0.015828 
3301.000000	0.015752 
3300.000000	0.015733 
3299.000000	0.015726 
3298.000000	0.015711 
3297.000000	0.015700 
3296.000000	0.015710 
3295.000000	0.015757 
3294.000000	0.015849 
3293.000000	0.015959 
3292.000000	0.016033 
3291.000000	0.016025 
3290.000000	0.015936 
3289.000000	0.015815 
3288.000000	0.015730 
3287.000000	0.015744 
3286.000000	0.015868 
3285.000000	0.016025 
3284.000000	0.016082 
3283.000000	0.015982 
3282.000000	0.015813 
3281.000000	0.015715 
3280.000000	0.015724 
3279.000000	0.015749 
3278.000000	0.015694 
3277.000000	0.015562 
3276.000000	0.015440 
3275.000000	0.015401 
3274.000000	0.015459 
3273.000000	0.015589 
3272.000000	0.015747 
3271.000000	0.015880 
3270.000000	0.015946 
3269.000000	0.015922 
3268.000000	0.015814 
3267.000000	0.015657 
3266.000000	0.015493 
3265.000000	0.015356 
3264.000000	0.015254 
3263.000000	0.015177 
3262.000000	0.015124 
3261.000000	0.015106 
3260.000000	0.015139 
3259.000000	0.015232 
3258.000000	0.015382 
3257.000000	0.015561 
3256.000000	0.015728 
3255.000000	0.015851 
3254.000000	0.015920 
3253.000000	0.015936 
3252.000000	0.015900 
3251.000000	0.015820 
3250.000000	0.015731 
3249.000000	0.015671 
3248.000000	0.015640 
3247.000000	0.015602 
3246.000000	0.015535 
3245.000000	0.015461 
3244.000000	0.015415 
3243.000000	0.015406 
3242.000000	0.015419 
3241.000000	0.015438 
3240.000000	0.015454 
3239.000000	0.015453 
3238.000000	0.015439 
3237.000000	0.015435 
3236.000000	0.015466 
3235.000000	0.015522 
3234.000000	0.015568 
3233.000000	0.015569 
3232.000000	0.015519 
3231.000000	0.015430 
3230.000000	0.015331 
3229.000000	0.015269 
3228.000000	0.015297 
3227.000000	0.015430 
3226.000000	0.015622 
3225.000000	0.015792 
3224.000000	0.015877 
3223.000000	0.015851 
3222.000000	0.015713 
3221.000000	0.015489 
3220.000000	0.015251 
3219.000000	0.015099 
3218.000000	0.015091 
3217.000000	0.015181 
3216.000000	0.015250 
3215.000000	0.015227 
3214.000000	0.015147 
3213.000000	0.015093 
3212.000000	0.015092 
3211.000000	0.015094 
3210.000000	0.015043 
3209.000000	0.014942 
3208.000000	0.014840 
3207.000000	0.014783 
3206.000000	0.014782 
3205.000000	0.014814 
3204.000000	0.014837 
3203.000000	0.014814 
3202.000000	0.014728 
3201.000000	0.014608 
3200.000000	0.014520 
3199.000000	0.014520 
3198.000000	0.014603 
3197.000000	0.014694 
3196.000000	0.014706 
3195.000000	0.014619 
3194.000000	0.014497 
3193.000000	0.014421 
3192.000000	0.014413 
3191.000000	0.014421 
3190.000000	0.014375 
3189.000000	0.014246 
3188.000000	0.014069 
3187.000000	0.013922 
3186.000000	0.013877 
3185.000000	0.013946 
3184.000000	0.014064 
3183.000000	0.014147 
3182.000000	0.014152 
3181.000000	0.014092 
3180.000000	0.014001 
3179.000000	0.013896 
3178.000000	0.013791 
3177.000000	0.013704 
3176.000000	0.013642 
3175.000000	0.013589 
3174.000000	0.013532 
3173.000000	0.013474 
3172.000000	0.013432 
3171.000000	0.013409 
3170.000000	0.013391 
3169.000000	0.013370 
3168.000000	0.013363 
3167.000000	0.013393 
3166.000000	0.013465 
3165.000000	0.013545 
3164.000000	0.013575 
3163.000000	0.013514 
3162.000000	0.013374 
3161.000000	0.013211 
3160.000000	0.013082 
3159.000000	0.013002 
3158.000000	0.012944 
3157.000000	0.012886 
3156.000000	0.012838 
3155.000000	0.012836 
3154.000000	0.012890 
3153.000000	0.012961 
3152.000000	0.012985 
3151.000000	0.012935 
3150.000000	0.012856 
3149.000000	0.012816 
3148.000000	0.012838 
3147.000000	0.012873 
3146.000000	0.012846 
3145.000000	0.012717 
3144.000000	0.012506 
3143.000000	0.012282 
3142.000000	0.012118 
3141.000000	0.012059 
3140.000000	0.012089 
3139.000000	0.012155 
3138.000000	0.012222 
3137.000000	0.012311 
3136.000000	0.012468 
3135.000000	0.012685 
3134.000000	0.012876 
3133.000000	0.012930 
3132.000000	0.012805 
3131.000000	0.012565 
3130.000000	0.012329 
3129.000000	0.012178 
3128.000000	0.012114 
3127.000000	0.012095 
3126.000000	0.012094 
3125.000000	0.012117 
3124.000000	0.012167 
3123.000000	0.012220 
3122.000000	0.012238 
3121.000000	0.012213 
3120.000000	0.012184 
3119.000000	0.012208 
3118.000000	0.012304 
3117.000000	0.012430 
3116.000000	0.012500 
3115.000000	0.012462 
3114.000000	0.012343 
3113.000000	0.012230 
3112.000000	0.012186 
3111.000000	0.012202 
3110.000000	0.012219 
3109.000000	0.012201 
3108.000000	0.012158 
3107.000000	0.012129 
3106.000000	0.012131 
3105.000000	0.012140 
3104.000000	0.012121 
3103.000000	0.012071 
3102.000000	0.012032 
3101.000000	0.012032 
3100.000000	0.012041 
3099.000000	0.011995 
3098.000000	0.011878 
3097.000000	0.011741 
3096.000000	0.011658 
3095.000000	0.011657 
3094.000000	0.011707 
3093.000000	0.011753 
3092.000000	0.011760 
3091.000000	0.011728 
3090.000000	0.011691 
3089.000000	0.011684 
3088.000000	0.011706 
3087.000000	0.011719 
3086.000000	0.011691 
3085.000000	0.011630 
3084.000000	0.011567 
3083.000000	0.011513 
3082.000000	0.011464 
3081.000000	0.011419 
3080.000000	0.011394 
3079.000000	0.011398 
3078.000000	0.011429 
3077.000000	0.011489 
3076.000000	0.011575 
3075.000000	0.011666 
3074.000000	0.011719 
3073.000000	0.011704 
3072.000000	0.011623 
3071.000000	0.011502 
3070.000000	0.011382 
3069.000000	0.011310 
3068.000000	0.011326 
3067.000000	0.011427 
3066.000000	0.011537 
3065.000000	0.011561 
3064.000000	0.011469 
3063.000000	0.011326 
3062.000000	0.011228 
3061.000000	0.011215 
3060.000000	0.011253 
3059.000000	0.011284 
3058.000000	0.011287 
3057.000000	0.011282 
3056.000000	0.011295 
3055.000000	0.011319 
3054.000000	0.011328 
3053.000000	0.011305 
3052.000000	0.011269 
3051.000000	0.011255 
3050.000000	0.011285 
3049.000000	0.011337 
3048.000000	0.011366 
3047.000000	0.011349 
3046.000000	0.011318 
3045.000000	0.011316 
3044.000000	0.011347 
3043.000000	0.011368 
3042.000000	0.011338 
3041.000000	0.011269 
3040.000000	0.011210 
3039.000000	0.011210 
3038.000000	0.011285 
3037.000000	0.011420 
3036.000000	0.011583 
3035.000000	0.011744 
3034.000000	0.011906 
3033.000000	0.012089 
3032.000000	0.012292 
3031.000000	0.012463 
3030.000000	0.012549 
3029.000000	0.012575 
3028.000000	0.012634 
3027.000000	0.012801 
3026.000000	0.013058 
3025.000000	0.013318 
3024.000000	0.013519 
3023.000000	0.013690 
3022.000000	0.013931 
3021.000000	0.014326 
3020.000000	0.014884 
3019.000000	0.015537 
3018.000000	0.016195 
3017.000000	0.016806 
3016.000000	0.017358 
3015.000000	0.017851 
3014.000000	0.018282 
3013.000000	0.018658 
3012.000000	0.018992 
3011.000000	0.019272 
3010.000000	0.019458 
3009.000000	0.019531 
3008.000000	0.019514 
3007.000000	0.019417 
3006.000000	0.019202 
3005.000000	0.018834 
3004.000000	0.018375 
3003.000000	0.017965 
3002.000000	0.017691 
3001.000000	0.017527 
3000.000000	0.017410 
2999.000000	0.017331 
2998.000000	0.017324 
2997.000000	0.017380 
2996.000000	0.017435 
2995.000000	0.017456 
2994.000000	0.017492 
2993.000000	0.017623 
2992.000000	0.017877 
2991.000000	0.018225 
2990.000000	0.018639 
2989.000000	0.019137 
2988.000000	0.019742 
2987.000000	0.020439 
2986.000000	0.021183 
2985.000000	0.021958 
2984.000000	0.022803 
2983.000000	0.023763 
2982.000000	0.024840 
2981.000000	0.026024 
2980.000000	0.027355 
2979.000000	0.028900 
2978.000000	0.030679 
2977.000000	0.032642 
2976.000000	0.034759 
2975.000000	0.037096 
2974.000000	0.039764 
2973.000000	0.042807 
2972.000000	0.046179 
2971.000000	0.049821 
2970.000000	0.053722 
2969.000000	0.057904 
2968.000000	0.062378 
2967.000000	0.067110 
2966.000000	0.071997 
2965.000000	0.076891 
2964.000000	0.081657 
2963.000000	0.086222 
2962.000000	0.090555 
2961.000000	0.094598 
2960.000000	0.098264 
2959.000000	0.101470 
2958.000000	0.104158 
2957.000000	0.106260 
2956.000000	0.107689 
2955.000000	0.108370 
2954.000000	0.108279 
2953.000000	0.107484 
2952.000000	0.106153 
2951.000000	0.104536 
2950.000000	0.102879 
2949.000000	0.101354 
2948.000000	0.100058 
2947.000000	0.099081 
2946.000000	0.098548 
2945.000000	0.098602 
2944.000000	0.099372 
2943.000000	0.100966 
2942.000000	0.103460 
2941.000000	0.106837 
2940.000000	0.110966 
2939.000000	0.115669 
2938.000000	0.120809 
2937.000000	0.126318 
2936.000000	0.132149 
2935.000000	0.138253 
2934.000000	0.144602 
2933.000000	0.151186 
2932.000000	0.157975 
2931.000000	0.164868 
2930.000000	0.171709 
2929.000000	0.178320 
2928.000000	0.184531 
2927.000000	0.190161 
2926.000000	0.195015 
2925.000000	0.198879 
2924.000000	0.201534 
2923.000000	0.202776 
2922.000000	0.202507 
2921.000000	0.200838 
2920.000000	0.198046 
2919.000000	0.194409 
2918.000000	0.190086 
2917.000000	0.185171 
2916.000000	0.179800 
2915.000000	0.174169 
2914.000000	0.168494 
2913.000000	0.162962 
2912.000000	0.157704 
2911.000000	0.152766 
2910.000000	0.148105 
2909.000000	0.143660 
2908.000000	0.139398 
2907.000000	0.135318 
2906.000000	0.131425 
2905.000000	0.127716 
2904.000000	0.124180 
2903.000000	0.120808 
2902.000000	0.117593 
2901.000000	0.114516 
2900.000000	0.111524 
2899.000000	0.108524 
2898.000000	0.105448 
2897.000000	0.102317 
2896.000000	0.099232 
2895.000000	0.096285 
2894.000000	0.093488 
2893.000000	0.090792 
2892.000000	0.088141 
2891.000000	0.085520 
2890.000000	0.082958 
2889.000000	0.080518 
2888.000000	0.078267 
2887.000000	0.076267 
2886.000000	0.074575 
2885.000000	0.073239 
2884.000000	0.072277 
2883.000000	0.071692 
2882.000000	0.071532 
2881.000000	0.071919 
2880.000000	0.072966 
2879.000000	0.074669 
2878.000000	0.076905 
2877.000000	0.079513 
2876.000000	0.082330 
2875.000000	0.085142 
2874.000000	0.087667 
2873.000000	0.089659 
2872.000000	0.091029 
2871.000000	0.091866 
2870.000000	0.092364 
2869.000000	0.092746 
2868.000000	0.093218 
2867.000000	0.093939 
2866.000000	0.095045 
2865.000000	0.096689 
2864.000000	0.099038 
2863.000000	0.102180 
2862.000000	0.106050 
2861.000000	0.110458 
2860.000000	0.115160 
2859.000000	0.119904 
2858.000000	0.124438 
2857.000000	0.128510 
2856.000000	0.131853 
2855.000000	0.134126 
2854.000000	0.134942 
2853.000000	0.134037 
2852.000000	0.131407 
2851.000000	0.127268 
2850.000000	0.121914 
2849.000000	0.115663 
2848.000000	0.108875 
2847.000000	0.101918 
2846.000000	0.095077 
2845.000000	0.088513 
2844.000000	0.082285 
2843.000000	0.076398 
2842.000000	0.070827 
2841.000000	0.065576 
2840.000000	0.060706 
2839.000000	0.056307 
2838.000000	0.052436 
2837.000000	0.049093 
2836.000000	0.046230 
2835.000000	0.043774 
2834.000000	0.041641 
2833.000000	0.039755 
2832.000000	0.038080 
2831.000000	0.036597 
2830.000000	0.035270 
2829.000000	0.034041 
2828.000000	0.032863 
2827.000000	0.031713 
2826.000000	0.030588 
2825.000000	0.029493 
2824.000000	0.028454 
2823.000000	0.027508 
2822.000000	0.026674 
2821.000000	0.025941 
2820.000000	0.025280 
2819.000000	0.024659 
2818.000000	0.024046 
2817.000000	0.023414 
2816.000000	0.022769 
2815.000000	0.022150 
2814.000000	0.021580 
2813.000000	0.021049 
2812.000000	0.020543 
2811.000000	0.020072 
2810.000000	0.019658 
2809.000000	0.019300 
2808.000000	0.018972 
2807.000000	0.018668 
2806.000000	0.018411 
2805.000000	0.018227 
2804.000000	0.018111 
2803.000000	0.018023 
2802.000000	0.017909 
2801.000000	0.017726 
2800.000000	0.017478 
2799.000000	0.017217 
2798.000000	0.017009 
2797.000000	0.016884 
2796.000000	0.016818 
2795.000000	0.016768 
2794.000000	0.016716 
2793.000000	0.016659 
2792.000000	0.016595 
2791.000000	0.016518 
2790.000000	0.016426 
2789.000000	0.016326 
2788.000000	0.016230 
2787.000000	0.016143 
2786.000000	0.016077 
2785.000000	0.016053 
2784.000000	0.016071 
2783.000000	0.016090 
2782.000000	0.016039 
2781.000000	0.015882 
2780.000000	0.015648 
2779.000000	0.015409 
2778.000000	0.015208 
2777.000000	0.015026 
2776.000000	0.014821 
2775.000000	0.014578 
2774.000000	0.014323 
2773.000000	0.014089 
2772.000000	0.013889 
2771.000000	0.013709 
2770.000000	0.013528 
2769.000000	0.013343 
2768.000000	0.013175 
2767.000000	0.013042 
2766.000000	0.012923 
2765.000000	0.012779 
2764.000000	0.012592 
2763.000000	0.012389 
2762.000000	0.012193 
2761.000000	0.011988 
2760.000000	0.011746 
2759.000000	0.011487 
2758.000000	0.011277 
2757.000000	0.011162 
2756.000000	0.011126 
2755.000000	0.011104 
2754.000000	0.011031 
2753.000000	0.010881 
2752.000000	0.010682 
2751.000000	0.010507 
2750.000000	0.010416 
2749.000000	0.010404 
2748.000000	0.010402 
2747.000000	0.010347 
2746.000000	0.010240 
2745.000000	0.010137 
2744.000000	0.010085 
2743.000000	0.010086 
2742.000000	0.010112 
2741.000000	0.010143 
2740.000000	0.010177 
2739.000000	0.010222 
2738.000000	0.010264 
2737.000000	0.010278 
2736.000000	0.010260 
2735.000000	0.010240 
2734.000000	0.010259 
2733.000000	0.010318 
2732.000000	0.010379 
2731.000000	0.010395 
2730.000000	0.010347 
2729.000000	0.010249 
2728.000000	0.010155 
2727.000000	0.010123 
2726.000000	0.010175 
2725.000000	0.010258 
2724.000000	0.010300 
2723.000000	0.010278 
2722.000000	0.010216 
2721.000000	0.010128 
2720.000000	0.009989 
2719.000000	0.009793 
2718.000000	0.009593 
2717.000000	0.009458 
2716.000000	0.009403 
2715.000000	0.009387 
2714.000000	0.009359 
2713.000000	0.009282 
2712.000000	0.009143 
2711.000000	0.008973 
2710.000000	0.008843 
2709.000000	0.008804 
2708.000000	0.008840 
2707.000000	0.008881 
2706.000000	0.008879 
2705.000000	0.008832 
2704.000000	0.008762 
2703.000000	0.008690 
2702.000000	0.008641 
2701.000000	0.008623 
2700.000000	0.008603 
2699.000000	0.008530 
2698.000000	0.008407 
2697.000000	0.008303 
2696.000000	0.008290 
2695.000000	0.008360 
2694.000000	0.008450 
2693.000000	0.008502 
2692.000000	0.008496 
2691.000000	0.008440 
2690.000000	0.008356 
2689.000000	0.008292 
2688.000000	0.008295 
2687.000000	0.008366 
2686.000000	0.008441 
2685.000000	0.008453 
2684.000000	0.008406 
2683.000000	0.008370 
2682.000000	0.008392 
2681.000000	0.008439 
2680.000000	0.008438 
2679.000000	0.008369 
2678.000000	0.008280 
2677.000000	0.008222 
2676.000000	0.008202 
2675.000000	0.008201 
2674.000000	0.008213 
2673.000000	0.008240 
2672.000000	0.008266 
2671.000000	0.008268 
2670.000000	0.008240 
2669.000000	0.008195 
2668.000000	0.008145 
2667.000000	0.008092 
2666.000000	0.008036 
2665.000000	0.007981 
2664.000000	0.007924 
2663.000000	0.007856 
2662.000000	0.007774 
2661.000000	0.007677 
2660.000000	0.007568 
2659.000000	0.007466 
2658.000000	0.007414 
2657.000000	0.007444 
2656.000000	0.007535 
2655.000000	0.007619 
2654.000000	0.007631 
2653.000000	0.007562 
2652.000000	0.007454 
2651.000000	0.007352 
2650.000000	0.007269 
2649.000000	0.007188 
2648.000000	0.007092 
2647.000000	0.007005 
2646.000000	0.006962 
2645.000000	0.006963 
2644.000000	0.006955 
2643.000000	0.006898 
2642.000000	0.006815 
2641.000000	0.006762 
2640.000000	0.006754 
2639.000000	0.006753 
2638.000000	0.006722 
2637.000000	0.006662 
2636.000000	0.006600 
2635.000000	0.006558 
2634.000000	0.006551 
2633.000000	0.006572 
2632.000000	0.006580 
2631.000000	0.006525 
2630.000000	0.006410 
2629.000000	0.006295 
2628.000000	0.006246 
2627.000000	0.006275 
2626.000000	0.006346 
2625.000000	0.006412 
2624.000000	0.006434 
2623.000000	0.006403 
2622.000000	0.006359 
2621.000000	0.006358 
2620.000000	0.006416 
2619.000000	0.006480 
2618.000000	0.006488 
2617.000000	0.006426 
2616.000000	0.006329 
2615.000000	0.006248 
2614.000000	0.006216 
2613.000000	0.006233 
2612.000000	0.006248 
2611.000000	0.006192 
2610.000000	0.006059 
2609.000000	0.005934 
2608.000000	0.005896 
2607.000000	0.005934 
2606.000000	0.005968 
2605.000000	0.005947 
2604.000000	0.005878 
2603.000000	0.005790 
2602.000000	0.005707 
2601.000000	0.005651 
2600.000000	0.005634 
2599.000000	0.005619 
2598.000000	0.005554 
2597.000000	0.005456 
2596.000000	0.005406 
2595.000000	0.005443 
2594.000000	0.005503 
2593.000000	0.005493 
2592.000000	0.005401 
2591.000000	0.005307 
2590.000000	0.005283 
2589.000000	0.005336 
2588.000000	0.005411 
2587.000000	0.005436 
2586.000000	0.005382 
2585.000000	0.005294 
2584.000000	0.005259 
2583.000000	0.005302 
2582.000000	0.005332 
2581.000000	0.005232 
2580.000000	0.004996 
2579.000000	0.004742 
2578.000000	0.004580 
2577.000000	0.004514 
2576.000000	0.004493 
2575.000000	0.004500 
2574.000000	0.004554 
2573.000000	0.004657 
2572.000000	0.004770 
2571.000000	0.004859 
2570.000000	0.004904 
2569.000000	0.004901 
2568.000000	0.004860 
2567.000000	0.004804 
2566.000000	0.004756 
2565.000000	0.004713 
2564.000000	0.004667 
2563.000000	0.004625 
2562.000000	0.004600 
2561.000000	0.004588 
2560.000000	0.004585 
2559.000000	0.004608 
2558.000000	0.004673 
2557.000000	0.004736 
2556.000000	0.004727 
2555.000000	0.004632 
2554.000000	0.004523 
2553.000000	0.004465 
2552.000000	0.004443 
2551.000000	0.004388 
2550.000000	0.004275 
2549.000000	0.004143 
2548.000000	0.004045 
2547.000000	0.004008 
2546.000000	0.004036 
2545.000000	0.004117 
2544.000000	0.004213 
2543.000000	0.004275 
2542.000000	0.004281 
2541.000000	0.004259 
2540.000000	0.004262 
2539.000000	0.004321 
2538.000000	0.004415 
2537.000000	0.004482 
2536.000000	0.004452 
2535.000000	0.004295 
2534.000000	0.004049 
2533.000000	0.003804 
2532.000000	0.003648 
2531.000000	0.003616 
2530.000000	0.003693 
2529.000000	0.003843 
2528.000000	0.004030 
2527.000000	0.004210 
2526.000000	0.004326 
2525.000000	0.004330 
2524.000000	0.004225 
2523.000000	0.004074 
2522.000000	0.003968 
2521.000000	0.003964 
2520.000000	0.004045 
2519.000000	0.004138 
2518.000000	0.004163 
2517.000000	0.004096 
2516.000000	0.003977 
2515.000000	0.003859 
2514.000000	0.003767 
2513.000000	0.003707 
2512.000000	0.003695 
2511.000000	0.003744 
2510.000000	0.003832 
2509.000000	0.003929 
2508.000000	0.004032 
2507.000000	0.004142 
2506.000000	0.004205 
2505.000000	0.004138 
2504.000000	0.003937 
2503.000000	0.003726 
2502.000000	0.003647 
2501.000000	0.003732 
2500.000000	0.003898 
2499.000000	0.004037 
2498.000000	0.004068 
2497.000000	0.003962 
2496.000000	0.003782 
2495.000000	0.003655 
2494.000000	0.003653 
2493.000000	0.003711 
2492.000000	0.003722 
2491.000000	0.003684 
2490.000000	0.003677 
2489.000000	0.003723 
2488.000000	0.003752 
2487.000000	0.003722 
2486.000000	0.003680 
2485.000000	0.003675 
2484.000000	0.003687 
2483.000000	0.003680 
2482.000000	0.003670 
2481.000000	0.003683 
2480.000000	0.003709 
2479.000000	0.003720 
2478.000000	0.003711 
2477.000000	0.003686 
2476.000000	0.003621 
2475.000000	0.003501 
2474.000000	0.003354 
2473.000000	0.003241 
2472.000000	0.003194 
2471.000000	0.003209 
2470.000000	0.003263 
2469.000000	0.003329 
2468.000000	0.003381 
2467.000000	0.003393 
2466.000000	0.003338 
2465.000000	0.003194 
2464.000000	0.002991 
2463.000000	0.002831 
2462.000000	0.002801 
2461.000000	0.002869 
2460.000000	0.002917 
2459.000000	0.002899 
2458.000000	0.002890 
2457.000000	0.002963 
2456.000000	0.003076 
2455.000000	0.003147 
2454.000000	0.003182 
2453.000000	0.003261 
2452.000000	0.003417 
2451.000000	0.003590 
2450.000000	0.003692 
2449.000000	0.003677 
2448.000000	0.003550 
2447.000000	0.003357 
2446.000000	0.003157 
2445.000000	0.002984 
2444.000000	0.002844 
2443.000000	0.002760 
2442.000000	0.002778 
2441.000000	0.002900 
2440.000000	0.003040 
2439.000000	0.003110 
2438.000000	0.003118 
2437.000000	0.003150 
2436.000000	0.003251 
2435.000000	0.003363 
2434.000000	0.003384 
2433.000000	0.003259 
2432.000000	0.003047 
2431.000000	0.002891 
2430.000000	0.002907 
2429.000000	0.003063 
2428.000000	0.003195 
2427.000000	0.003174 
2426.000000	0.003031 
2425.000000	0.002891 
2424.000000	0.002833 
2423.000000	0.002847 
2422.000000	0.002900 
2421.000000	0.002964 
2420.000000	0.002992 
2419.000000	0.002958 
2418.000000	0.002910 
2417.000000	0.002937 
2416.000000	0.003067 
2415.000000	0.003234 
2414.000000	0.003360 
2413.000000	0.003416 
2412.000000	0.003397 
2411.000000	0.003286 
2410.000000	0.003102 
2409.000000	0.002929 
2408.000000	0.002859 
2407.000000	0.002891 
2406.000000	0.002939 
2405.000000	0.002937 
2404.000000	0.002919 
2403.000000	0.002962 
2402.000000	0.003083 
2401.000000	0.003214 
2400.000000	0.003278 
2399.000000	0.003263 
2398.000000	0.003210 
2397.000000	0.003167 
2396.000000	0.003162 
2395.000000	0.003201 
2394.000000	0.003258 
2393.000000	0.003286 
2392.000000	0.003272 
2391.000000	0.003254 
2390.000000	0.003258 
2389.000000	0.003232 
2388.000000	0.003108 
2387.000000	0.002918 
2386.000000	0.002783 
2385.000000	0.002771 
2384.000000	0.002841 
2383.000000	0.002934 
2382.000000	0.003064 
2381.000000	0.003261 
2380.000000	0.003483 
2379.000000	0.003640 
2378.000000	0.003698 
2377.000000	0.003660 
2376.000000	0.003481 
2375.000000	0.003113 
2374.000000	0.002663 
2373.000000	0.002374 
2372.000000	0.002381 
2371.000000	0.002579 
2370.000000	0.002786 
2369.000000	0.002927 
2368.000000	0.003012 
2367.000000	0.003070 
2366.000000	0.003155 
2365.000000	0.003262 
2364.000000	0.003198 
2363.000000	0.002793 
2362.000000	0.002246 
2361.000000	0.002026 
2360.000000	0.002315 
2359.000000	0.002832 
2358.000000	0.003240 
2357.000000	0.003432 
2356.000000	0.003404 
2355.000000	0.003196 
2354.000000	0.002981 
2353.000000	0.002906 
2352.000000	0.002910 
2351.000000	0.002883 
2350.000000	0.002873 
2349.000000	0.002975 
2348.000000	0.003126 
2347.000000	0.003115 
2346.000000	0.002842 
2345.000000	0.002533 
2344.000000	0.002440 
2343.000000	0.002512 
2342.000000	0.002622 
2341.000000	0.002809 
2340.000000	0.003124 
2339.000000	0.003472 
2338.000000	0.003701 
2337.000000	0.003728 
2336.000000	0.003555 
2335.000000	0.003273 
2334.000000	0.003042 
2333.000000	0.002962 
2332.000000	0.002962 
2331.000000	0.002931 
2330.000000	0.002894 
2329.000000	0.002947 
2328.000000	0.003055 
2327.000000	0.003095 
2326.000000	0.003034 
2325.000000	0.002976 
2324.000000	0.003014 
2323.000000	0.003137 
2322.000000	0.003261 
2321.000000	0.003301 
2320.000000	0.003194 
2319.000000	0.002940 
2318.000000	0.002655 
2317.000000	0.002527 
2316.000000	0.002649 
2315.000000	0.002916 
2314.000000	0.003094 
2313.000000	0.003020 
2312.000000	0.002747 
2311.000000	0.002476 
2310.000000	0.002348 
2309.000000	0.002321 
2308.000000	0.002265 
2307.000000	0.002143 
2306.000000	0.002040 
2305.000000	0.002029 
2304.000000	0.002068 
2303.000000	0.002068 
2302.000000	0.002018 
2301.000000	0.001976 
2300.000000	0.001982 
2299.000000	0.002007 
2298.000000	0.002000 
2297.000000	0.001949 
2296.000000	0.001895 
2295.000000	0.001921 
2294.000000	0.002083 
2293.000000	0.002335 
2292.000000	0.002534 
2291.000000	0.002563 
2290.000000	0.002443 
2289.000000	0.002303 
2288.000000	0.002243 
2287.000000	0.002264 
2286.000000	0.002303 
2285.000000	0.002306 
2284.000000	0.002277 
2283.000000	0.002290 
2282.000000	0.002439 
2281.000000	0.002731 
2280.000000	0.003044 
2279.000000	0.003222 
2278.000000	0.003211 
2277.000000	0.003057 
2276.000000	0.002810 
2275.000000	0.002503 
2274.000000	0.002221 
2273.000000	0.002087 
2272.000000	0.002140 
2271.000000	0.002273 
2270.000000	0.002341 
2269.000000	0.002312 
2268.000000	0.002283 
2267.000000	0.002379 
2266.000000	0.002625 
2265.000000	0.002907 
2264.000000	0.003041 
2263.000000	0.002911 
2262.000000	0.002578 
2261.000000	0.002237 
2260.000000	0.002065 
2259.000000	0.002082 
2258.000000	0.002160 
2257.000000	0.002146 
2256.000000	0.002003 
2255.000000	0.001851 
2254.000000	0.001843 
2253.000000	0.002013 
2252.000000	0.002249 
2251.000000	0.002411 
2250.000000	0.002439 
2249.000000	0.002360 
2248.000000	0.002252 
2247.000000	0.002215 
2246.000000	0.002291 
2245.000000	0.002401 
2244.000000	0.002420 
2243.000000	0.002343 
2242.000000	0.002290 
2241.000000	0.002323 
2240.000000	0.002357 
2239.000000	0.002299 
2238.000000	0.002176 
2237.000000	0.002062 
2236.000000	0.001966 
2235.000000	0.001872 
2234.000000	0.001830 
2233.000000	0.001916 
2232.000000	0.002152 
2231.000000	0.002504 
2230.000000	0.002878 
2229.000000	0.003082 
2228.000000	0.002925 
2227.000000	0.002465 
2226.000000	0.002026 
2225.000000	0.001877 
2224.000000	0.001980 
2223.000000	0.002161 
2222.000000	0.002376 
2221.000000	0.002627 
2220.000000	0.002772 
2219.000000	0.002643 
2218.000000	0.002305 
2217.000000	0.002011 
2216.000000	0.001908 
2215.000000	0.001972 
2214.000000	0.002172 
2213.000000	0.002478 
2212.000000	0.002760 
2211.000000	0.002892 
2210.000000	0.002968 
2209.000000	0.003206 
2208.000000	0.003621 
2207.000000	0.003958 
2206.000000	0.003994 
2205.000000	0.003752 
2204.000000	0.003384 
2203.000000	0.003015 
2202.000000	0.002738 
2201.000000	0.002597 
2200.000000	0.002518 
2199.000000	0.002390 
2198.000000	0.002238 
2197.000000	0.002190 
2196.000000	0.002260 
2195.000000	0.002349 
2194.000000	0.002455 
2193.000000	0.002688 
2192.000000	0.003018 
2191.000000	0.003200 
2190.000000	0.003056 
2189.000000	0.002675 
2188.000000	0.002255 
2187.000000	0.001866 
2186.000000	0.001511 
2185.000000	0.001271 
2184.000000	0.001243 
2183.000000	0.001390 
2182.000000	0.001563 
2181.000000	0.001654 
2180.000000	0.001696 
2179.000000	0.001847 
2178.000000	0.002270 
2177.000000	0.002936 
2176.000000	0.003543 
2175.000000	0.003765 
2174.000000	0.003573 
2173.000000	0.003209 
2172.000000	0.002826 
2171.000000	0.002353 
2170.000000	0.001770 
2169.000000	0.001336 
2168.000000	0.001380 
2167.000000	0.001892 
2166.000000	0.002475 
2165.000000	0.002705 
2164.000000	0.002519 
2163.000000	0.002225 
2162.000000	0.002133 
2161.000000	0.002242 
2160.000000	0.002284 
2159.000000	0.002103 
2158.000000	0.001811 
2157.000000	0.001546 
2156.000000	0.001298 
2155.000000	0.001085 
2154.000000	0.001091 
2153.000000	0.001436 
2152.000000	0.001955 
2151.000000	0.002329 
2150.000000	0.002382 
2149.000000	0.002159 
2148.000000	0.001840 
2147.000000	0.001666 
2146.000000	0.001825 
2145.000000	0.002251 
2144.000000	0.002628 
2143.000000	0.002743 
2142.000000	0.002725 
2141.000000	0.002799 
2140.000000	0.002924 
2139.000000	0.002870 
2138.000000	0.002569 
2137.000000	0.002179 
2136.000000	0.001856 
2135.000000	0.001657 
2134.000000	0.001646 
2133.000000	0.001854 
2132.000000	0.002140 
2131.000000	0.002270 
2130.000000	0.002181 
2129.000000	0.001995 
2128.000000	0.001809 
2127.000000	0.001618 
2126.000000	0.001467 
2125.000000	0.001487 
2124.000000	0.001703 
2123.000000	0.001948 
2122.000000	0.002070 
2121.000000	0.002116 
2120.000000	0.002219 
2119.000000	0.002379 
2118.000000	0.002463 
2117.000000	0.002370 
2116.000000	0.002152 
2115.000000	0.001962 
2114.000000	0.001926 
2113.000000	0.002022 
2112.000000	0.002100 
2111.000000	0.002058 
2110.000000	0.001978 
2109.000000	0.002016 
2108.000000	0.002172 
2107.000000	0.002283 
2106.000000	0.002261 
2105.000000	0.002213 
2104.000000	0.002272 
2103.000000	0.002413 
2102.000000	0.002504 
2101.000000	0.002456 
2100.000000	0.002273 
2099.000000	0.002008 
2098.000000	0.001737 
2097.000000	0.001553 
2096.000000	0.001535 
2095.000000	0.001720 
2094.000000	0.002093 
2093.000000	0.002547 
2092.000000	0.002888 
2091.000000	0.002966 
2090.000000	0.002813 
2089.000000	0.002583 
2088.000000	0.002372 
2087.000000	0.002171 
2086.000000	0.001989 
2085.000000	0.001902 
2084.000000	0.001936 
2083.000000	0.002015 
2082.000000	0.002051 
2081.000000	0.002015 
2080.000000	0.001907 
2079.000000	0.001757 
2078.000000	0.001674 
2077.000000	0.001779 
2076.000000	0.002029 
2075.000000	0.002223 
2074.000000	0.002214 
2073.000000	0.002047 
2072.000000	0.001852 
2071.000000	0.001706 
2070.000000	0.001633 
2069.000000	0.001639 
2068.000000	0.001695 
2067.000000	0.001771 
2066.000000	0.001908 
2065.000000	0.002172 
2064.000000	0.002493 
2063.000000	0.002708 
2062.000000	0.002771 
2061.000000	0.002792 
2060.000000	0.002833 
2059.000000	0.002804 
2058.000000	0.002652 
2057.000000	0.002514 
2056.000000	0.002558 
2055.000000	0.002745 
2054.000000	0.002855 
2053.000000	0.002710 
2052.000000	0.002325 
2051.000000	0.001879 
2050.000000	0.001597 
2049.000000	0.001563 
2048.000000	0.001623 
2047.000000	0.001593 
2046.000000	0.001542 
2045.000000	0.001700 
2044.000000	0.002090 
2043.000000	0.002435 
2042.000000	0.002494 
2041.000000	0.002304 
2040.000000	0.002015 
2039.000000	0.001700 
2038.000000	0.001454 
2037.000000	0.001458 
2036.000000	0.001736 
2035.000000	0.002045 
2034.000000	0.002182 
2033.000000	0.002244 
2032.000000	0.002396 
2031.000000	0.002565 
2030.000000	0.002588 
2029.000000	0.002498 
2028.000000	0.002426 
2027.000000	0.002323 
2026.000000	0.002016 
2025.000000	0.001532 
2024.000000	0.001146 
2023.000000	0.001109 
2022.000000	0.001440 
2021.000000	0.001971 
2020.000000	0.002489 
2019.000000	0.002838 
2018.000000	0.002958 
2017.000000	0.002871 
2016.000000	0.002640 
2015.000000	0.002363 
2014.000000	0.002168 
2013.000000	0.002124 
2012.000000	0.002155 
2011.000000	0.002146 
2010.000000	0.002112 
2009.000000	0.002126 
2008.000000	0.002122 
2007.000000	0.001985 
2006.000000	0.001844 
2005.000000	0.001969 
2004.000000	0.002320 
2003.000000	0.002476 
2002.000000	0.002151 
2001.000000	0.001584 
2000.000000	0.001266 
1999.000000	0.001417 
1998.000000	0.001874 
1997.000000	0.002364 
1996.000000	0.002686 
1995.000000	0.002715 
1994.000000	0.002446 
1993.000000	0.002079 
1992.000000	0.001909 
1991.000000	0.002012 
1990.000000	0.002208 
1989.000000	0.002336 
1988.000000	0.002353 
1987.000000	0.002237 
1986.000000	0.001931 
1985.000000	0.001454 
1984.000000	0.000999 
1983.000000	0.000830 
1982.000000	0.001043 
1981.000000	0.001436 
1980.000000	0.001673 
1979.000000	0.001597 
1978.000000	0.001349 
1977.000000	0.001128 
1976.000000	0.000949 
1975.000000	0.000757 
1974.000000	0.000654 
1973.000000	0.000774 
1972.000000	0.001030 
1971.000000	0.001192 
1970.000000	0.001214 
1969.000000	0.001265 
1968.000000	0.001426 
1967.000000	0.001564 
1966.000000	0.001594 
1965.000000	0.001648 
1964.000000	0.001855 
1963.000000	0.002161 
1962.000000	0.002439 
1961.000000	0.002609 
1960.000000	0.002611 
1959.000000	0.002378 
1958.000000	0.001975 
1957.000000	0.001624 
1956.000000	0.001497 
1955.000000	0.001555 
1954.000000	0.001683 
1953.000000	0.001858 
1952.000000	0.002066 
1951.000000	0.002170 
1950.000000	0.002019 
1949.000000	0.001674 
1948.000000	0.001404 
1947.000000	0.001422 
1946.000000	0.001670 
1945.000000	0.001892 
1944.000000	0.001892 
1943.000000	0.001730 
1942.000000	0.001651 
1941.000000	0.001767 
1940.000000	0.001960 
1939.000000	0.002085 
1938.000000	0.002119 
1937.000000	0.002104 
1936.000000	0.002035 
1935.000000	0.001896 
1934.000000	0.001764 
1933.000000	0.001757 
1932.000000	0.001868 
1931.000000	0.001973 
1930.000000	0.002013 
1929.000000	0.002046 
1928.000000	0.002098 
1927.000000	0.002101 
1926.000000	0.002014 
1925.000000	0.001899 
1924.000000	0.001834 
1923.000000	0.001816 
1922.000000	0.001795 
1921.000000	0.001760 
1920.000000	0.001723 
1919.000000	0.001690 
1918.000000	0.001701 
1917.000000	0.001785 
1916.000000	0.001879 
1915.000000	0.001891 
1914.000000	0.001841 
1913.000000	0.001858 
1912.000000	0.002021 
1911.000000	0.002255 
1910.000000	0.002437 
1909.000000	0.002538 
1908.000000	0.002581 
1907.000000	0.002535 
1906.000000	0.002360 
1905.000000	0.002115 
1904.000000	0.001929 
1903.000000	0.001872 
1902.000000	0.001902 
1901.000000	0.001941 
1900.000000	0.001961 
1899.000000	0.001989 
1898.000000	0.002049 
1897.000000	0.002100 
1896.000000	0.002067 
1895.000000	0.001958 
1894.000000	0.001911 
1893.000000	0.002036 
1892.000000	0.002264 
1891.000000	0.002405 
1890.000000	0.002350 
1889.000000	0.002195 
1888.000000	0.002099 
1887.000000	0.002091 
1886.000000	0.002115 
1885.000000	0.002118 
1884.000000	0.002079 
1883.000000	0.002012 
1882.000000	0.001974 
1881.000000	0.002018 
1880.000000	0.002116 
1879.000000	0.002199 
1878.000000	0.002264 
1877.000000	0.002358 
1876.000000	0.002469 
1875.000000	0.002523 
1874.000000	0.002502 
1873.000000	0.002470 
1872.000000	0.002453 
1871.000000	0.002377 
1870.000000	0.002195 
1869.000000	0.002022 
1868.000000	0.001985 
1867.000000	0.002013 
1866.000000	0.002022 
1865.000000	0.002043 
1864.000000	0.002108 
1863.000000	0.002167 
1862.000000	0.002157 
1861.000000	0.002084 
1860.000000	0.001995 
1859.000000	0.001907 
1858.000000	0.001836 
1857.000000	0.001831 
1856.000000	0.001921 
1855.000000	0.002068 
1854.000000	0.002220 
1853.000000	0.002357 
1852.000000	0.002459 
1851.000000	0.002477 
1850.000000	0.002407 
1849.000000	0.002335 
1848.000000	0.002334 
1847.000000	0.002346 
1846.000000	0.002257 
1845.000000	0.002074 
1844.000000	0.001956 
1843.000000	0.001982 
1842.000000	0.002078 
1841.000000	0.002175 
1840.000000	0.002246 
1839.000000	0.002265 
1838.000000	0.002229 
1837.000000	0.002183 
1836.000000	0.002185 
1835.000000	0.002231 
1834.000000	0.002270 
1833.000000	0.002259 
1832.000000	0.002175 
1831.000000	0.002016 
1830.000000	0.001860 
1829.000000	0.001816 
1828.000000	0.001883 
1827.000000	0.001984 
1826.000000	0.002078 
1825.000000	0.002181 
1824.000000	0.002287 
1823.000000	0.002347 
1822.000000	0.002335 
1821.000000	0.002272 
1820.000000	0.002196 
1819.000000	0.002152 
1818.000000	0.002197 
1817.000000	0.002348 
1816.000000	0.002531 
1815.000000	0.002642 
1814.000000	0.002657 
1813.000000	0.002628 
1812.000000	0.002595 
1811.000000	0.002536 
1810.000000	0.002439 
1809.000000	0.002346 
1808.000000	0.002281 
1807.000000	0.002240 
1806.000000	0.002261 
1805.000000	0.002418 
1804.000000	0.002695 
1803.000000	0.002959 
1802.000000	0.003099 
1801.000000	0.003142 
1800.000000	0.003135 
1799.000000	0.003050 
1798.000000	0.002902 
1797.000000	0.002804 
1796.000000	0.002818 
1795.000000	0.002865 
1794.000000	0.002850 
1793.000000	0.002844 
1792.000000	0.002982 
1791.000000	0.003170 
1790.000000	0.003251 
1789.000000	0.003254 
1788.000000	0.003257 
1787.000000	0.003267 
1786.000000	0.003273 
1785.000000	0.003334 
1784.000000	0.003491 
1783.000000	0.003662 
1782.000000	0.003737 
1781.000000	0.003735 
1780.000000	0.003753 
1779.000000	0.003811 
1778.000000	0.003871 
1777.000000	0.003947 
1776.000000	0.004058 
1775.000000	0.004127 
1774.000000	0.004053 
1773.000000	0.003941 
1772.000000	0.004054 
1771.000000	0.004349 
1770.000000	0.004624 
1769.000000	0.004869 
1768.000000	0.005137 
1767.000000	0.005382 
1766.000000	0.005559 
1765.000000	0.005731 
1764.000000	0.005967 
1763.000000	0.006254 
1762.000000	0.006556 
1761.000000	0.006932 
1760.000000	0.007438 
1759.000000	0.008020 
1758.000000	0.008640 
1757.000000	0.009397 
1756.000000	0.010345 
1755.000000	0.011371 
1754.000000	0.012479 
1753.000000	0.013958 
1752.000000	0.016237 
1751.000000	0.019511 
1750.000000	0.023772 
1749.000000	0.029212 
1748.000000	0.035689 
1747.000000	0.042463 
1746.000000	0.049345 
1745.000000	0.056862 
1744.000000	0.064837 
1743.000000	0.071789 
1742.000000	0.076460 
1741.000000	0.078665 
1740.000000	0.078334 
1739.000000	0.075725 
1738.000000	0.072117 
1737.000000	0.068316 
1736.000000	0.063452 
1735.000000	0.055568 
1734.000000	0.045457 
1733.000000	0.037810 
1732.000000	0.033238 
1731.000000	0.029659 
1730.000000	0.026272 
1729.000000	0.023268 
1728.000000	0.020841 
1727.000000	0.018925 
1726.000000	0.017382 
1725.000000	0.016069 
1724.000000	0.014873 
1723.000000	0.013846 
1722.000000	0.013125 
1721.000000	0.012692 
1720.000000	0.012324 
1719.000000	0.011729 
1718.000000	0.010821 
1717.000000	0.009961 
1716.000000	0.009385 
1715.000000	0.008993 
1714.000000	0.008739 
1713.000000	0.008564 
1712.000000	0.008361 
1711.000000	0.008096 
1710.000000	0.007840 
1709.000000	0.007671 
1708.000000	0.007562 
1707.000000	0.007425 
1706.000000	0.007266 
1705.000000	0.007189 
1704.000000	0.007219 
1703.000000	0.007280 
1702.000000	0.007290 
1701.000000	0.007209 
1700.000000	0.007043 
1699.000000	0.006904 
1698.000000	0.006888 
1697.000000	0.006943 
1696.000000	0.006977 
1695.000000	0.006954 
1694.000000	0.006972 
1693.000000	0.007055 
1692.000000	0.007137 
1691.000000	0.007167 
1690.000000	0.007151 
1689.000000	0.007143 
1688.000000	0.007187 
1687.000000	0.007269 
1686.000000	0.007355 
1685.000000	0.007430 
1684.000000	0.007489 
1683.000000	0.007490 
1682.000000	0.007558 
1681.000000	0.007735 
1680.000000	0.007928 
1679.000000	0.008059 
1678.000000	0.008139 
1677.000000	0.008204 
1676.000000	0.008280 
1675.000000	0.008404 
1674.000000	0.008574 
1673.000000	0.008728 
1672.000000	0.008783 
1671.000000	0.008788 
1670.000000	0.009008 
1669.000000	0.009567 
1668.000000	0.010176 
1667.000000	0.010648 
1666.000000	0.011015 
1665.000000	0.011348 
1664.000000	0.011715 
1663.000000	0.012200 
1662.000000	0.012808 
1661.000000	0.013425 
1660.000000	0.013964 
1659.000000	0.014432 
1658.000000	0.014888 
1657.000000	0.015362 
1656.000000	0.015759 
1655.000000	0.015916 
1654.000000	0.015953 
1653.000000	0.016472 
1652.000000	0.017046 
1651.000000	0.017394 
1650.000000	0.017599 
1649.000000	0.017741 
1648.000000	0.017870 
1647.000000	0.018176 
1646.000000	0.018710 
1645.000000	0.019218 
1644.000000	0.019604 
1643.000000	0.019890 
1642.000000	0.020144 
1641.000000	0.020416 
1640.000000	0.020662 
1639.000000	0.020779 
1638.000000	0.020737 
1637.000000	0.020669 
1636.000000	0.020770 
1635.000000	0.020889 
1634.000000	0.020885 
1633.000000	0.020880 
1632.000000	0.020886 
1631.000000	0.020825 
1630.000000	0.020633 
1629.000000	0.020318 
1628.000000	0.019962 
1627.000000	0.019641 
1626.000000	0.019344 
1625.000000	0.018975 
1624.000000	0.018444 
1623.000000	0.017826 
1622.000000	0.017320 
1621.000000	0.016969 
1620.000000	0.016646 
1619.000000	0.016197 
1618.000000	0.015528 
1617.000000	0.014763 
1616.000000	0.014205 
1615.000000	0.013924 
1614.000000	0.013788 
1613.000000	0.013662 
1612.000000	0.013449 
1611.000000	0.013116 
1610.000000	0.012728 
1609.000000	0.012388 
1608.000000	0.012145 
1607.000000	0.011998 
1606.000000	0.011927 
1605.000000	0.011886 
1604.000000	0.011815 
1603.000000	0.011706 
1602.000000	0.011619 
1601.000000	0.011581 
1600.000000	0.011557 
1599.000000	0.011527 
1598.000000	0.011523 
1597.000000	0.011589 
1596.000000	0.011730 
1595.000000	0.011936 
1594.000000	0.012192 
1593.000000	0.012452 
1592.000000	0.012680 
1591.000000	0.012901 
1590.000000	0.013181 
1589.000000	0.013532 
1588.000000	0.013900 
1587.000000	0.014261 
1586.000000	0.014646 
1585.000000	0.015069 
1584.000000	0.015487 
1583.000000	0.015867 
1582.000000	0.016235 
1581.000000	0.016618 
1580.000000	0.016978 
1579.000000	0.017247 
1578.000000	0.017426 
1577.000000	0.017660 
1576.000000	0.018097 
1575.000000	0.018553 
1574.000000	0.018870 
1573.000000	0.019083 
1572.000000	0.019213 
1571.000000	0.019284 
1570.000000	0.019405 
1569.000000	0.019618 
1568.000000	0.019746 
1567.000000	0.019685 
1566.000000	0.019495 
1565.000000	0.019303 
1564.000000	0.019187 
1563.000000	0.019130 
1562.000000	0.019092 
1561.000000	0.018972 
1560.000000	0.018390 
1559.000000	0.016927 
1558.000000	0.015877 
1557.000000	0.015591 
1556.000000	0.015506 
1555.000000	0.015306 
1554.000000	0.014978 
1553.000000	0.014676 
1552.000000	0.014433 
1551.000000	0.014152 
1550.000000	0.013811 
1549.000000	0.013489 
1548.000000	0.013219 
1547.000000	0.012939 
1546.000000	0.012589 
1545.000000	0.012166 
1544.000000	0.011692 
1543.000000	0.011116 
1542.000000	0.010413 
1541.000000	0.009907 
1540.000000	0.010057 
1539.000000	0.010304 
1538.000000	0.010328 
1537.000000	0.010318 
1536.000000	0.010264 
1535.000000	0.010070 
1534.000000	0.009814 
1533.000000	0.009773 
1532.000000	0.009893 
1531.000000	0.009932 
1530.000000	0.009854 
1529.000000	0.009731 
1528.000000	0.009589 
1527.000000	0.009385 
1526.000000	0.009164 
1525.000000	0.009073 
1524.000000	0.009114 
1523.000000	0.009141 
1522.000000	0.009135 
1521.000000	0.009259 
1520.000000	0.009405 
1519.000000	0.009422 
1518.000000	0.009373 
1517.000000	0.009406 
1516.000000	0.009517 
1515.000000	0.009573 
1514.000000	0.009612 
1513.000000	0.009741 
1512.000000	0.009961 
1511.000000	0.010179 
1510.000000	0.010345 
1509.000000	0.010473 
1508.000000	0.010542 
1507.000000	0.010624 
1506.000000	0.010655 
1505.000000	0.010697 
1504.000000	0.010922 
1503.000000	0.011219 
1502.000000	0.011528 
1501.000000	0.011824 
1500.000000	0.012023 
1499.000000	0.012041 
1498.000000	0.012015 
1497.000000	0.012260 
1496.000000	0.012738 
1495.000000	0.013119 
1494.000000	0.013377 
1493.000000	0.013633 
1492.000000	0.013864 
1491.000000	0.014015 
1490.000000	0.014299 
1489.000000	0.014919 
1488.000000	0.015538 
1487.000000	0.015943 
1486.000000	0.016342 
1485.000000	0.016912 
1484.000000	0.017619 
1483.000000	0.018449 
1482.000000	0.019546 
1481.000000	0.020936 
1480.000000	0.022353 
1479.000000	0.023667 
1478.000000	0.025141 
1477.000000	0.027054 
1476.000000	0.029238 
1475.000000	0.031566 
1474.000000	0.035136 
1473.000000	0.041684 
1472.000000	0.049967 
1471.000000	0.057088 
1470.000000	0.062957 
1469.000000	0.068340 
1468.000000	0.073244 
1467.000000	0.077400 
1466.000000	0.080820 
1465.000000	0.083528 
1464.000000	0.085219 
1463.000000	0.085965 
1462.000000	0.086302 
1461.000000	0.086538 
1460.000000	0.086675 
1459.000000	0.086749 
1458.000000	0.086967 
1457.000000	0.086820 
1456.000000	0.085333 
1455.000000	0.083066 
1454.000000	0.080590 
1453.000000	0.077877 
1452.000000	0.074977 
1451.000000	0.072229 
1450.000000	0.069803 
1449.000000	0.067428 
1448.000000	0.064852 
1447.000000	0.062249 
1446.000000	0.059788 
1445.000000	0.057337 
1444.000000	0.054762 
1443.000000	0.052158 
1442.000000	0.049696 
1441.000000	0.047465 
1440.000000	0.045494 
1439.000000	0.043737 
1438.000000	0.041949 
1437.000000	0.039845 
1436.000000	0.037712 
1435.000000	0.036045 
1434.000000	0.034693 
1433.000000	0.033269 
1432.000000	0.031643 
1431.000000	0.029963 
1430.000000	0.028423 
1429.000000	0.027136 
1428.000000	0.026199 
1427.000000	0.025632 
1426.000000	0.025282 
1425.000000	0.024979 
1424.000000	0.024718 
1423.000000	0.024585 
1422.000000	0.024517 
1421.000000	0.024378 
1420.000000	0.024131 
1419.000000	0.023856 
1418.000000	0.023537 
1417.000000	0.023085 
1416.000000	0.022589 
1415.000000	0.022174 
1414.000000	0.021847 
1413.000000	0.021564 
1412.000000	0.021358 
1411.000000	0.021312 
1410.000000	0.021405 
1409.000000	0.021549 
1408.000000	0.021754 
1407.000000	0.022094 
1406.000000	0.022554 
1405.000000	0.023030 
1404.000000	0.023452 
1403.000000	0.023819 
1402.000000	0.024138 
1401.000000	0.024428 
1400.000000	0.024768 
1399.000000	0.025221 
1398.000000	0.025687 
1397.000000	0.026029 
1396.000000	0.026260 
1395.000000	0.026462 
1394.000000	0.026627 
1393.000000	0.026741 
1392.000000	0.026890 
1391.000000	0.027160 
1390.000000	0.027593 
1389.000000	0.028268 
1388.000000	0.029346 
1387.000000	0.030838 
1386.000000	0.032459 
1385.000000	0.034066 
1384.000000	0.035858 
1383.000000	0.038079 
1382.000000	0.040785 
1381.000000	0.043827 
1380.000000	0.046850 
1379.000000	0.049269 
1378.000000	0.050515 
1377.000000	0.050384 
1376.000000	0.048918 
1375.000000	0.046221 
1374.000000	0.042851 
1373.000000	0.039791 
1372.000000	0.037551 
1371.000000	0.036023 
1370.000000	0.035003 
1369.000000	0.034403 
1368.000000	0.034131 
1367.000000	0.033977 
1366.000000	0.033704 
1365.000000	0.033147 
1364.000000	0.032225 
1363.000000	0.031027 
1362.000000	0.029851 
1361.000000	0.028926 
1360.000000	0.028278 
1359.000000	0.027857 
1358.000000	0.027606 
1357.000000	0.027451 
1356.000000	0.027337 
1355.000000	0.027255 
1354.000000	0.027213 
1353.000000	0.027193 
1352.000000	0.027162 
1351.000000	0.027089 
1350.000000	0.026949 
1349.000000	0.026727 
1348.000000	0.026443 
1347.000000	0.026130 
1346.000000	0.025792 
1345.000000	0.025417 
1344.000000	0.025033 
1343.000000	0.024692 
1342.000000	0.024395 
1341.000000	0.024046 
1340.000000	0.023552 
1339.000000	0.022943 
1338.000000	0.022308 
1337.000000	0.021693 
1336.000000	0.021125 
1335.000000	0.020646 
1334.000000	0.020270 
1333.000000	0.019981 
1332.000000	0.019766 
1331.000000	0.019637 
1330.000000	0.019592 
1329.000000	0.019601 
1328.000000	0.019643 
1327.000000	0.019733 
1326.000000	0.019880 
1325.000000	0.020060 
1324.000000	0.020250 
1323.000000	0.020458 
1322.000000	0.020685 
1321.000000	0.020899 
1320.000000	0.021077 
1319.000000	0.021236 
1318.000000	0.021406 
1317.000000	0.021594 
1316.000000	0.021803 
1315.000000	0.022050 
1314.000000	0.022329 
1313.000000	0.022590 
1312.000000	0.022790 
1311.000000	0.022938 
1310.000000	0.023061 
1309.000000	0.023161 
1308.000000	0.023229 
1307.000000	0.023287 
1306.000000	0.023369 
1305.000000	0.023475 
1304.000000	0.023578 
1303.000000	0.023646 
1302.000000	0.023647 
1301.000000	0.023537 
1300.000000	0.023284 
1299.000000	0.022912 
1298.000000	0.022500 
1297.000000	0.022116 
1296.000000	0.021777 
1295.000000	0.021461 
1294.000000	0.021151 
1293.000000	0.020853 
1292.000000	0.020598 
1291.000000	0.020423 
1290.000000	0.020352 
1289.000000	0.020394 
1288.000000	0.020541 
1287.000000	0.020762 
1286.000000	0.021025 
1285.000000	0.021325 
1284.000000	0.021673 
1283.000000	0.022046 
1282.000000	0.022380 
1281.000000	0.022647 
1280.000000	0.022893 
1279.000000	0.023188 
1278.000000	0.023534 
1277.000000	0.023878 
1276.000000	0.024193 
1275.000000	0.024504 
1274.000000	0.024834 
1273.000000	0.025175 
1272.000000	0.025514 
1271.000000	0.025856 
1270.000000	0.026182 
1269.000000	0.026450 
1268.000000	0.026654 
1267.000000	0.026851 
1266.000000	0.027098 
1265.000000	0.027371 
1264.000000	0.027608 
1263.000000	0.027791 
1262.000000	0.027964 
1261.000000	0.028158 
1260.000000	0.028336 
1259.000000	0.028417 
1258.000000	0.028361 
1257.000000	0.028204 
1256.000000	0.028039 
1255.000000	0.027970 
1254.000000	0.028052 
1253.000000	0.028255 
1252.000000	0.028519 
1251.000000	0.028823 
1250.000000	0.029206 
1249.000000	0.029707 
1248.000000	0.030303 
1247.000000	0.030910 
1246.000000	0.031445 
1245.000000	0.031876 
1244.000000	0.032209 
1243.000000	0.032442 
1242.000000	0.032560 
1241.000000	0.032553 
1240.000000	0.032424 
1239.000000	0.032178 
1238.000000	0.031810 
1237.000000	0.031314 
1236.000000	0.030716 
1235.000000	0.030079 
1234.000000	0.029462 
1233.000000	0.028887 
1232.000000	0.028343 
1231.000000	0.027811 
1230.000000	0.027278 
1229.000000	0.026745 
1228.000000	0.026222 
1227.000000	0.025732 
1226.000000	0.025294 
1225.000000	0.024919 
1224.000000	0.024618 
1223.000000	0.024395 
1222.000000	0.024229 
1221.000000	0.024096 
1220.000000	0.024002 
1219.000000	0.023966 
1218.000000	0.023980 
1217.000000	0.024015 
1216.000000	0.024065 
1215.000000	0.024157 
1214.000000	0.024301 
1213.000000	0.024464 
1212.000000	0.024611 
1211.000000	0.024750 
1210.000000	0.024912 
1209.000000	0.025113 
1208.000000	0.025346 
1207.000000	0.025605 
1206.000000	0.025883 
1205.000000	0.026174 
1204.000000	0.026494 
1203.000000	0.026886 
1202.000000	0.027373 
1201.000000	0.027938 
1200.000000	0.028548 
1199.000000	0.029195 
1198.000000	0.029900 
1197.000000	0.030677 
1196.000000	0.031521 
1195.000000	0.032411 
1194.000000	0.033334 
1193.000000	0.034296 
1192.000000	0.035318 
1191.000000	0.036409 
1190.000000	0.037553 
1189.000000	0.038711 
1188.000000	0.039858 
1187.000000	0.040994 
1186.000000	0.042141 
1185.000000	0.043311 
1184.000000	0.044489 
1183.000000	0.045644 
1182.000000	0.046758 
1181.000000	0.047828 
1180.000000	0.048848 
1179.000000	0.049784 
1178.000000	0.050578 
1177.000000	0.051170 
1176.000000	0.051522 
1175.000000	0.051637 
1174.000000	0.051558 
1173.000000	0.051339 
1172.000000	0.051009 
1171.000000	0.050584 
1170.000000	0.050074 
1169.000000	0.049482 
1168.000000	0.048790 
1167.000000	0.047977 
1166.000000	0.047040 
1165.000000	0.045988 
1164.000000	0.044836 
1163.000000	0.043614 
1162.000000	0.042355 
1161.000000	0.041078 
1160.000000	0.039802 
1159.000000	0.038567 
1158.000000	0.037405 
1157.000000	0.036295 
1156.000000	0.035199 
1155.000000	0.034133 
1154.000000	0.033152 
1153.000000	0.032262 
1152.000000	0.031390 
1151.000000	0.030478 
1150.000000	0.029549 
1149.000000	0.028678 
1148.000000	0.027911 
1147.000000	0.027238 
1146.000000	0.026607 
1145.000000	0.025957 
1144.000000	0.025261 
1143.000000	0.024555 
1142.000000	0.023913 
1141.000000	0.023371 
1140.000000	0.022907 
1139.000000	0.022490 
1138.000000	0.022107 
1137.000000	0.021749 
1136.000000	0.021396 
1135.000000	0.021047 
1134.000000	0.020749 
1133.000000	0.020555 
1132.000000	0.020475 
1131.000000	0.020487 
1130.000000	0.020594 
1129.000000	0.020842 
1128.000000	0.021271 
1127.000000	0.021858 
1126.000000	0.022534 
1125.000000	0.023249 
1124.000000	0.023992 
1123.000000	0.024744 
1122.000000	0.025447 
1121.000000	0.026031 
1120.000000	0.026457 
1119.000000	0.026709 
1118.000000	0.026779 
1117.000000	0.026666 
1116.000000	0.026390 
1115.000000	0.025993 
1114.000000	0.025520 
1113.000000	0.025015 
1112.000000	0.024526 
1111.000000	0.024084 
1110.000000	0.023702 
1109.000000	0.023392 
1108.000000	0.023194 
1107.000000	0.023127 
1106.000000	0.023134 
1105.000000	0.023125 
1104.000000	0.023082 
1103.000000	0.023081 
1102.000000	0.023180 
1101.000000	0.023329 
1100.000000	0.023420 
1099.000000	0.023392 
1098.000000	0.023280 
1097.000000	0.023157 
1096.000000	0.023069 
1095.000000	0.022995 
1094.000000	0.022875 
1093.000000	0.022685 
1092.000000	0.022490 
1091.000000	0.022382 
1090.000000	0.022362 
1089.000000	0.022321 
1088.000000	0.022181 
1087.000000	0.021992 
1086.000000	0.021866 
1085.000000	0.021843 
1084.000000	0.021885 
1083.000000	0.021942 
1082.000000	0.021985 
1081.000000	0.021985 
1080.000000	0.021922 
1079.000000	0.021831 
1078.000000	0.021785 
1077.000000	0.021841 
1076.000000	0.022011 
1075.000000	0.022292 
1074.000000	0.022681 
1073.000000	0.023167 
1072.000000	0.023730 
1071.000000	0.024351 
1070.000000	0.024998 
1069.000000	0.025620 
1068.000000	0.026183 
1067.000000	0.026705 
1066.000000	0.027216 
1065.000000	0.027690 
1064.000000	0.028042 
1063.000000	0.028208 
1062.000000	0.028188 
1061.000000	0.028016 
1060.000000	0.027735 
1059.000000	0.027411 
1058.000000	0.027140 
1057.000000	0.026984 
1056.000000	0.026928 
1055.000000	0.026910 
1054.000000	0.026883 
1053.000000	0.026838 
1052.000000	0.026787 
1051.000000	0.026745 
1050.000000	0.026728 
1049.000000	0.026739 
1048.000000	0.026778 
1047.000000	0.026867 
1046.000000	0.027041 
1045.000000	0.027303 
1044.000000	0.027586 
1043.000000	0.027793 
1042.000000	0.027875 
1041.000000	0.027866 
1040.000000	0.027838 
1039.000000	0.027807 
1038.000000	0.027703 
1037.000000	0.027439 
1036.000000	0.027019 
1035.000000	0.026551 
1034.000000	0.026140 
1033.000000	0.025782 
1032.000000	0.025388 
1031.000000	0.024901 
1030.000000	0.024356 
1029.000000	0.023840 
1028.000000	0.023427 
1027.000000	0.023140 
1026.000000	0.022941 
1025.000000	0.022745 
1024.000000	0.022475 
1023.000000	0.022120 
1022.000000	0.021724 
1021.000000	0.021317 
1020.000000	0.020885 
1019.000000	0.020424 
1018.000000	0.019963 
1017.000000	0.019542 
1016.000000	0.019163 
1015.000000	0.018804 
1014.000000	0.018468 
1013.000000	0.018191 
1012.000000	0.017994 
1011.000000	0.017840 
1010.000000	0.017658 
1009.000000	0.017414 
1008.000000	0.017159 
1007.000000	0.016978 
1006.000000	0.016894 
1005.000000	0.016849 
1004.000000	0.016794 
1003.000000	0.016744 
1002.000000	0.016725 
1001.000000	0.016712 
1000.000000	0.016663 
999.000000	 0.016593 
998.000000	 0.016552 
997.000000	 0.016544 
996.000000	 0.016507 
995.000000	 0.016395 
994.000000	 0.016220 
993.000000	 0.016017 
992.000000	 0.015807 
991.000000	 0.015623 
990.000000	 0.015521 
989.000000	 0.015522 
988.000000	 0.015575 
987.000000	 0.015607 
986.000000	 0.015606 
985.000000	 0.015612 
984.000000	 0.015649 
983.000000	 0.015707 
982.000000	 0.015783 
981.000000	 0.015916 
980.000000	 0.016138 
979.000000	 0.016434 
978.000000	 0.016750 
977.000000	 0.017049 
976.000000	 0.017338 
975.000000	 0.017637 
974.000000	 0.017936 
973.000000	 0.018189 
972.000000	 0.018347 
971.000000	 0.018395 
970.000000	 0.018360 
969.000000	 0.018278 
968.000000	 0.018166 
967.000000	 0.018021 
966.000000	 0.017842 
965.000000	 0.017628 
964.000000	 0.017378 
963.000000	 0.017095 
962.000000	 0.016809 
961.000000	 0.016555 
960.000000	 0.016343 
959.000000	 0.016147 
958.000000	 0.015935 
957.000000	 0.015707 
956.000000	 0.015495 
955.000000	 0.015332 
954.000000	 0.015242 
953.000000	 0.015234 
952.000000	 0.015293 
951.000000	 0.015366 
950.000000	 0.015401 
949.000000	 0.015404 
948.000000	 0.015442 
947.000000	 0.015550 
946.000000	 0.015670 
945.000000	 0.015700 
944.000000	 0.015597 
943.000000	 0.015406 
942.000000	 0.015180 
941.000000	 0.014934 
940.000000	 0.014676 
939.000000	 0.014438 
938.000000	 0.014247 
937.000000	 0.014103 
936.000000	 0.014000 
935.000000	 0.013957 
934.000000	 0.013979 
933.000000	 0.014030 
932.000000	 0.014048 
931.000000	 0.014013 
930.000000	 0.013960 
929.000000	 0.013939 
928.000000	 0.013979 
927.000000	 0.014068 
926.000000	 0.014163 
925.000000	 0.014221 
924.000000	 0.014263 
923.000000	 0.014379 
922.000000	 0.014627 
921.000000	 0.014942 
920.000000	 0.015176 
919.000000	 0.015231 
918.000000	 0.015126 
917.000000	 0.014947 
916.000000	 0.014763 
915.000000	 0.014618 
914.000000	 0.014536 
913.000000	 0.014497 
912.000000	 0.014434 
911.000000	 0.014304 
910.000000	 0.014124 
909.000000	 0.013939 
908.000000	 0.013751 
907.000000	 0.013537 
906.000000	 0.013311 
905.000000	 0.013116 
904.000000	 0.012969 
903.000000	 0.012863 
902.000000	 0.012816 
901.000000	 0.012855 
900.000000	 0.012949 
899.000000	 0.013004 
898.000000	 0.012973 
897.000000	 0.012922 
896.000000	 0.012955 
895.000000	 0.013091 
894.000000	 0.013261 
893.000000	 0.013397 
892.000000	 0.013474 
891.000000	 0.013496 
890.000000	 0.013483 
889.000000	 0.013484 
888.000000	 0.013535 
887.000000	 0.013606 
886.000000	 0.013619 
885.000000	 0.013556 
884.000000	 0.013510 
883.000000	 0.013583 
882.000000	 0.013772 
881.000000	 0.013967 
880.000000	 0.014065 
879.000000	 0.014057 
878.000000	 0.014023 
877.000000	 0.014050 
876.000000	 0.014162 
875.000000	 0.014301 
874.000000	 0.014402 
873.000000	 0.014465 
872.000000	 0.014537 
871.000000	 0.014627 
870.000000	 0.014698 
869.000000	 0.014734 
868.000000	 0.014773 
867.000000	 0.014828 
866.000000	 0.014836 
865.000000	 0.014739 
864.000000	 0.014587 
863.000000	 0.014510 
862.000000	 0.014586 
861.000000	 0.014767 
860.000000	 0.014951 
859.000000	 0.015076 
858.000000	 0.015153 
857.000000	 0.015233 
856.000000	 0.015353 
855.000000	 0.015514 
854.000000	 0.015700 
853.000000	 0.015925 
852.000000	 0.016233 
851.000000	 0.016630 
850.000000	 0.017041 
849.000000	 0.017369 
848.000000	 0.017600 
847.000000	 0.017798 
846.000000	 0.018007 
845.000000	 0.018208 
844.000000	 0.018367 
843.000000	 0.018479 
842.000000	 0.018550 
841.000000	 0.018555 
840.000000	 0.018457 
839.000000	 0.018250 
838.000000	 0.017956 
837.000000	 0.017606 
836.000000	 0.017236 
835.000000	 0.016875 
834.000000	 0.016530 
833.000000	 0.016215 
832.000000	 0.015982 
831.000000	 0.015900 
830.000000	 0.015948 
829.000000	 0.015992 
828.000000	 0.015919 
827.000000	 0.015777 
826.000000	 0.015708 
825.000000	 0.015754 
824.000000	 0.015825 
823.000000	 0.015857 
822.000000	 0.015890 
821.000000	 0.015949 
820.000000	 0.015978 
819.000000	 0.015930 
818.000000	 0.015870 
817.000000	 0.015923 
816.000000	 0.016118 
815.000000	 0.016343 
814.000000	 0.016450 
813.000000	 0.016415 
812.000000	 0.016343 
811.000000	 0.016340 
810.000000	 0.016397 
809.000000	 0.016437 
808.000000	 0.016451 
807.000000	 0.016533 
806.000000	 0.016743 
805.000000	 0.016978 
804.000000	 0.017030 
803.000000	 0.016788 
802.000000	 0.016347 
801.000000	 0.015893 
800.000000	 0.015530 
799.000000	 0.015249 
798.000000	 0.015031 
797.000000	 0.014906 
796.000000	 0.014875 
795.000000	 0.014859 
794.000000	 0.014788 
793.000000	 0.014717 
792.000000	 0.014794 
791.000000	 0.015077 
790.000000	 0.015447 
789.000000	 0.015748 
788.000000	 0.015961 
787.000000	 0.016180 
786.000000	 0.016467 
785.000000	 0.016795 
784.000000	 0.017129 
783.000000	 0.017489 
782.000000	 0.017899 
781.000000	 0.018328 
780.000000	 0.018724 
779.000000	 0.019057 
778.000000	 0.019327 
777.000000	 0.019555 
776.000000	 0.019805 
775.000000	 0.020160 
774.000000	 0.020635 
773.000000	 0.021134 
772.000000	 0.021551 
771.000000	 0.021888 
770.000000	 0.022227 
769.000000	 0.022598 
768.000000	 0.022934 
767.000000	 0.023177 
766.000000	 0.023355 
765.000000	 0.023531 
764.000000	 0.023713 
763.000000	 0.023855 
762.000000	 0.023925 
761.000000	 0.023929 
760.000000	 0.023899 
759.000000	 0.023885 
758.000000	 0.023964 
757.000000	 0.024210 
756.000000	 0.024624 
755.000000	 0.025103 
754.000000	 0.025493 
753.000000	 0.025717 
752.000000	 0.025848 
751.000000	 0.026049 
750.000000	 0.026428 
749.000000	 0.026949 
748.000000	 0.027507 
747.000000	 0.028094 
746.000000	 0.028848 
745.000000	 0.029921 
744.000000	 0.031304 
743.000000	 0.032801 
742.000000	 0.034161 
741.000000	 0.035237 
740.000000	 0.036055 
739.000000	 0.036744 
738.000000	 0.037407 
737.000000	 0.038041 
736.000000	 0.038588 
735.000000	 0.039035 
734.000000	 0.039440 
733.000000	 0.039874 
732.000000	 0.040396 
731.000000	 0.041084 
730.000000	 0.042010 
729.000000	 0.043153 
728.000000	 0.044399 
727.000000	 0.045690 
726.000000	 0.047078 
725.000000	 0.048559 
724.000000	 0.049894 
723.000000	 0.050689 
722.000000	 0.050651 
721.000000	 0.049767 
720.000000	 0.048299 
719.000000	 0.046601 
718.000000	 0.044919 
717.000000	 0.043330 
716.000000	 0.041834 
715.000000	 0.040464 
714.000000	 0.039298 
713.000000	 0.038373 
712.000000	 0.037617 
711.000000	 0.036908 
710.000000	 0.036204 
709.000000	 0.035596 
708.000000	 0.035188 
707.000000	 0.034975 
706.000000	 0.034859 
705.000000	 0.034791 
704.000000	 0.034821 
703.000000	 0.034957 
702.000000	 0.035058 
701.000000	 0.034966 
700.000000	 0.034665 
699.000000	 0.034250 
698.000000	 0.033710 
697.000000	 0.032901 
696.000000	 0.031787 
695.000000	 0.030591 
694.000000	 0.029614 
693.000000	 0.028962 
692.000000	 0.028516 
691.000000	 0.028180 
690.000000	 0.027987 
689.000000	 0.027964 
688.000000	 0.027955 
687.000000	 0.027701 
686.000000	 0.027102 
685.000000	 0.026324 
684.000000	 0.025630 
683.000000	 0.025160 
682.000000	 0.024843 
681.000000	 0.024498 
680.000000	 0.024023 
679.000000	 0.023508 
678.000000	 0.023144 
677.000000	 0.023007 
676.000000	 0.023022 
675.000000	 0.023036 
674.000000	 0.022919 
673.000000	 0.022654 
672.000000	 0.022438 
671.000000	 0.022578 
670.000000	 0.023235 
669.000000	 0.024174 
668.000000	 0.024488 
667.000000	 0.023046 
666.000000	 0.020980 
665.000000	 0.019683 
664.000000	 0.019282 
663.000000	 0.019439 
662.000000	 0.019696 
661.000000	 0.019715 
660.000000	 0.019436 
659.000000	 0.018986 
658.000000	 0.018516 
657.000000	 0.018109 
656.000000	 0.017836 
655.000000	 0.017725 
654.000000	 0.017684 
653.000000	 0.017568 
652.000000	 0.017345 
651.000000	 0.017105 
650.000000	 0.016960 

