PE IR                   SPECTRUM    ASCII       PEDS        1.60        
  -1
NB461~1.ASC
17/05/24
07:58:23.00
17/05/24
07:58:23.00
Admin

650.000000
4









SPECTRUM ONE,CPU32 MAIN 00.02.6000 25-JUNE-2003 12:00:00
MIR TGS
MIR
OPTKBR
68128
0.200000

4.000000
STRONG
RATIO
SPECTRUM
MAGNITUDE
UNIVERSAL ATR
DOUBLE

COMBINED


0


#HDR
-1
-1
#GR
CM-1
A
0.00000011920928955078
0.0
4000.000000
-1.000000
3351
8
0.188095
-0.001113
#DATA
4000.000000	0.004314  
3999.000000	0.004282  
3998.000000	0.004251  
3997.000000	0.004220  
3996.000000	0.004190  
3995.000000	0.004089  
3994.000000	0.003938  
3993.000000	0.003786  
3992.000000	0.003692  
3991.000000	0.003698  
3990.000000	0.003812  
3989.000000	0.003997  
3988.000000	0.004188  
3987.000000	0.004324  
3986.000000	0.004370  
3985.000000	0.004320  
3984.000000	0.004201  
3983.000000	0.004059  
3982.000000	0.003940  
3981.000000	0.003860  
3980.000000	0.003790  
3979.000000	0.003689  
3978.000000	0.003548  
3977.000000	0.003415  
3976.000000	0.003366  
3975.000000	0.003448  
3974.000000	0.003642  
3973.000000	0.003879  
3972.000000	0.004081  
3971.000000	0.004202  
3970.000000	0.004237  
3969.000000	0.004197  
3968.000000	0.004099  
3967.000000	0.003956  
3966.000000	0.003790  
3965.000000	0.003630  
3964.000000	0.003513  
3963.000000	0.003467  
3962.000000	0.003501  
3961.000000	0.003588  
3960.000000	0.003678  
3959.000000	0.003731  
3958.000000	0.003741  
3957.000000	0.003735  
3956.000000	0.003744  
3955.000000	0.003779  
3954.000000	0.003832  
3953.000000	0.003895  
3952.000000	0.003965  
3951.000000	0.004037  
3950.000000	0.004086  
3949.000000	0.004079  
3948.000000	0.004009  
3947.000000	0.003906  
3946.000000	0.003809  
3945.000000	0.003738  
3944.000000	0.003688  
3943.000000	0.003650  
3942.000000	0.003626  
3941.000000	0.003632  
3940.000000	0.003678  
3939.000000	0.003755  
3938.000000	0.003840  
3937.000000	0.003915  
3936.000000	0.003973  
3935.000000	0.004011  
3934.000000	0.004012  
3933.000000	0.003973  
3932.000000	0.003939  
3931.000000	0.003980  
3930.000000	0.004097  
3929.000000	0.004200  
3928.000000	0.004186  
3927.000000	0.004014  
3926.000000	0.003745  
3925.000000	0.003486  
3924.000000	0.003297  
3923.000000	0.003165  
3922.000000	0.003080  
3921.000000	0.003083  
3920.000000	0.003221  
3919.000000	0.003480  
3918.000000	0.003782  
3917.000000	0.004047  
3916.000000	0.004244  
3915.000000	0.004387  
3914.000000	0.004488  
3913.000000	0.004536  
3912.000000	0.004496  
3911.000000	0.004337  
3910.000000	0.004081  
3909.000000	0.003801  
3908.000000	0.003586  
3907.000000	0.003525  
3906.000000	0.003693  
3905.000000	0.004081  
3904.000000	0.004526  
3903.000000	0.004799  
3902.000000	0.004818  
3901.000000	0.004705  
3900.000000	0.004624  
3899.000000	0.004597  
3898.000000	0.004523  
3897.000000	0.004338  
3896.000000	0.004084  
3895.000000	0.003831  
3894.000000	0.003626  
3893.000000	0.003504  
3892.000000	0.003503  
3891.000000	0.003601  
3890.000000	0.003713  
3889.000000	0.003765  
3888.000000	0.003749  
3887.000000	0.003696  
3886.000000	0.003637  
3885.000000	0.003599  
3884.000000	0.003584  
3883.000000	0.003589  
3882.000000	0.003639  
3881.000000	0.003722  
3880.000000	0.003772  
3879.000000	0.003721  
3878.000000	0.003567  
3877.000000	0.003376  
3876.000000	0.003229  
3875.000000	0.003157  
3874.000000	0.003131  
3873.000000	0.003086  
3872.000000	0.002995  
3871.000000	0.002956  
3870.000000	0.003087  
3869.000000	0.003323  
3868.000000	0.003468  
3867.000000	0.003472  
3866.000000	0.003469  
3865.000000	0.003540  
3864.000000	0.003606  
3863.000000	0.003563  
3862.000000	0.003404  
3861.000000	0.003220  
3860.000000	0.003080  
3859.000000	0.002988  
3858.000000	0.002929  
3857.000000	0.002887  
3856.000000	0.002830  
3855.000000	0.002773  
3854.000000	0.002840  
3853.000000	0.003082  
3852.000000	0.003285  
3851.000000	0.003309  
3850.000000	0.003323  
3849.000000	0.003469  
3848.000000	0.003571  
3847.000000	0.003449  
3846.000000	0.003156  
3845.000000	0.002856  
3844.000000	0.002705  
3843.000000	0.002756  
3842.000000	0.002933  
3841.000000	0.003082  
3840.000000	0.003092  
3839.000000	0.002980  
3838.000000	0.002856  
3837.000000	0.002767  
3836.000000	0.002693  
3835.000000	0.002642  
3834.000000	0.002665  
3833.000000	0.002786  
3832.000000	0.002947  
3831.000000	0.003046  
3830.000000	0.003006  
3829.000000	0.002855  
3828.000000	0.002696  
3827.000000	0.002590  
3826.000000	0.002487  
3825.000000	0.002290  
3824.000000	0.002002  
3823.000000	0.001798  
3822.000000	0.001888  
3821.000000	0.002207  
3820.000000	0.002407  
3819.000000	0.002311  
3818.000000	0.002150  
3817.000000	0.002269  
3816.000000	0.002668  
3815.000000	0.003028  
3814.000000	0.003144  
3813.000000	0.003099  
3812.000000	0.003057  
3811.000000	0.002979  
3810.000000	0.002710  
3809.000000	0.002290  
3808.000000	0.001968  
3807.000000	0.001925  
3806.000000	0.002032  
3805.000000	0.002038  
3804.000000	0.001882  
3803.000000	0.001724  
3802.000000	0.001745  
3801.000000	0.001924  
3800.000000	0.002044  
3799.000000	0.002032  
3798.000000	0.002085  
3797.000000	0.002328  
3796.000000	0.002611  
3795.000000	0.002759  
3794.000000	0.002789  
3793.000000	0.002835  
3792.000000	0.002972  
3791.000000	0.003133  
3790.000000	0.003207  
3789.000000	0.003169  
3788.000000	0.003082  
3787.000000	0.003035  
3786.000000	0.003075  
3785.000000	0.003173  
3784.000000	0.003240  
3783.000000	0.003202  
3782.000000	0.003070  
3781.000000	0.002932  
3780.000000	0.002881  
3779.000000	0.002924  
3778.000000	0.002976  
3777.000000	0.002967  
3776.000000	0.002912  
3775.000000	0.002850  
3774.000000	0.002775  
3773.000000	0.002672  
3772.000000	0.002575  
3771.000000	0.002540  
3770.000000	0.002578  
3769.000000	0.002664  
3768.000000	0.002802  
3767.000000	0.003033  
3766.000000	0.003328  
3765.000000	0.003531  
3764.000000	0.003502  
3763.000000	0.003256  
3762.000000	0.002946  
3761.000000	0.002717  
3760.000000	0.002604  
3759.000000	0.002554  
3758.000000	0.002530  
3757.000000	0.002552  
3756.000000	0.002620  
3755.000000	0.002659  
3754.000000	0.002564  
3753.000000	0.002317  
3752.000000	0.002095  
3751.000000	0.002135  
3750.000000	0.002371  
3749.000000	0.002542  
3748.000000	0.002582  
3747.000000	0.002633  
3746.000000	0.002839  
3745.000000	0.003152  
3744.000000	0.003328  
3743.000000	0.003174  
3742.000000	0.002763  
3741.000000	0.002409  
3740.000000	0.002319  
3739.000000	0.002429  
3738.000000	0.002680  
3737.000000	0.003047  
3736.000000	0.003357  
3735.000000	0.003440  
3734.000000	0.003373  
3733.000000	0.003325  
3732.000000	0.003313  
3731.000000	0.003239  
3730.000000	0.003057  
3729.000000	0.002874  
3728.000000	0.002833  
3727.000000	0.002934  
3726.000000	0.003041  
3725.000000	0.003060  
3724.000000	0.003053  
3723.000000	0.003141  
3722.000000	0.003320  
3721.000000	0.003448  
3720.000000	0.003416  
3719.000000	0.003244  
3718.000000	0.003027  
3717.000000	0.002831  
3716.000000	0.002666  
3715.000000	0.002506  
3714.000000	0.002318  
3713.000000	0.002101  
3712.000000	0.001951  
3711.000000	0.001976  
3710.000000	0.002128  
3709.000000	0.002301  
3708.000000	0.002477  
3707.000000	0.002670  
3706.000000	0.002847  
3705.000000	0.002964  
3704.000000	0.003021  
3703.000000	0.003037  
3702.000000	0.003015  
3701.000000	0.002945  
3700.000000	0.002846  
3699.000000	0.002782  
3698.000000	0.002806  
3697.000000	0.002893  
3696.000000	0.002957  
3695.000000	0.002964  
3694.000000	0.002979  
3693.000000	0.003086  
3692.000000	0.003247  
3691.000000	0.003298  
3690.000000	0.003148  
3689.000000	0.002928  
3688.000000	0.002794  
3687.000000	0.002758  
3686.000000	0.002801  
3685.000000	0.002909  
3684.000000	0.002989  
3683.000000	0.002909  
3682.000000	0.002641  
3681.000000	0.002305  
3680.000000	0.002074  
3679.000000	0.002049  
3678.000000	0.002228  
3677.000000	0.002554  
3676.000000	0.002865  
3675.000000	0.002953  
3674.000000	0.002752  
3673.000000	0.002426  
3672.000000	0.002307  
3671.000000	0.002563  
3670.000000	0.002988  
3669.000000	0.003253  
3668.000000	0.003245  
3667.000000	0.003123  
3666.000000	0.003074  
3665.000000	0.003106  
3664.000000	0.003152  
3663.000000	0.003208  
3662.000000	0.003275  
3661.000000	0.003311  
3660.000000	0.003257  
3659.000000	0.003093  
3658.000000	0.002881  
3657.000000	0.002759  
3656.000000	0.002834  
3655.000000	0.003053  
3654.000000	0.003270  
3653.000000	0.003392  
3652.000000	0.003387  
3651.000000	0.003315  
3650.000000	0.003412  
3649.000000	0.003746  
3648.000000	0.003999  
3647.000000	0.004011  
3646.000000	0.003944  
3645.000000	0.003928  
3644.000000	0.003946  
3643.000000	0.003930  
3642.000000	0.003844  
3641.000000	0.003706  
3640.000000	0.003556  
3639.000000	0.003415  
3638.000000	0.003251  
3637.000000	0.003028  
3636.000000	0.002789  
3635.000000	0.002674  
3634.000000	0.002779  
3633.000000	0.003032  
3632.000000	0.003276  
3631.000000	0.003444  
3630.000000	0.003621  
3629.000000	0.003894  
3628.000000	0.004126  
3627.000000	0.004121  
3626.000000	0.003943  
3625.000000	0.003814  
3624.000000	0.003809  
3623.000000	0.003891  
3622.000000	0.004057  
3621.000000	0.004272  
3620.000000	0.004414  
3619.000000	0.004397  
3618.000000	0.004266  
3617.000000	0.004109  
3616.000000	0.003977  
3615.000000	0.003879  
3614.000000	0.003802  
3613.000000	0.003742  
3612.000000	0.003694  
3611.000000	0.003671  
3610.000000	0.003719  
3609.000000	0.003890  
3608.000000	0.004146  
3607.000000	0.004359  
3606.000000	0.004423  
3605.000000	0.004343  
3604.000000	0.004179  
3603.000000	0.003997  
3602.000000	0.003871  
3601.000000	0.003857  
3600.000000	0.003942  
3599.000000	0.004041  
3598.000000	0.004080  
3597.000000	0.004060  
3596.000000	0.004032  
3595.000000	0.004051  
3594.000000	0.004143  
3593.000000	0.004298  
3592.000000	0.004486  
3591.000000	0.004683  
3590.000000	0.004882  
3589.000000	0.005100  
3588.000000	0.005356  
3587.000000	0.005600  
3586.000000	0.005725  
3585.000000	0.005675  
3584.000000	0.005488  
3583.000000	0.005240  
3582.000000	0.005016  
3581.000000	0.004907  
3580.000000	0.004971  
3579.000000	0.005166  
3578.000000	0.005373  
3577.000000	0.005489  
3576.000000	0.005497  
3575.000000	0.005456  
3574.000000	0.005428  
3573.000000	0.005434  
3572.000000	0.005463  
3571.000000	0.005503  
3570.000000	0.005562  
3569.000000	0.005690  
3568.000000	0.005952  
3567.000000	0.006324  
3566.000000	0.006640  
3565.000000	0.006768  
3564.000000	0.006719  
3563.000000	0.006570  
3562.000000	0.006371  
3561.000000	0.006165  
3560.000000	0.006014  
3559.000000	0.005984  
3558.000000	0.006072  
3557.000000	0.006201  
3556.000000	0.006287  
3555.000000	0.006319  
3554.000000	0.006351  
3553.000000	0.006424  
3552.000000	0.006510  
3551.000000	0.006548  
3550.000000	0.006535  
3549.000000	0.006539  
3548.000000	0.006629  
3547.000000	0.006802  
3546.000000	0.006973  
3545.000000	0.007063  
3544.000000	0.007080  
3543.000000	0.007089  
3542.000000	0.007137  
3541.000000	0.007226  
3540.000000	0.007331  
3539.000000	0.007419  
3538.000000	0.007468  
3537.000000	0.007476  
3536.000000	0.007456  
3535.000000	0.007422  
3534.000000	0.007368  
3533.000000	0.007282  
3532.000000	0.007168  
3531.000000	0.007068  
3530.000000	0.007043  
3529.000000	0.007138  
3528.000000	0.007347  
3527.000000	0.007610  
3526.000000	0.007836  
3525.000000	0.007946  
3524.000000	0.007931  
3523.000000	0.007879  
3522.000000	0.007901  
3521.000000	0.008029  
3520.000000	0.008196  
3519.000000	0.008312  
3518.000000	0.008336  
3517.000000	0.008305  
3516.000000	0.008278  
3515.000000	0.008288  
3514.000000	0.008326  
3513.000000	0.008380  
3512.000000	0.008463  
3511.000000	0.008585  
3510.000000	0.008720  
3509.000000	0.008819  
3508.000000	0.008874  
3507.000000	0.008938  
3506.000000	0.009069  
3505.000000	0.009244  
3504.000000	0.009355  
3503.000000	0.009313  
3502.000000	0.009161  
3501.000000	0.009027  
3500.000000	0.008999  
3499.000000	0.009077  
3498.000000	0.009216  
3497.000000	0.009383  
3496.000000	0.009552  
3495.000000	0.009674  
3494.000000	0.009702  
3493.000000	0.009648  
3492.000000	0.009597  
3491.000000	0.009639  
3490.000000	0.009775  
3489.000000	0.009915  
3488.000000	0.009976  
3487.000000	0.009965  
3486.000000	0.009952  
3485.000000	0.009993  
3484.000000	0.010075  
3483.000000	0.010147  
3482.000000	0.010171  
3481.000000	0.010163  
3480.000000	0.010182  
3479.000000	0.010287  
3478.000000	0.010501  
3477.000000	0.010798  
3476.000000	0.011123  
3475.000000	0.011406  
3474.000000	0.011590  
3473.000000	0.011639  
3472.000000	0.011573  
3471.000000	0.011461  
3470.000000	0.011378  
3469.000000	0.011352  
3468.000000	0.011356  
3467.000000	0.011359  
3466.000000	0.011358  
3465.000000	0.011371  
3464.000000	0.011403  
3463.000000	0.011445  
3462.000000	0.011494  
3461.000000	0.011564  
3460.000000	0.011671  
3459.000000	0.011815  
3458.000000	0.011976  
3457.000000	0.012119  
3456.000000	0.012210  
3455.000000	0.012227  
3454.000000	0.012177  
3453.000000	0.012091  
3452.000000	0.012026  
3451.000000	0.012038  
3450.000000	0.012166  
3449.000000	0.012401  
3448.000000	0.012672  
3447.000000	0.012870  
3446.000000	0.012935  
3445.000000	0.012902  
3444.000000	0.012876  
3443.000000	0.012936  
3442.000000	0.013075  
3441.000000	0.013216  
3440.000000	0.013296  
3439.000000	0.013317  
3438.000000	0.013311  
3437.000000	0.013293  
3436.000000	0.013257  
3435.000000	0.013214  
3434.000000	0.013214  
3433.000000	0.013306  
3432.000000	0.013484  
3431.000000	0.013679  
3430.000000	0.013814  
3429.000000	0.013864  
3428.000000	0.013865  
3427.000000	0.013874  
3426.000000	0.013925  
3425.000000	0.013999  
3424.000000	0.014037  
3423.000000	0.013990  
3422.000000	0.013878  
3421.000000	0.013797  
3420.000000	0.013836  
3419.000000	0.013988  
3418.000000	0.014149  
3417.000000	0.014221  
3416.000000	0.014199  
3415.000000	0.014164  
3414.000000	0.014203  
3413.000000	0.014347  
3412.000000	0.014554  
3411.000000	0.014742  
3410.000000	0.014838  
3409.000000	0.014836  
3408.000000	0.014814  
3407.000000	0.014874  
3406.000000	0.015039  
3405.000000	0.015232  
3404.000000	0.015352  
3403.000000	0.015370  
3402.000000	0.015335  
3401.000000	0.015311  
3400.000000	0.015330  
3399.000000	0.015379  
3398.000000	0.015422  
3397.000000	0.015418  
3396.000000	0.015357  
3395.000000	0.015287  
3394.000000	0.015273  
3393.000000	0.015352  
3392.000000	0.015507  
3391.000000	0.015699  
3390.000000	0.015879  
3389.000000	0.016000  
3388.000000	0.016037  
3387.000000	0.016023  
3386.000000	0.016027  
3385.000000	0.016087  
3384.000000	0.016164  
3383.000000	0.016196  
3382.000000	0.016179  
3381.000000	0.016171  
3380.000000	0.016236  
3379.000000	0.016385  
3378.000000	0.016571  
3377.000000	0.016728  
3376.000000	0.016807  
3375.000000	0.016790  
3374.000000	0.016694  
3373.000000	0.016571  
3372.000000	0.016503  
3371.000000	0.016553  
3370.000000	0.016713  
3369.000000	0.016897  
3368.000000	0.017015  
3367.000000	0.017045  
3366.000000	0.017041  
3365.000000	0.017061  
3364.000000	0.017113  
3363.000000	0.017175  
3362.000000	0.017232  
3361.000000	0.017291  
3360.000000	0.017364  
3359.000000	0.017446  
3358.000000	0.017513  
3357.000000	0.017533  
3356.000000	0.017488  
3355.000000	0.017402  
3354.000000	0.017342  
3353.000000	0.017365  
3352.000000	0.017482  
3351.000000	0.017651  
3350.000000	0.017805  
3349.000000	0.017890  
3348.000000	0.017891  
3347.000000	0.017828  
3346.000000	0.017753  
3345.000000	0.017721  
3344.000000	0.017762  
3343.000000	0.017864  
3342.000000	0.017964  
3341.000000	0.017991  
3340.000000	0.017909  
3339.000000	0.017745  
3338.000000	0.017550  
3337.000000	0.017376  
3336.000000	0.017263  
3335.000000	0.017245  
3334.000000	0.017328  
3333.000000	0.017463  
3332.000000	0.017563  
3331.000000	0.017566  
3330.000000	0.017479  
3329.000000	0.017356  
3328.000000	0.017262  
3327.000000	0.017240  
3326.000000	0.017300  
3325.000000	0.017424  
3324.000000	0.017578  
3323.000000	0.017732  
3322.000000	0.017857  
3321.000000	0.017927  
3320.000000	0.017927  
3319.000000	0.017879  
3318.000000	0.017820  
3317.000000	0.017757  
3316.000000	0.017662  
3315.000000	0.017511  
3314.000000	0.017321  
3313.000000	0.017127  
3312.000000	0.016958  
3311.000000	0.016834  
3310.000000	0.016777  
3309.000000	0.016796  
3308.000000	0.016865  
3307.000000	0.016928  
3306.000000	0.016933  
3305.000000	0.016861  
3304.000000	0.016736  
3303.000000	0.016616  
3302.000000	0.016546  
3301.000000	0.016520  
3300.000000	0.016492  
3299.000000	0.016434  
3298.000000	0.016376  
3297.000000	0.016360  
3296.000000	0.016385  
3295.000000	0.016406  
3294.000000	0.016397  
3293.000000	0.016369  
3292.000000	0.016332  
3291.000000	0.016255  
3290.000000	0.016093  
3289.000000	0.015840  
3288.000000	0.015560  
3287.000000	0.015362  
3286.000000	0.015318  
3285.000000	0.015389  
3284.000000	0.015456  
3283.000000	0.015422  
3282.000000	0.015304  
3281.000000	0.015201  
3280.000000	0.015172  
3279.000000	0.015175  
3278.000000	0.015115  
3277.000000	0.014946  
3276.000000	0.014711  
3275.000000	0.014518  
3274.000000	0.014456  
3273.000000	0.014530  
3272.000000	0.014650  
3271.000000	0.014705  
3270.000000	0.014654  
3269.000000	0.014539  
3268.000000	0.014420  
3267.000000	0.014305  
3266.000000	0.014165  
3265.000000	0.014001  
3264.000000	0.013859  
3263.000000	0.013777  
3262.000000	0.013745  
3261.000000	0.013720  
3260.000000	0.013679  
3259.000000	0.013630  
3258.000000	0.013590  
3257.000000	0.013563  
3256.000000	0.013530  
3255.000000	0.013458  
3254.000000	0.013328  
3253.000000	0.013159  
3252.000000	0.012999  
3251.000000	0.012886  
3250.000000	0.012810  
3249.000000	0.012732  
3248.000000	0.012639  
3247.000000	0.012554  
3246.000000	0.012491  
3245.000000	0.012421  
3244.000000	0.012304  
3243.000000	0.012147  
3242.000000	0.012002  
3241.000000	0.011903  
3240.000000	0.011833  
3239.000000	0.011763  
3238.000000	0.011697  
3237.000000	0.011663  
3236.000000	0.011668  
3235.000000	0.011680  
3234.000000	0.011674  
3233.000000	0.011648  
3232.000000	0.011612  
3231.000000	0.011553  
3230.000000	0.011447  
3229.000000	0.011302  
3228.000000	0.011160  
3227.000000	0.011064  
3226.000000	0.011018  
3225.000000	0.010997  
3224.000000	0.010973  
3223.000000	0.010935  
3222.000000	0.010866  
3221.000000	0.010746  
3220.000000	0.010572  
3219.000000	0.010376  
3218.000000	0.010198  
3217.000000	0.010055  
3216.000000	0.009941  
3215.000000	0.009863  
3214.000000	0.009839  
3213.000000	0.009864  
3212.000000	0.009894  
3211.000000	0.009872  
3210.000000	0.009771  
3209.000000	0.009600  
3208.000000	0.009397  
3207.000000	0.009222  
3206.000000	0.009140  
3205.000000	0.009185  
3204.000000	0.009321  
3203.000000	0.009457  
3202.000000	0.009514  
3201.000000	0.009467  
3200.000000	0.009353  
3199.000000	0.009226  
3198.000000	0.009121  
3197.000000	0.009036  
3196.000000	0.008944  
3195.000000	0.008829  
3194.000000	0.008717  
3193.000000	0.008651  
3192.000000	0.008653  
3191.000000	0.008695  
3190.000000	0.008720  
3189.000000	0.008686  
3188.000000	0.008576  
3187.000000	0.008402  
3186.000000	0.008207  
3185.000000	0.008074  
3184.000000	0.008076  
3183.000000	0.008207  
3182.000000	0.008362  
3181.000000	0.008425  
3180.000000	0.008362  
3179.000000	0.008226  
3178.000000	0.008080  
3177.000000	0.007949  
3176.000000	0.007841  
3175.000000	0.007781  
3174.000000	0.007784  
3173.000000	0.007830  
3172.000000	0.007864  
3171.000000	0.007835  
3170.000000	0.007726  
3169.000000	0.007559  
3168.000000	0.007399  
3167.000000	0.007334  
3166.000000	0.007407  
3165.000000	0.007566  
3164.000000	0.007682  
3163.000000	0.007650  
3162.000000	0.007470  
3161.000000	0.007233  
3160.000000	0.007050  
3159.000000	0.006964  
3158.000000	0.006932  
3157.000000	0.006880  
3156.000000	0.006780  
3155.000000	0.006674  
3154.000000	0.006621  
3153.000000	0.006627  
3152.000000	0.006641  
3151.000000	0.006607  
3150.000000	0.006520  
3149.000000	0.006423  
3148.000000	0.006369  
3147.000000	0.006371  
3146.000000	0.006380  
3145.000000	0.006332  
3144.000000	0.006212  
3143.000000	0.006093  
3142.000000	0.006058  
3141.000000	0.006111  
3140.000000	0.006168  
3139.000000	0.006145  
3138.000000	0.006032  
3137.000000	0.005898  
3136.000000	0.005824  
3135.000000	0.005848  
3134.000000	0.005933  
3133.000000	0.005982  
3132.000000	0.005918  
3131.000000	0.005759  
3130.000000	0.005602  
3129.000000	0.005530  
3128.000000	0.005552  
3127.000000	0.005626  
3126.000000	0.005700  
3125.000000	0.005730  
3124.000000	0.005687  
3123.000000	0.005591  
3122.000000	0.005509  
3121.000000	0.005491  
3120.000000	0.005523  
3119.000000	0.005547  
3118.000000	0.005536  
3117.000000	0.005506  
3116.000000	0.005467  
3115.000000	0.005406  
3114.000000	0.005321  
3113.000000	0.005250  
3112.000000	0.005230  
3111.000000	0.005251  
3110.000000	0.005263  
3109.000000	0.005225  
3108.000000	0.005152  
3107.000000	0.005097  
3106.000000	0.005095  
3105.000000	0.005129  
3104.000000	0.005143  
3103.000000	0.005106  
3102.000000	0.005034  
3101.000000	0.004966  
3100.000000	0.004916  
3099.000000	0.004889  
3098.000000	0.004903  
3097.000000	0.004978  
3096.000000	0.005090  
3095.000000	0.005176  
3094.000000	0.005201  
3093.000000	0.005187  
3092.000000	0.005180  
3091.000000	0.005198  
3090.000000	0.005228  
3089.000000	0.005244  
3088.000000	0.005215  
3087.000000	0.005123  
3086.000000	0.004986  
3085.000000	0.004865  
3084.000000	0.004815  
3083.000000	0.004838  
3082.000000	0.004894  
3081.000000	0.004957  
3080.000000	0.005026  
3079.000000	0.005109  
3078.000000	0.005184  
3077.000000	0.005231  
3076.000000	0.005252  
3075.000000	0.005268  
3074.000000	0.005286  
3073.000000	0.005282  
3072.000000	0.005228  
3071.000000	0.005126  
3070.000000	0.005023  
3069.000000	0.004980  
3068.000000	0.005029  
3067.000000	0.005135  
3066.000000	0.005221  
3065.000000	0.005235  
3064.000000	0.005198  
3063.000000	0.005177  
3062.000000	0.005201  
3061.000000	0.005235  
3060.000000	0.005233  
3059.000000	0.005198  
3058.000000	0.005162  
3057.000000	0.005133  
3056.000000	0.005092  
3055.000000	0.005061  
3054.000000	0.005112  
3053.000000	0.005279  
3052.000000	0.005502  
3051.000000	0.005663  
3050.000000	0.005698  
3049.000000	0.005643  
3048.000000	0.005575  
3047.000000	0.005549  
3046.000000	0.005572  
3045.000000	0.005627  
3044.000000	0.005684  
3043.000000	0.005715  
3042.000000	0.005719  
3041.000000	0.005716  
3040.000000	0.005726  
3039.000000	0.005750  
3038.000000	0.005789  
3037.000000	0.005858  
3036.000000	0.005967  
3035.000000	0.006098  
3034.000000	0.006223  
3033.000000	0.006352  
3032.000000	0.006523  
3031.000000	0.006735  
3030.000000	0.006920  
3029.000000	0.007016  
3028.000000	0.007047  
3027.000000	0.007100  
3026.000000	0.007221  
3025.000000	0.007384  
3024.000000	0.007544  
3023.000000	0.007721  
3022.000000	0.007972  
3021.000000	0.008324  
3020.000000	0.008745  
3019.000000	0.009188  
3018.000000	0.009630  
3017.000000	0.010058  
3016.000000	0.010459  
3015.000000	0.010836  
3014.000000	0.011207  
3013.000000	0.011582  
3012.000000	0.011920  
3011.000000	0.012161  
3010.000000	0.012275  
3009.000000	0.012296  
3008.000000	0.012281  
3007.000000	0.012250  
3006.000000	0.012165  
3005.000000	0.011977  
3004.000000	0.011696  
3003.000000	0.011403  
3002.000000	0.011181  
3001.000000	0.011055  
3000.000000	0.010998  
2999.000000	0.010985  
2998.000000	0.011025  
2997.000000	0.011137  
2996.000000	0.011317  
2995.000000	0.011536  
2994.000000	0.011758  
2993.000000	0.011970  
2992.000000	0.012191  
2991.000000	0.012472  
2990.000000	0.012865  
2989.000000	0.013391  
2988.000000	0.014016  
2987.000000	0.014696  
2986.000000	0.015417  
2985.000000	0.016210  
2984.000000	0.017118  
2983.000000	0.018161  
2982.000000	0.019337  
2981.000000	0.020658  
2980.000000	0.022182  
2979.000000	0.023980  
2978.000000	0.026067  
2977.000000	0.028387  
2976.000000	0.030890  
2975.000000	0.033626  
2974.000000	0.036727  
2973.000000	0.040311  
2972.000000	0.044400  
2971.000000	0.048937  
2970.000000	0.053854  
2969.000000	0.059097  
2968.000000	0.064611  
2967.000000	0.070304  
2966.000000	0.076041  
2965.000000	0.081684  
2964.000000	0.087144  
2963.000000	0.092389  
2962.000000	0.097373  
2961.000000	0.101960  
2960.000000	0.105939  
2959.000000	0.109110  
2958.000000	0.111343  
2957.000000	0.112579  
2956.000000	0.112819  
2955.000000	0.112131  
2954.000000	0.110665  
2953.000000	0.108618  
2952.000000	0.106184  
2951.000000	0.103553  
2950.000000	0.100938  
2949.000000	0.098589  
2948.000000	0.096740  
2947.000000	0.095534  
2946.000000	0.095022  
2945.000000	0.095219  
2944.000000	0.096181  
2943.000000	0.098000  
2942.000000	0.100738  
2941.000000	0.104354  
2940.000000	0.108703  
2939.000000	0.113598  
2938.000000	0.118884  
2937.000000	0.124452  
2936.000000	0.130235  
2935.000000	0.136184  
2934.000000	0.142260  
2933.000000	0.148420  
2932.000000	0.154593  
2931.000000	0.160675  
2930.000000	0.166528  
2929.000000	0.171993  
2928.000000	0.176903  
2927.000000	0.181093  
2926.000000	0.184418  
2925.000000	0.186768  
2924.000000	0.188038  
2923.000000	0.188095  
2922.000000	0.186840  
2921.000000	0.184349  
2920.000000	0.180893  
2919.000000	0.176789  
2918.000000	0.172255  
2917.000000	0.167416  
2916.000000	0.162391  
2915.000000	0.157328  
2914.000000	0.152371  
2913.000000	0.147642  
2912.000000	0.143202  
2911.000000	0.139022  
2910.000000	0.134999  
2909.000000	0.131049  
2908.000000	0.127187  
2907.000000	0.123486  
2906.000000	0.119995  
2905.000000	0.116709  
2904.000000	0.113602  
2903.000000	0.110654  
2902.000000	0.107831  
2901.000000	0.105068  
2900.000000	0.102287  
2899.000000	0.099430  
2898.000000	0.096500  
2897.000000	0.093567  
2896.000000	0.090719  
2895.000000	0.088008  
2894.000000	0.085429  
2893.000000	0.082965  
2892.000000	0.080620  
2891.000000	0.078409  
2890.000000	0.076335  
2889.000000	0.074411  
2888.000000	0.072685  
2887.000000	0.071241  
2886.000000	0.070151  
2885.000000	0.069451  
2884.000000	0.069160  
2883.000000	0.069311  
2882.000000	0.069981  
2881.000000	0.071269  
2880.000000	0.073246  
2879.000000	0.075900  
2878.000000	0.079103  
2877.000000	0.082624  
2876.000000	0.086157  
2875.000000	0.089348  
2874.000000	0.091854  
2873.000000	0.093463  
2872.000000	0.094203  
2871.000000	0.094336  
2870.000000	0.094218  
2869.000000	0.094133  
2868.000000	0.094231  
2867.000000	0.094570  
2866.000000	0.095195  
2865.000000	0.096201  
2864.000000	0.097704  
2863.000000	0.099754  
2862.000000	0.102277  
2861.000000	0.105099  
2860.000000	0.108029  
2859.000000	0.110904  
2858.000000	0.113565  
2857.000000	0.115811  
2856.000000	0.117377  
2855.000000	0.117963  
2854.000000	0.117318  
2853.000000	0.115332  
2852.000000	0.112079  
2851.000000	0.107770  
2850.000000	0.102683  
2849.000000	0.097113  
2848.000000	0.091341  
2847.000000	0.085579  
2846.000000	0.079947  
2845.000000	0.074503  
2844.000000	0.069287  
2843.000000	0.064328  
2842.000000	0.059615  
2841.000000	0.055131  
2840.000000	0.050897  
2839.000000	0.046977  
2838.000000	0.043429  
2837.000000	0.040270  
2836.000000	0.037474  
2835.000000	0.034989  
2834.000000	0.032754  
2833.000000	0.030714  
2832.000000	0.028841  
2831.000000	0.027141  
2830.000000	0.025629  
2829.000000	0.024301  
2828.000000	0.023123  
2827.000000	0.022049  
2826.000000	0.021033  
2825.000000	0.020053  
2824.000000	0.019133  
2823.000000	0.018319  
2822.000000	0.017626  
2821.000000	0.017018  
2820.000000	0.016443  
2819.000000	0.015886  
2818.000000	0.015366  
2817.000000	0.014891  
2816.000000	0.014451  
2815.000000	0.014039  
2814.000000	0.013663  
2813.000000	0.013322  
2812.000000	0.012990  
2811.000000	0.012646  
2810.000000	0.012296  
2809.000000	0.011957  
2808.000000	0.011641  
2807.000000	0.011357  
2806.000000	0.011120  
2805.000000	0.010928  
2804.000000	0.010764  
2803.000000	0.010600  
2802.000000	0.010421  
2801.000000	0.010216  
2800.000000	0.009982  
2799.000000	0.009742  
2798.000000	0.009536  
2797.000000	0.009387  
2796.000000	0.009276  
2795.000000	0.009166  
2794.000000	0.009053  
2793.000000	0.008952  
2792.000000	0.008855  
2791.000000	0.008729  
2790.000000	0.008554  
2789.000000	0.008352  
2788.000000	0.008156  
2787.000000	0.007973  
2786.000000	0.007795  
2785.000000	0.007624  
2784.000000	0.007476  
2783.000000	0.007352  
2782.000000	0.007231  
2781.000000	0.007089  
2780.000000	0.006928  
2779.000000	0.006767  
2778.000000	0.006633  
2777.000000	0.006529  
2776.000000	0.006439  
2775.000000	0.006344  
2774.000000	0.006248  
2773.000000	0.006182  
2772.000000	0.006163  
2771.000000	0.006157  
2770.000000	0.006104  
2769.000000	0.005986  
2768.000000	0.005857  
2767.000000	0.005791  
2766.000000	0.005799  
2765.000000	0.005833  
2764.000000	0.005854  
2763.000000	0.005862  
2762.000000	0.005863  
2761.000000	0.005830  
2760.000000	0.005738  
2759.000000	0.005605  
2758.000000	0.005491  
2757.000000	0.005431  
2756.000000	0.005410  
2755.000000	0.005387  
2754.000000	0.005326  
2753.000000	0.005221  
2752.000000	0.005102  
2751.000000	0.005027  
2750.000000	0.005043  
2749.000000	0.005143  
2748.000000	0.005260  
2747.000000	0.005337  
2746.000000	0.005367  
2745.000000	0.005384  
2744.000000	0.005408  
2743.000000	0.005422  
2742.000000	0.005407  
2741.000000	0.005374  
2740.000000	0.005370  
2739.000000	0.005431  
2738.000000	0.005539  
2737.000000	0.005638  
2736.000000	0.005690  
2735.000000	0.005709  
2734.000000	0.005725  
2733.000000	0.005735  
2732.000000	0.005719  
2731.000000	0.005675  
2730.000000	0.005626  
2729.000000	0.005585  
2728.000000	0.005548  
2727.000000	0.005505  
2726.000000	0.005449  
2725.000000	0.005374  
2724.000000	0.005301  
2723.000000	0.005280  
2722.000000	0.005336  
2721.000000	0.005416  
2720.000000	0.005433  
2719.000000	0.005378  
2718.000000	0.005329  
2717.000000	0.005343  
2716.000000	0.005379  
2715.000000	0.005364  
2714.000000	0.005276  
2713.000000	0.005149  
2712.000000	0.005007  
2711.000000	0.004856  
2710.000000	0.004721  
2709.000000	0.004639  
2708.000000	0.004618  
2707.000000	0.004628  
2706.000000	0.004632  
2705.000000	0.004605  
2704.000000	0.004537  
2703.000000	0.004442  
2702.000000	0.004357  
2701.000000	0.004310  
2700.000000	0.004288  
2699.000000	0.004262  
2698.000000	0.004234  
2697.000000	0.004234  
2696.000000	0.004275  
2695.000000	0.004339  
2694.000000	0.004409  
2693.000000	0.004482  
2692.000000	0.004542  
2691.000000	0.004550  
2690.000000	0.004486  
2689.000000	0.004375  
2688.000000	0.004268  
2687.000000	0.004207  
2686.000000	0.004210  
2685.000000	0.004278  
2684.000000	0.004391  
2683.000000	0.004504  
2682.000000	0.004561  
2681.000000	0.004538  
2680.000000	0.004466  
2679.000000	0.004413  
2678.000000	0.004422  
2677.000000	0.004474  
2676.000000	0.004514  
2675.000000	0.004504  
2674.000000	0.004454  
2673.000000	0.004397  
2672.000000	0.004354  
2671.000000	0.004337  
2670.000000	0.004353  
2669.000000	0.004395  
2668.000000	0.004430  
2667.000000	0.004415  
2666.000000	0.004341  
2665.000000	0.004240  
2664.000000	0.004165  
2663.000000	0.004150  
2662.000000	0.004181  
2661.000000	0.004206  
2660.000000	0.004175  
2659.000000	0.004091  
2658.000000	0.004009  
2657.000000	0.003976  
2656.000000	0.004000  
2655.000000	0.004049  
2654.000000	0.004081  
2653.000000	0.004055  
2652.000000	0.003953  
2651.000000	0.003802  
2650.000000	0.003671  
2649.000000	0.003604  
2648.000000	0.003585  
2647.000000	0.003572  
2646.000000	0.003549  
2645.000000	0.003525  
2644.000000	0.003499  
2643.000000	0.003463  
2642.000000	0.003433  
2641.000000	0.003427  
2640.000000	0.003429  
2639.000000	0.003386  
2638.000000	0.003276  
2637.000000	0.003140  
2636.000000	0.003047  
2635.000000	0.003042  
2634.000000	0.003119  
2633.000000	0.003229  
2632.000000	0.003316  
2631.000000	0.003348  
2630.000000	0.003331  
2629.000000	0.003295  
2628.000000	0.003264  
2627.000000	0.003259  
2626.000000	0.003293  
2625.000000	0.003346  
2624.000000	0.003366  
2623.000000	0.003315  
2622.000000	0.003228  
2621.000000	0.003180  
2620.000000	0.003207  
2619.000000	0.003272  
2618.000000	0.003306  
2617.000000	0.003260  
2616.000000	0.003137  
2615.000000	0.002989  
2614.000000	0.002898  
2613.000000	0.002901  
2612.000000	0.002950  
2611.000000	0.002952  
2610.000000	0.002877  
2609.000000	0.002790  
2608.000000	0.002778  
2607.000000	0.002852  
2606.000000	0.002934  
2605.000000	0.002928  
2604.000000	0.002805  
2603.000000	0.002634  
2602.000000	0.002527  
2601.000000	0.002535  
2600.000000	0.002604  
2599.000000	0.002649  
2598.000000	0.002651  
2597.000000	0.002660  
2596.000000	0.002710  
2595.000000	0.002772  
2594.000000	0.002798  
2593.000000	0.002764  
2592.000000	0.002682  
2591.000000	0.002591  
2590.000000	0.002552  
2589.000000	0.002603  
2588.000000	0.002708  
2587.000000	0.002781  
2586.000000	0.002787  
2585.000000	0.002775  
2584.000000	0.002799  
2583.000000	0.002834  
2582.000000	0.002807  
2581.000000	0.002696  
2580.000000	0.002564  
2579.000000	0.002490  
2578.000000	0.002480  
2577.000000	0.002474  
2576.000000	0.002410  
2575.000000	0.002286  
2574.000000	0.002164  
2573.000000	0.002109  
2572.000000	0.002128  
2571.000000	0.002169  
2570.000000	0.002173  
2569.000000	0.002133  
2568.000000	0.002097  
2567.000000	0.002106  
2566.000000	0.002149  
2565.000000	0.002176  
2564.000000	0.002157  
2563.000000	0.002119  
2562.000000	0.002107  
2561.000000	0.002137  
2560.000000	0.002200  
2559.000000	0.002292  
2558.000000	0.002400  
2557.000000	0.002457  
2556.000000	0.002386  
2555.000000	0.002196  
2554.000000	0.002003  
2553.000000	0.001925  
2552.000000	0.001973  
2551.000000	0.002066  
2550.000000	0.002108  
2549.000000	0.002035  
2548.000000	0.001840  
2547.000000	0.001613  
2546.000000	0.001511  
2545.000000	0.001630  
2544.000000	0.001889  
2543.000000	0.002107  
2542.000000	0.002180  
2541.000000	0.002153  
2540.000000	0.002105  
2539.000000	0.002052  
2538.000000	0.001962  
2537.000000	0.001822  
2536.000000	0.001664  
2535.000000	0.001533  
2534.000000	0.001452  
2533.000000	0.001405  
2532.000000	0.001344  
2531.000000	0.001268  
2530.000000	0.001265  
2529.000000	0.001430  
2528.000000	0.001722  
2527.000000	0.001956  
2526.000000	0.001978  
2525.000000	0.001813  
2524.000000	0.001618  
2523.000000	0.001526  
2522.000000	0.001561  
2521.000000	0.001668  
2520.000000	0.001772  
2519.000000	0.001808  
2518.000000	0.001747  
2517.000000	0.001619  
2516.000000	0.001500  
2515.000000	0.001462  
2514.000000	0.001531  
2513.000000	0.001666  
2512.000000	0.001770  
2511.000000	0.001755  
2510.000000	0.001627  
2509.000000	0.001501  
2508.000000	0.001493  
2507.000000	0.001587  
2506.000000	0.001636  
2505.000000	0.001543  
2504.000000	0.001393  
2503.000000	0.001368  
2502.000000	0.001544  
2501.000000	0.001803  
2500.000000	0.001972  
2499.000000	0.001975  
2498.000000	0.001846  
2497.000000	0.001649  
2496.000000	0.001452  
2495.000000	0.001339  
2494.000000	0.001358  
2493.000000	0.001440  
2492.000000	0.001442  
2491.000000	0.001306  
2490.000000	0.001153  
2489.000000	0.001149  
2488.000000	0.001329  
2487.000000	0.001570  
2486.000000	0.001714  
2485.000000	0.001696  
2484.000000	0.001558  
2483.000000	0.001388  
2482.000000	0.001258  
2481.000000	0.001197  
2480.000000	0.001202  
2479.000000	0.001257  
2478.000000	0.001339  
2477.000000	0.001408  
2476.000000	0.001431  
2475.000000	0.001413  
2474.000000	0.001388  
2473.000000	0.001369  
2472.000000	0.001338  
2471.000000	0.001292  
2470.000000	0.001245  
2469.000000	0.001198  
2468.000000	0.001122  
2467.000000	0.001008  
2466.000000	0.000898  
2465.000000	0.000839  
2464.000000	0.000846  
2463.000000	0.000906  
2462.000000	0.000991  
2461.000000	0.001038  
2460.000000	0.000979  
2459.000000	0.000826  
2458.000000	0.000678  
2457.000000	0.000612  
2456.000000	0.000601  
2455.000000	0.000592  
2454.000000	0.000605  
2453.000000	0.000704  
2452.000000	0.000888  
2451.000000	0.001076  
2450.000000	0.001195  
2449.000000	0.001216  
2448.000000	0.001134  
2447.000000	0.000965  
2446.000000	0.000777  
2445.000000	0.000665  
2444.000000	0.000677  
2443.000000	0.000785  
2442.000000	0.000917  
2441.000000	0.000993  
2440.000000	0.000947  
2439.000000	0.000790  
2438.000000	0.000641  
2437.000000	0.000641  
2436.000000	0.000807  
2435.000000	0.001015  
2434.000000	0.001116  
2433.000000	0.001078  
2432.000000	0.001002  
2431.000000	0.001038  
2430.000000	0.001247  
2429.000000	0.001517  
2428.000000	0.001634  
2427.000000	0.001479  
2426.000000	0.001160  
2425.000000	0.000896  
2424.000000	0.000789  
2423.000000	0.000780  
2422.000000	0.000791  
2421.000000	0.000832  
2420.000000	0.000938  
2419.000000	0.001087  
2418.000000	0.001237  
2417.000000	0.001382  
2416.000000	0.001521  
2415.000000	0.001600  
2414.000000	0.001562  
2413.000000	0.001422  
2412.000000	0.001248  
2411.000000	0.001075  
2410.000000	0.000900  
2409.000000	0.000745  
2408.000000	0.000679  
2407.000000	0.000735  
2406.000000	0.000850  
2405.000000	0.000921  
2404.000000	0.000928  
2403.000000	0.000939  
2402.000000	0.001011  
2401.000000	0.001107  
2400.000000	0.001144  
2399.000000	0.001092  
2398.000000	0.001010  
2397.000000	0.000972  
2396.000000	0.001001  
2395.000000	0.001076  
2394.000000	0.001170  
2393.000000	0.001265  
2392.000000	0.001351  
2391.000000	0.001412  
2390.000000	0.001419  
2389.000000	0.001330  
2388.000000	0.001140  
2387.000000	0.000919  
2386.000000	0.000782  
2385.000000	0.000783  
2384.000000	0.000883  
2383.000000	0.001008  
2382.000000	0.001123  
2381.000000	0.001195  
2380.000000	0.001168  
2379.000000	0.001021  
2378.000000	0.000836  
2377.000000	0.000709  
2376.000000	0.000593  
2375.000000	0.000361  
2374.000000	0.000056  
2373.000000	-0.000066 
2372.000000	0.000154  
2371.000000	0.000567  
2370.000000	0.000913  
2369.000000	0.001138  
2368.000000	0.001352  
2367.000000	0.001588  
2366.000000	0.001769  
2365.000000	0.001812  
2364.000000	0.001617  
2363.000000	0.001082  
2362.000000	0.000288  
2361.000000	-0.000399 
2360.000000	-0.000604 
2359.000000	-0.000277 
2358.000000	0.000338  
2357.000000	0.000895  
2356.000000	0.001134  
2355.000000	0.001075  
2354.000000	0.000980  
2353.000000	0.001002  
2352.000000	0.000989  
2351.000000	0.000823  
2350.000000	0.000663  
2349.000000	0.000719  
2348.000000	0.000976  
2347.000000	0.001139  
2346.000000	0.000954  
2345.000000	0.000523  
2344.000000	0.000110  
2343.000000	-0.000196 
2342.000000	-0.000375 
2341.000000	-0.000228 
2340.000000	0.000332  
2339.000000	0.001043  
2338.000000	0.001492  
2337.000000	0.001481  
2336.000000	0.001131  
2335.000000	0.000711  
2334.000000	0.000452  
2333.000000	0.000427  
2332.000000	0.000530  
2331.000000	0.000606  
2330.000000	0.000607  
2329.000000	0.000556  
2328.000000	0.000500  
2327.000000	0.000444  
2326.000000	0.000437  
2325.000000	0.000522  
2324.000000	0.000680  
2323.000000	0.000818  
2322.000000	0.000827  
2321.000000	0.000695  
2320.000000	0.000500  
2319.000000	0.000364  
2318.000000	0.000360  
2317.000000	0.000474  
2316.000000	0.000625  
2315.000000	0.000713  
2314.000000	0.000678  
2313.000000	0.000506  
2312.000000	0.000252  
2311.000000	0.000010  
2310.000000	-0.000117 
2309.000000	-0.000127 
2308.000000	-0.000081 
2307.000000	-0.000049 
2306.000000	-0.000025 
2305.000000	0.000010  
2304.000000	0.000049  
2303.000000	0.000043  
2302.000000	-0.000034 
2301.000000	-0.000175 
2300.000000	-0.000334 
2299.000000	-0.000462 
2298.000000	-0.000521 
2297.000000	-0.000519 
2296.000000	-0.000463 
2295.000000	-0.000327 
2294.000000	-0.000073 
2293.000000	0.000229  
2292.000000	0.000407  
2291.000000	0.000338  
2290.000000	0.000110  
2289.000000	-0.000057 
2288.000000	-0.000031 
2287.000000	0.000135  
2286.000000	0.000297  
2285.000000	0.000345  
2284.000000	0.000262  
2283.000000	0.000116  
2282.000000	0.000025  
2281.000000	0.000080  
2280.000000	0.000268  
2279.000000	0.000493  
2278.000000	0.000670  
2277.000000	0.000767  
2276.000000	0.000774  
2275.000000	0.000679  
2274.000000	0.000513  
2273.000000	0.000350  
2272.000000	0.000244  
2271.000000	0.000195  
2270.000000	0.000204  
2269.000000	0.000300  
2268.000000	0.000485  
2267.000000	0.000694  
2266.000000	0.000834  
2265.000000	0.000843  
2264.000000	0.000697  
2263.000000	0.000409  
2262.000000	0.000045  
2261.000000	-0.000253 
2260.000000	-0.000342 
2259.000000	-0.000200 
2258.000000	0.000021  
2257.000000	0.000109  
2256.000000	-0.000004 
2255.000000	-0.000157 
2254.000000	-0.000125 
2253.000000	0.000130  
2252.000000	0.000428  
2251.000000	0.000558  
2250.000000	0.000465  
2249.000000	0.000227  
2248.000000	-0.000026 
2247.000000	-0.000148 
2246.000000	-0.000014 
2245.000000	0.000353  
2244.000000	0.000751  
2243.000000	0.000958  
2242.000000	0.000915  
2241.000000	0.000702  
2240.000000	0.000421  
2239.000000	0.000189  
2238.000000	0.000144  
2237.000000	0.000321  
2236.000000	0.000533  
2235.000000	0.000529  
2234.000000	0.000266  
2233.000000	-0.000035 
2232.000000	-0.000129 
2231.000000	0.000042  
2230.000000	0.000346  
2229.000000	0.000564  
2228.000000	0.000533  
2227.000000	0.000275  
2226.000000	0.000006  
2225.000000	-0.000047 
2224.000000	0.000141  
2223.000000	0.000447  
2222.000000	0.000759  
2221.000000	0.001001  
2220.000000	0.001063  
2219.000000	0.000879  
2218.000000	0.000559  
2217.000000	0.000316  
2216.000000	0.000212  
2215.000000	0.000128  
2214.000000	-0.000004 
2213.000000	-0.000102 
2212.000000	-0.000103 
2211.000000	-0.000084 
2210.000000	-0.000100 
2209.000000	-0.000029 
2208.000000	0.000292  
2207.000000	0.000839  
2206.000000	0.001382  
2205.000000	0.001686  
2204.000000	0.001698  
2203.000000	0.001556  
2202.000000	0.001434  
2201.000000	0.001368  
2200.000000	0.001242  
2199.000000	0.000980  
2198.000000	0.000688  
2197.000000	0.000513  
2196.000000	0.000427  
2195.000000	0.000282  
2194.000000	0.000097  
2193.000000	0.000100  
2192.000000	0.000445  
2191.000000	0.001003  
2190.000000	0.001482  
2189.000000	0.001635  
2188.000000	0.001332  
2187.000000	0.000605  
2186.000000	-0.000265 
2185.000000	-0.000840 
2184.000000	-0.000885 
2183.000000	-0.000610 
2182.000000	-0.000427 
2181.000000	-0.000494 
2180.000000	-0.000578 
2179.000000	-0.000345 
2178.000000	0.000296  
2177.000000	0.001097  
2176.000000	0.001675  
2175.000000	0.001823  
2174.000000	0.001641  
2173.000000	0.001372  
2172.000000	0.001130  
2171.000000	0.000870  
2170.000000	0.000590  
2169.000000	0.000425  
2168.000000	0.000480  
2167.000000	0.000657  
2166.000000	0.000785  
2165.000000	0.000862  
2164.000000	0.001062  
2163.000000	0.001454  
2162.000000	0.001798  
2161.000000	0.001739  
2160.000000	0.001200  
2159.000000	0.000512  
2158.000000	0.000050  
2157.000000	-0.000119 
2156.000000	-0.000141 
2155.000000	-0.000069 
2154.000000	0.000142  
2153.000000	0.000443  
2152.000000	0.000685  
2151.000000	0.000813  
2150.000000	0.000893  
2149.000000	0.000923  
2148.000000	0.000796  
2147.000000	0.000524  
2146.000000	0.000328  
2145.000000	0.000376  
2144.000000	0.000566  
2143.000000	0.000690  
2142.000000	0.000706  
2141.000000	0.000700  
2140.000000	0.000697  
2139.000000	0.000653  
2138.000000	0.000563  
2137.000000	0.000446  
2136.000000	0.000267  
2135.000000	0.000027  
2134.000000	-0.000141 
2133.000000	-0.000117 
2132.000000	0.000007  
2131.000000	0.000022  
2130.000000	-0.000146 
2129.000000	-0.000359 
2128.000000	-0.000432 
2127.000000	-0.000281 
2126.000000	0.000071  
2125.000000	0.000501  
2124.000000	0.000819  
2123.000000	0.000903  
2122.000000	0.000833  
2121.000000	0.000786  
2120.000000	0.000816  
2119.000000	0.000821  
2118.000000	0.000724  
2117.000000	0.000565  
2116.000000	0.000419  
2115.000000	0.000322  
2114.000000	0.000310  
2113.000000	0.000415  
2112.000000	0.000577  
2111.000000	0.000664  
2110.000000	0.000629  
2109.000000	0.000558  
2108.000000	0.000516  
2107.000000	0.000453  
2106.000000	0.000319  
2105.000000	0.000175  
2104.000000	0.000123  
2103.000000	0.000171  
2102.000000	0.000249  
2101.000000	0.000304  
2100.000000	0.000328  
2099.000000	0.000321  
2098.000000	0.000302  
2097.000000	0.000329  
2096.000000	0.000455  
2095.000000	0.000669  
2094.000000	0.000897  
2093.000000	0.001042  
2092.000000	0.001033  
2091.000000	0.000873  
2090.000000	0.000663  
2089.000000	0.000523  
2088.000000	0.000491  
2087.000000	0.000532  
2086.000000	0.000618  
2085.000000	0.000736  
2084.000000	0.000825  
2083.000000	0.000787  
2082.000000	0.000592  
2081.000000	0.000316  
2080.000000	0.000069  
2079.000000	-0.000071 
2078.000000	-0.000063 
2077.000000	0.000069  
2076.000000	0.000188  
2075.000000	0.000129  
2074.000000	-0.000112 
2073.000000	-0.000363 
2072.000000	-0.000448 
2071.000000	-0.000348 
2070.000000	-0.000159 
2069.000000	0.000000  
2068.000000	0.000046  
2067.000000	-0.000016 
2066.000000	-0.000055 
2065.000000	0.000088  
2064.000000	0.000394  
2063.000000	0.000669  
2062.000000	0.000779  
2061.000000	0.000775  
2060.000000	0.000777  
2059.000000	0.000820  
2058.000000	0.000873  
2057.000000	0.000916  
2056.000000	0.000932  
2055.000000	0.000879  
2054.000000	0.000727  
2053.000000	0.000496  
2052.000000	0.000230  
2051.000000	0.000000  
2050.000000	-0.000079 
2049.000000	0.000067  
2048.000000	0.000340  
2047.000000	0.000536  
2046.000000	0.000604  
2045.000000	0.000691  
2044.000000	0.000880  
2043.000000	0.001035  
2042.000000	0.000984  
2041.000000	0.000763  
2040.000000	0.000565  
2039.000000	0.000513  
2038.000000	0.000576  
2037.000000	0.000635  
2036.000000	0.000553  
2035.000000	0.000289  
2034.000000	0.000019  
2033.000000	0.000043  
2032.000000	0.000459  
2031.000000	0.001022  
2030.000000	0.001379  
2029.000000	0.001375  
2028.000000	0.001101  
2027.000000	0.000755  
2026.000000	0.000512  
2025.000000	0.000435  
2024.000000	0.000423  
2023.000000	0.000319  
2022.000000	0.000114  
2021.000000	-0.000024 
2020.000000	0.000028  
2019.000000	0.000198  
2018.000000	0.000284  
2017.000000	0.000161  
2016.000000	-0.000128 
2015.000000	-0.000410 
2014.000000	-0.000488 
2013.000000	-0.000305 
2012.000000	-0.000014 
2011.000000	0.000189  
2010.000000	0.000307  
2009.000000	0.000469  
2008.000000	0.000655  
2007.000000	0.000679  
2006.000000	0.000511  
2005.000000	0.000364  
2004.000000	0.000365  
2003.000000	0.000329  
2002.000000	0.000013  
2001.000000	-0.000502 
2000.000000	-0.000839 
1999.000000	-0.000699 
1998.000000	-0.000139 
1997.000000	0.000497  
1996.000000	0.000858  
1995.000000	0.000810  
1994.000000	0.000479  
1993.000000	0.000180  
1992.000000	0.000202  
1991.000000	0.000557  
1990.000000	0.000979  
1989.000000	0.001177  
1988.000000	0.001074  
1987.000000	0.000840  
1986.000000	0.000683  
1985.000000	0.000603  
1984.000000	0.000454  
1983.000000	0.000228  
1982.000000	0.000127  
1981.000000	0.000259  
1980.000000	0.000419  
1979.000000	0.000341  
1978.000000	0.000036  
1977.000000	-0.000307 
1976.000000	-0.000632 
1975.000000	-0.000954 
1974.000000	-0.001113 
1973.000000	-0.000932 
1972.000000	-0.000542 
1971.000000	-0.000236 
1970.000000	-0.000060 
1969.000000	0.000170  
1968.000000	0.000459  
1967.000000	0.000578  
1966.000000	0.000493  
1965.000000	0.000480  
1964.000000	0.000687  
1963.000000	0.000959  
1962.000000	0.001156  
1961.000000	0.001353  
1960.000000	0.001590  
1959.000000	0.001677  
1958.000000	0.001431  
1957.000000	0.000940  
1956.000000	0.000438  
1955.000000	0.000070  
1954.000000	-0.000096 
1953.000000	0.000000  
1952.000000	0.000294  
1951.000000	0.000504  
1950.000000	0.000402  
1949.000000	0.000115  
1948.000000	-0.000002 
1947.000000	0.000212  
1946.000000	0.000578  
1945.000000	0.000797  
1944.000000	0.000738  
1943.000000	0.000499  
1942.000000	0.000277  
1941.000000	0.000201  
1940.000000	0.000267  
1939.000000	0.000413  
1938.000000	0.000577  
1937.000000	0.000716  
1936.000000	0.000788  
1935.000000	0.000762  
1934.000000	0.000648  
1933.000000	0.000502  
1932.000000	0.000385  
1931.000000	0.000332  
1930.000000	0.000368  
1929.000000	0.000481  
1928.000000	0.000590  
1927.000000	0.000617  
1926.000000	0.000604  
1925.000000	0.000681  
1924.000000	0.000892  
1923.000000	0.001095  
1922.000000	0.001137  
1921.000000	0.001052  
1920.000000	0.000972  
1919.000000	0.000963  
1918.000000	0.001020  
1917.000000	0.001078  
1916.000000	0.001053  
1915.000000	0.000910  
1914.000000	0.000704  
1913.000000	0.000564  
1912.000000	0.000578  
1911.000000	0.000699  
1910.000000	0.000820  
1909.000000	0.000892  
1908.000000	0.000910  
1907.000000	0.000840  
1906.000000	0.000649  
1905.000000	0.000400  
1904.000000	0.000227  
1903.000000	0.000208  
1902.000000	0.000308  
1901.000000	0.000422  
1900.000000	0.000465  
1899.000000	0.000426  
1898.000000	0.000354  
1897.000000	0.000295  
1896.000000	0.000254  
1895.000000	0.000232  
1894.000000	0.000274  
1893.000000	0.000433  
1892.000000	0.000682  
1891.000000	0.000915  
1890.000000	0.001018  
1889.000000	0.000949  
1888.000000	0.000760  
1887.000000	0.000543  
1886.000000	0.000387  
1885.000000	0.000331  
1884.000000	0.000332  
1883.000000	0.000316  
1882.000000	0.000283  
1881.000000	0.000291  
1880.000000	0.000342  
1879.000000	0.000375  
1878.000000	0.000371  
1877.000000	0.000383  
1876.000000	0.000449  
1875.000000	0.000538  
1874.000000	0.000621  
1873.000000	0.000708  
1872.000000	0.000768  
1871.000000	0.000706  
1870.000000	0.000502  
1869.000000	0.000355  
1868.000000	0.000442  
1867.000000	0.000635  
1866.000000	0.000742  
1865.000000	0.000734  
1864.000000	0.000658  
1863.000000	0.000555  
1862.000000	0.000457  
1861.000000	0.000405  
1860.000000	0.000393  
1859.000000	0.000357  
1858.000000	0.000256  
1857.000000	0.000146  
1856.000000	0.000122  
1855.000000	0.000208  
1854.000000	0.000365  
1853.000000	0.000537  
1852.000000	0.000661  
1851.000000	0.000693  
1850.000000	0.000647  
1849.000000	0.000588  
1848.000000	0.000582  
1847.000000	0.000617  
1846.000000	0.000631  
1845.000000	0.000608  
1844.000000	0.000585  
1843.000000	0.000557  
1842.000000	0.000519  
1841.000000	0.000502  
1840.000000	0.000477  
1839.000000	0.000388  
1838.000000	0.000253  
1837.000000	0.000179  
1836.000000	0.000241  
1835.000000	0.000379  
1834.000000	0.000489  
1833.000000	0.000537  
1832.000000	0.000544  
1831.000000	0.000521  
1830.000000	0.000464  
1829.000000	0.000391  
1828.000000	0.000348  
1827.000000	0.000357  
1826.000000	0.000400  
1825.000000	0.000452  
1824.000000	0.000491  
1823.000000	0.000496  
1822.000000	0.000460  
1821.000000	0.000390  
1820.000000	0.000314  
1819.000000	0.000268  
1818.000000	0.000277  
1817.000000	0.000357  
1816.000000	0.000486  
1815.000000	0.000608  
1814.000000	0.000682  
1813.000000	0.000691  
1812.000000	0.000644  
1811.000000	0.000566  
1810.000000	0.000509  
1809.000000	0.000519  
1808.000000	0.000557  
1807.000000	0.000543  
1806.000000	0.000484  
1805.000000	0.000493  
1804.000000	0.000638  
1803.000000	0.000836  
1802.000000	0.000942  
1801.000000	0.000912  
1800.000000	0.000849  
1799.000000	0.000843  
1798.000000	0.000896  
1797.000000	0.000991  
1796.000000	0.001112  
1795.000000	0.001225  
1794.000000	0.001292  
1793.000000	0.001317  
1792.000000	0.001312  
1791.000000	0.001217  
1790.000000	0.001040  
1789.000000	0.000920  
1788.000000	0.000939  
1787.000000	0.001052  
1786.000000	0.001168  
1785.000000	0.001237  
1784.000000	0.001281  
1783.000000	0.001340  
1782.000000	0.001431  
1781.000000	0.001536  
1780.000000	0.001635  
1779.000000	0.001701  
1778.000000	0.001714  
1777.000000	0.001691  
1776.000000	0.001652  
1775.000000	0.001619  
1774.000000	0.001596  
1773.000000	0.001633  
1772.000000	0.001796  
1771.000000	0.001984  
1770.000000	0.002079  
1769.000000	0.002110  
1768.000000	0.002117  
1767.000000	0.002096  
1766.000000	0.002102  
1765.000000	0.002240  
1764.000000	0.002540  
1763.000000	0.002916  
1762.000000	0.003231  
1761.000000	0.003459  
1760.000000	0.003735  
1759.000000	0.004146  
1758.000000	0.004649  
1757.000000	0.005171  
1756.000000	0.005661  
1755.000000	0.006145  
1754.000000	0.006744  
1753.000000	0.007623  
1752.000000	0.008978  
1751.000000	0.010909  
1750.000000	0.013424  
1749.000000	0.016647  
1748.000000	0.020462  
1747.000000	0.024375  
1746.000000	0.028210  
1745.000000	0.032208  
1744.000000	0.036279  
1743.000000	0.039696  
1742.000000	0.041866  
1741.000000	0.042738  
1740.000000	0.042341  
1739.000000	0.040866  
1738.000000	0.038977  
1737.000000	0.037096  
1736.000000	0.034870  
1735.000000	0.031449  
1734.000000	0.027274  
1733.000000	0.024196  
1732.000000	0.022552  
1731.000000	0.021565  
1730.000000	0.020826  
1729.000000	0.020253  
1728.000000	0.019898  
1727.000000	0.019787  
1726.000000	0.019899  
1725.000000	0.020126  
1724.000000	0.020353  
1723.000000	0.020505  
1722.000000	0.020566  
1721.000000	0.020537  
1720.000000	0.020361  
1719.000000	0.019945  
1718.000000	0.019251  
1717.000000	0.018328  
1716.000000	0.017225  
1715.000000	0.016038  
1714.000000	0.014900  
1713.000000	0.013866  
1712.000000	0.012898  
1711.000000	0.011931  
1710.000000	0.010965  
1709.000000	0.010056  
1708.000000	0.009228  
1707.000000	0.008441  
1706.000000	0.007680  
1705.000000	0.007032  
1704.000000	0.006566  
1703.000000	0.006275  
1702.000000	0.006046  
1701.000000	0.005672  
1700.000000	0.005085  
1699.000000	0.004531  
1698.000000	0.004306  
1697.000000	0.004331  
1696.000000	0.004289  
1695.000000	0.004030  
1694.000000	0.003726  
1693.000000	0.003604  
1692.000000	0.003606  
1691.000000	0.003560  
1690.000000	0.003421  
1689.000000	0.003252  
1688.000000	0.003120  
1687.000000	0.003075  
1686.000000	0.003076  
1685.000000	0.003071  
1684.000000	0.003071  
1683.000000	0.003017  
1682.000000	0.002986  
1681.000000	0.003066  
1680.000000	0.003111  
1679.000000	0.003051  
1678.000000	0.002994  
1677.000000	0.003010  
1676.000000	0.003034  
1675.000000	0.002965  
1674.000000	0.002826  
1673.000000	0.002732  
1672.000000	0.002707  
1671.000000	0.002687  
1670.000000	0.002723  
1669.000000	0.002824  
1668.000000	0.002858  
1667.000000	0.002828  
1666.000000	0.002837  
1665.000000	0.002906  
1664.000000	0.003006  
1663.000000	0.003115  
1662.000000	0.003230  
1661.000000	0.003324  
1660.000000	0.003400  
1659.000000	0.003472  
1658.000000	0.003553  
1657.000000	0.003618  
1656.000000	0.003633  
1655.000000	0.003484  
1654.000000	0.003282  
1653.000000	0.003503  
1652.000000	0.003755  
1651.000000	0.003756  
1650.000000	0.003809  
1649.000000	0.003834  
1648.000000	0.003718  
1647.000000	0.003645  
1646.000000	0.003768  
1645.000000	0.003903  
1644.000000	0.003943  
1643.000000	0.003921  
1642.000000	0.003880  
1641.000000	0.003849  
1640.000000	0.003795  
1639.000000	0.003682  
1638.000000	0.003536  
1637.000000	0.003476  
1636.000000	0.003581  
1635.000000	0.003642  
1634.000000	0.003510  
1633.000000	0.003386  
1632.000000	0.003359  
1631.000000	0.003329  
1630.000000	0.003246  
1629.000000	0.003158  
1628.000000	0.003120  
1627.000000	0.003113  
1626.000000	0.003099  
1625.000000	0.003062  
1624.000000	0.003003  
1623.000000	0.002944  
1622.000000	0.002905  
1621.000000	0.002896  
1620.000000	0.002918  
1619.000000	0.002939  
1618.000000	0.002931  
1617.000000	0.002944  
1616.000000	0.002976  
1615.000000	0.002953  
1614.000000	0.002912  
1613.000000	0.002901  
1612.000000	0.002877  
1611.000000	0.002806  
1610.000000	0.002726  
1609.000000	0.002690  
1608.000000	0.002702  
1607.000000	0.002736  
1606.000000	0.002795  
1605.000000	0.002866  
1604.000000	0.002903  
1603.000000	0.002858  
1602.000000	0.002741  
1601.000000	0.002604  
1600.000000	0.002480  
1599.000000	0.002371  
1598.000000	0.002291  
1597.000000	0.002262  
1596.000000	0.002294  
1595.000000	0.002370  
1594.000000	0.002458  
1593.000000	0.002532  
1592.000000	0.002583  
1591.000000	0.002624  
1590.000000	0.002679  
1589.000000	0.002736  
1588.000000	0.002766  
1587.000000	0.002773  
1586.000000	0.002794  
1585.000000	0.002844  
1584.000000	0.002891  
1583.000000	0.002924  
1582.000000	0.002958  
1581.000000	0.002986  
1580.000000	0.002973  
1579.000000	0.002909  
1578.000000	0.002821  
1577.000000	0.002800  
1576.000000	0.002907  
1575.000000	0.003001  
1574.000000	0.003016  
1573.000000	0.003036  
1572.000000	0.003061  
1571.000000	0.003053  
1570.000000	0.003081  
1569.000000	0.003192  
1568.000000	0.003268  
1567.000000	0.003268  
1566.000000	0.003234  
1565.000000	0.003184  
1564.000000	0.003109  
1563.000000	0.003030  
1562.000000	0.002991  
1561.000000	0.002971  
1560.000000	0.002880  
1559.000000	0.002790  
1558.000000	0.002764  
1557.000000	0.002732  
1556.000000	0.002821  
1555.000000	0.002918  
1554.000000	0.002886  
1553.000000	0.002793  
1552.000000	0.002749  
1551.000000	0.002755  
1550.000000	0.002729  
1549.000000	0.002664  
1548.000000	0.002616  
1547.000000	0.002635  
1546.000000	0.002719  
1545.000000	0.002844  
1544.000000	0.002917  
1543.000000	0.002819  
1542.000000	0.002611  
1541.000000	0.002628  
1540.000000	0.003020  
1539.000000	0.003253  
1538.000000	0.003169  
1537.000000	0.003106  
1536.000000	0.003141  
1535.000000	0.003168  
1534.000000	0.003210  
1533.000000	0.003310  
1532.000000	0.003362  
1531.000000	0.003331  
1530.000000	0.003295  
1529.000000	0.003301  
1528.000000	0.003331  
1527.000000	0.003323  
1526.000000	0.003286  
1525.000000	0.003317  
1524.000000	0.003461  
1523.000000	0.003666  
1522.000000	0.003924  
1521.000000	0.004183  
1520.000000	0.004246  
1519.000000	0.004201  
1518.000000	0.004246  
1517.000000	0.004407  
1516.000000	0.004525  
1515.000000	0.004516  
1514.000000	0.004563  
1513.000000	0.004784  
1512.000000	0.005101  
1511.000000	0.005375  
1510.000000	0.005592  
1509.000000	0.005818  
1508.000000	0.005947  
1507.000000	0.005816  
1506.000000	0.005752  
1505.000000	0.005906  
1504.000000	0.006180  
1503.000000	0.006469  
1502.000000	0.006698  
1501.000000	0.006893  
1500.000000	0.007048  
1499.000000	0.007138  
1498.000000	0.007273  
1497.000000	0.007622  
1496.000000	0.008011  
1495.000000	0.008170  
1494.000000	0.008239  
1493.000000	0.008424  
1492.000000	0.008725  
1491.000000	0.009109  
1490.000000	0.009699  
1489.000000	0.010488  
1488.000000	0.011178  
1487.000000	0.011677  
1486.000000	0.012179  
1485.000000	0.012824  
1484.000000	0.013593  
1483.000000	0.014520  
1482.000000	0.015727  
1481.000000	0.017166  
1480.000000	0.018552  
1479.000000	0.019783  
1478.000000	0.021097  
1477.000000	0.022700  
1476.000000	0.024454  
1475.000000	0.026354  
1474.000000	0.029515  
1473.000000	0.035412  
1472.000000	0.042755  
1471.000000	0.049016  
1470.000000	0.054256  
1469.000000	0.059221  
1468.000000	0.063873  
1467.000000	0.067907  
1466.000000	0.071239  
1465.000000	0.073746  
1464.000000	0.075130  
1463.000000	0.075628  
1462.000000	0.075843  
1461.000000	0.076057  
1460.000000	0.076284  
1459.000000	0.076703  
1458.000000	0.077603  
1457.000000	0.077911  
1456.000000	0.076152  
1455.000000	0.073409  
1454.000000	0.070701  
1453.000000	0.067972  
1452.000000	0.065179  
1451.000000	0.062591  
1450.000000	0.060312  
1449.000000	0.058008  
1448.000000	0.055393  
1447.000000	0.052682  
1446.000000	0.050160  
1445.000000	0.047748  
1444.000000	0.045333  
1443.000000	0.042994  
1442.000000	0.040863  
1441.000000	0.038990  
1440.000000	0.037392  
1439.000000	0.036051  
1438.000000	0.034766  
1437.000000	0.033268  
1436.000000	0.031679  
1435.000000	0.030416  
1434.000000	0.029462  
1433.000000	0.028476  
1432.000000	0.027258  
1431.000000	0.025891  
1430.000000	0.024532  
1429.000000	0.023278  
1428.000000	0.022260  
1427.000000	0.021572  
1426.000000	0.021143  
1425.000000	0.020783  
1424.000000	0.020425  
1423.000000	0.020154  
1422.000000	0.019992  
1421.000000	0.019837  
1420.000000	0.019601  
1419.000000	0.019282  
1418.000000	0.018851  
1417.000000	0.018344  
1416.000000	0.017899  
1415.000000	0.017568  
1414.000000	0.017285  
1413.000000	0.016986  
1412.000000	0.016710  
1411.000000	0.016539  
1410.000000	0.016452  
1409.000000	0.016367  
1408.000000	0.016287  
1407.000000	0.016275  
1406.000000	0.016352  
1405.000000	0.016471  
1404.000000	0.016610  
1403.000000	0.016806  
1402.000000	0.017075  
1401.000000	0.017408  
1400.000000	0.017815  
1399.000000	0.018271  
1398.000000	0.018660  
1397.000000	0.018941  
1396.000000	0.019180  
1395.000000	0.019414  
1394.000000	0.019605  
1393.000000	0.019773  
1392.000000	0.020041  
1391.000000	0.020480  
1390.000000	0.021113  
1389.000000	0.022050  
1388.000000	0.023479  
1387.000000	0.025338  
1386.000000	0.027270  
1385.000000	0.029193  
1384.000000	0.031372  
1383.000000	0.034025  
1382.000000	0.037139  
1381.000000	0.040517  
1380.000000	0.043769  
1379.000000	0.046248  
1378.000000	0.047358  
1377.000000	0.046953  
1376.000000	0.045167  
1375.000000	0.042162  
1374.000000	0.038518  
1373.000000	0.035243  
1372.000000	0.032880  
1371.000000	0.031301  
1370.000000	0.030239  
1369.000000	0.029534  
1368.000000	0.029080  
1367.000000	0.028722  
1366.000000	0.028281  
1365.000000	0.027610  
1364.000000	0.026631  
1363.000000	0.025425  
1362.000000	0.024265  
1361.000000	0.023377  
1360.000000	0.022780  
1359.000000	0.022395  
1358.000000	0.022143  
1357.000000	0.021965  
1356.000000	0.021820  
1355.000000	0.021695  
1354.000000	0.021597  
1353.000000	0.021531  
1352.000000	0.021486  
1351.000000	0.021426  
1350.000000	0.021315  
1349.000000	0.021144  
1348.000000	0.020957  
1347.000000	0.020802  
1346.000000	0.020682  
1345.000000	0.020576  
1344.000000	0.020502  
1343.000000	0.020508  
1342.000000	0.020597  
1341.000000	0.020675  
1340.000000	0.020579  
1339.000000	0.020216  
1338.000000	0.019693  
1337.000000	0.019198  
1336.000000	0.018825  
1335.000000	0.018554  
1334.000000	0.018317  
1333.000000	0.018080  
1332.000000	0.017884  
1331.000000	0.017786  
1330.000000	0.017778  
1329.000000	0.017784  
1328.000000	0.017760  
1327.000000	0.017734  
1326.000000	0.017750  
1325.000000	0.017801  
1324.000000	0.017864  
1323.000000	0.017929  
1322.000000	0.017986  
1321.000000	0.018012  
1320.000000	0.018008  
1319.000000	0.018005  
1318.000000	0.018033  
1317.000000	0.018096  
1316.000000	0.018193  
1315.000000	0.018326  
1314.000000	0.018468  
1313.000000	0.018570  
1312.000000	0.018621  
1311.000000	0.018664  
1310.000000	0.018734  
1309.000000	0.018815  
1308.000000	0.018866  
1307.000000	0.018875  
1306.000000	0.018854  
1305.000000	0.018818  
1304.000000	0.018782  
1303.000000	0.018751  
1302.000000	0.018700  
1301.000000	0.018589  
1300.000000	0.018412  
1299.000000	0.018224  
1298.000000	0.018088  
1297.000000	0.018017  
1296.000000	0.017975  
1295.000000	0.017928  
1294.000000	0.017854  
1293.000000	0.017742  
1292.000000	0.017601  
1291.000000	0.017462  
1290.000000	0.017364  
1289.000000	0.017326  
1288.000000	0.017341  
1287.000000	0.017395  
1286.000000	0.017481  
1285.000000	0.017595  
1284.000000	0.017731  
1283.000000	0.017863  
1282.000000	0.017956  
1281.000000	0.018016  
1280.000000	0.018093  
1279.000000	0.018224  
1278.000000	0.018382  
1277.000000	0.018517  
1276.000000	0.018626  
1275.000000	0.018744  
1274.000000	0.018870  
1273.000000	0.018961  
1272.000000	0.019008  
1271.000000	0.019050  
1270.000000	0.019093  
1269.000000	0.019080  
1268.000000	0.018986  
1267.000000	0.018893  
1266.000000	0.018907  
1265.000000	0.019028  
1264.000000	0.019173  
1263.000000	0.019289  
1262.000000	0.019408  
1261.000000	0.019576  
1260.000000	0.019784  
1259.000000	0.019981  
1258.000000	0.020133  
1257.000000	0.020251  
1256.000000	0.020381  
1255.000000	0.020578  
1254.000000	0.020867  
1253.000000	0.021211  
1252.000000	0.021544  
1251.000000	0.021836  
1250.000000	0.022112  
1249.000000	0.022396  
1248.000000	0.022667  
1247.000000	0.022883  
1246.000000	0.023030  
1245.000000	0.023111  
1244.000000	0.023113  
1243.000000	0.023005  
1242.000000	0.022789  
1241.000000	0.022511  
1240.000000	0.022217  
1239.000000	0.021901  
1238.000000	0.021530  
1237.000000	0.021100  
1236.000000	0.020667  
1235.000000	0.020296  
1234.000000	0.020006  
1233.000000	0.019769  
1232.000000	0.019560  
1231.000000	0.019381  
1230.000000	0.019238  
1229.000000	0.019121  
1228.000000	0.019022  
1227.000000	0.018951  
1226.000000	0.018916  
1225.000000	0.018920  
1224.000000	0.018966  
1223.000000	0.019069  
1222.000000	0.019239  
1221.000000	0.019464  
1220.000000	0.019729  
1219.000000	0.020016  
1218.000000	0.020299  
1217.000000	0.020541  
1216.000000	0.020727  
1215.000000	0.020880  
1214.000000	0.021025  
1213.000000	0.021155  
1212.000000	0.021239  
1211.000000	0.021274  
1210.000000	0.021313  
1209.000000	0.021427  
1208.000000	0.021638  
1207.000000	0.021906  
1206.000000	0.022172  
1205.000000	0.022418  
1204.000000	0.022665  
1203.000000	0.022928  
1202.000000	0.023195  
1201.000000	0.023453  
1200.000000	0.023720  
1199.000000	0.024029  
1198.000000	0.024385  
1197.000000	0.024767  
1196.000000	0.025169  
1195.000000	0.025608  
1194.000000	0.026090  
1193.000000	0.026588  
1192.000000	0.027063  
1191.000000	0.027492  
1190.000000	0.027881  
1189.000000	0.028252  
1188.000000	0.028638  
1187.000000	0.029065  
1186.000000	0.029528  
1185.000000	0.029999  
1184.000000	0.030455  
1183.000000	0.030881  
1182.000000	0.031252  
1181.000000	0.031529  
1180.000000	0.031698  
1179.000000	0.031794  
1178.000000	0.031869  
1177.000000	0.031928  
1176.000000	0.031927  
1175.000000	0.031824  
1174.000000	0.031622  
1173.000000	0.031347  
1172.000000	0.031026  
1171.000000	0.030670  
1170.000000	0.030277  
1169.000000	0.029838  
1168.000000	0.029362  
1167.000000	0.028880  
1166.000000	0.028400  
1165.000000	0.027861  
1164.000000	0.027176  
1163.000000	0.026340  
1162.000000	0.025454  
1161.000000	0.024642  
1160.000000	0.023975  
1159.000000	0.023442  
1158.000000	0.022969  
1157.000000	0.022461  
1156.000000	0.021891  
1155.000000	0.021347  
1154.000000	0.020940  
1153.000000	0.020667  
1152.000000	0.020397  
1151.000000	0.020027  
1150.000000	0.019592  
1149.000000	0.019200  
1148.000000	0.018906  
1147.000000	0.018681  
1146.000000	0.018467  
1145.000000	0.018225  
1144.000000	0.017933  
1143.000000	0.017586  
1142.000000	0.017216  
1141.000000	0.016874  
1140.000000	0.016595  
1139.000000	0.016373  
1138.000000	0.016181  
1137.000000	0.015989  
1136.000000	0.015776  
1135.000000	0.015554  
1134.000000	0.015358  
1133.000000	0.015230  
1132.000000	0.015178  
1131.000000	0.015173  
1130.000000	0.015197  
1129.000000	0.015283  
1128.000000	0.015506  
1127.000000	0.015926  
1126.000000	0.016536  
1125.000000	0.017282  
1124.000000	0.018103  
1123.000000	0.018964  
1122.000000	0.019856  
1121.000000	0.020783  
1120.000000	0.021740  
1119.000000	0.022685  
1118.000000	0.023536  
1117.000000	0.024202  
1116.000000	0.024622  
1115.000000	0.024776  
1114.000000	0.024689  
1113.000000	0.024421  
1112.000000	0.024044  
1111.000000	0.023620  
1110.000000	0.023188  
1109.000000	0.022775  
1108.000000	0.022407  
1107.000000	0.022096  
1106.000000	0.021808  
1105.000000	0.021494  
1104.000000	0.021150  
1103.000000	0.020830  
1102.000000	0.020581  
1101.000000	0.020389  
1100.000000	0.020209  
1099.000000	0.020030  
1098.000000	0.019884  
1097.000000	0.019802  
1096.000000	0.019774  
1095.000000	0.019766  
1094.000000	0.019755  
1093.000000	0.019770  
1092.000000	0.019893  
1091.000000	0.020213  
1090.000000	0.020757  
1089.000000	0.021489  
1088.000000	0.022387  
1087.000000	0.023489  
1086.000000	0.024855  
1085.000000	0.026508  
1084.000000	0.028446  
1083.000000	0.030665  
1082.000000	0.033146  
1081.000000	0.035828  
1080.000000	0.038639  
1079.000000	0.041548  
1078.000000	0.044549  
1077.000000	0.047565  
1076.000000	0.050414  
1075.000000	0.052875  
1074.000000	0.054779  
1073.000000	0.055988  
1072.000000	0.056350  
1071.000000	0.055780  
1070.000000	0.054383  
1069.000000	0.052438  
1068.000000	0.050267  
1067.000000	0.048169  
1066.000000	0.046407  
1065.000000	0.045159  
1064.000000	0.044448  
1063.000000	0.044133  
1062.000000	0.043949  
1061.000000	0.043578  
1060.000000	0.042755  
1059.000000	0.041404  
1058.000000	0.039695  
1057.000000	0.037944  
1056.000000	0.036446  
1055.000000	0.035404  
1054.000000	0.034941  
1053.000000	0.035107  
1052.000000	0.035870  
1051.000000	0.037118  
1050.000000	0.038657  
1049.000000	0.040213  
1048.000000	0.041503  
1047.000000	0.042379  
1046.000000	0.042879  
1045.000000	0.043116  
1044.000000	0.043156  
1043.000000	0.043020  
1042.000000	0.042747  
1041.000000	0.042377  
1040.000000	0.041897  
1039.000000	0.041274  
1038.000000	0.040538  
1037.000000	0.039796  
1036.000000	0.039183  
1035.000000	0.038862  
1034.000000	0.039032  
1033.000000	0.039829  
1032.000000	0.041161  
1031.000000	0.042630  
1030.000000	0.043659  
1029.000000	0.043739  
1028.000000	0.042644  
1027.000000	0.040529  
1026.000000	0.037854  
1025.000000	0.035118  
1024.000000	0.032639  
1023.000000	0.030516  
1022.000000	0.028740  
1021.000000	0.027284  
1020.000000	0.026133  
1019.000000	0.025297  
1018.000000	0.024819  
1017.000000	0.024755  
1016.000000	0.025117  
1015.000000	0.025838  
1014.000000	0.026777  
1013.000000	0.027734  
1012.000000	0.028472  
1011.000000	0.028769  
1010.000000	0.028504  
1009.000000	0.027700  
1008.000000	0.026489  
1007.000000	0.025044  
1006.000000	0.023524  
1005.000000	0.022059  
1004.000000	0.020748  
1003.000000	0.019661  
1002.000000	0.018806  
1001.000000	0.018142  
1000.000000	0.017656  
999.000000	 0.017439  
998.000000	 0.017629  
997.000000	 0.018272  
996.000000	 0.019250  
995.000000	 0.020361  
994.000000	 0.021421  
993.000000	 0.022278  
992.000000	 0.022785  
991.000000	 0.022836  
990.000000	 0.022439  
989.000000	 0.021698  
988.000000	 0.020724  
987.000000	 0.019609  
986.000000	 0.018462  
985.000000	 0.017407  
984.000000	 0.016523  
983.000000	 0.015830  
982.000000	 0.015323  
981.000000	 0.014999  
980.000000	 0.014823  
979.000000	 0.014729  
978.000000	 0.014679  
977.000000	 0.014709  
976.000000	 0.014888  
975.000000	 0.015242  
974.000000	 0.015729  
973.000000	 0.016276  
972.000000	 0.016824  
971.000000	 0.017354  
970.000000	 0.017897  
969.000000	 0.018499  
968.000000	 0.019161  
967.000000	 0.019815  
966.000000	 0.020372  
965.000000	 0.020776  
964.000000	 0.021021  
963.000000	 0.021144  
962.000000	 0.021241  
961.000000	 0.021444  
960.000000	 0.021849  
959.000000	 0.022455  
958.000000	 0.023210  
957.000000	 0.024094  
956.000000	 0.025107  
955.000000	 0.026185  
954.000000	 0.027148  
953.000000	 0.027753  
952.000000	 0.027805  
951.000000	 0.027264  
950.000000	 0.026271  
949.000000	 0.025072  
948.000000	 0.023864  
947.000000	 0.022712  
946.000000	 0.021605  
945.000000	 0.020561  
944.000000	 0.019639  
943.000000	 0.018860  
942.000000	 0.018148  
941.000000	 0.017393  
940.000000	 0.016549  
939.000000	 0.015654  
938.000000	 0.014767  
937.000000	 0.013930  
936.000000	 0.013180  
935.000000	 0.012564  
934.000000	 0.012102  
933.000000	 0.011759  
932.000000	 0.011469  
931.000000	 0.011170  
930.000000	 0.010841  
929.000000	 0.010514  
928.000000	 0.010260  
927.000000	 0.010150  
926.000000	 0.010177  
925.000000	 0.010257  
924.000000	 0.010311  
923.000000	 0.010339  
922.000000	 0.010390  
921.000000	 0.010485  
920.000000	 0.010579  
919.000000	 0.010622  
918.000000	 0.010595  
917.000000	 0.010514  
916.000000	 0.010427  
915.000000	 0.010396  
914.000000	 0.010460  
913.000000	 0.010570  
912.000000	 0.010619  
911.000000	 0.010548  
910.000000	 0.010434  
909.000000	 0.010417  
908.000000	 0.010565  
907.000000	 0.010830  
906.000000	 0.011114  
905.000000	 0.011359  
904.000000	 0.011568  
903.000000	 0.011783  
902.000000	 0.012036  
901.000000	 0.012281  
900.000000	 0.012377  
899.000000	 0.012196  
898.000000	 0.011761  
897.000000	 0.011256  
896.000000	 0.010868  
895.000000	 0.010651  
894.000000	 0.010544  
893.000000	 0.010480  
892.000000	 0.010438  
891.000000	 0.010414  
890.000000	 0.010404  
889.000000	 0.010402  
888.000000	 0.010396  
887.000000	 0.010353  
886.000000	 0.010249  
885.000000	 0.010113  
884.000000	 0.010034  
883.000000	 0.010090  
882.000000	 0.010282  
881.000000	 0.010524  
880.000000	 0.010691  
879.000000	 0.010700  
878.000000	 0.010564  
877.000000	 0.010379  
876.000000	 0.010230  
875.000000	 0.010138  
874.000000	 0.010086  
873.000000	 0.010070  
872.000000	 0.010084  
871.000000	 0.010084  
870.000000	 0.010042  
869.000000	 0.010009  
868.000000	 0.010081  
867.000000	 0.010275  
866.000000	 0.010494  
865.000000	 0.010652  
864.000000	 0.010773  
863.000000	 0.010955  
862.000000	 0.011238  
861.000000	 0.011556  
860.000000	 0.011828  
859.000000	 0.012066  
858.000000	 0.012382  
857.000000	 0.012889  
856.000000	 0.013590  
855.000000	 0.014395  
854.000000	 0.015249  
853.000000	 0.016219  
852.000000	 0.017423  
851.000000	 0.018859  
850.000000	 0.020342  
849.000000	 0.021618  
848.000000	 0.022494  
847.000000	 0.022882  
846.000000	 0.022768  
845.000000	 0.022203  
844.000000	 0.021289  
843.000000	 0.020151  
842.000000	 0.018909  
841.000000	 0.017671  
840.000000	 0.016542  
839.000000	 0.015586  
838.000000	 0.014793  
837.000000	 0.014116  
836.000000	 0.013542  
835.000000	 0.013111  
834.000000	 0.012840  
833.000000	 0.012686  
832.000000	 0.012592  
831.000000	 0.012543  
830.000000	 0.012536  
829.000000	 0.012520  
828.000000	 0.012433  
827.000000	 0.012304  
826.000000	 0.012238  
825.000000	 0.012270  
824.000000	 0.012307  
823.000000	 0.012268  
822.000000	 0.012214  
821.000000	 0.012240  
820.000000	 0.012330  
819.000000	 0.012388  
818.000000	 0.012388  
817.000000	 0.012404  
816.000000	 0.012500  
815.000000	 0.012656  
814.000000	 0.012819  
813.000000	 0.012975  
812.000000	 0.013140  
811.000000	 0.013313  
810.000000	 0.013479  
809.000000	 0.013650  
808.000000	 0.013853  
807.000000	 0.014080  
806.000000	 0.014265  
805.000000	 0.014320  
804.000000	 0.014185  
803.000000	 0.013868  
802.000000	 0.013449  
801.000000	 0.013033  
800.000000	 0.012691  
799.000000	 0.012449  
798.000000	 0.012326  
797.000000	 0.012342  
796.000000	 0.012448  
795.000000	 0.012512  
794.000000	 0.012434  
793.000000	 0.012260  
792.000000	 0.012144  
791.000000	 0.012186  
790.000000	 0.012383  
789.000000	 0.012695  
788.000000	 0.013110  
787.000000	 0.013597  
786.000000	 0.014075  
785.000000	 0.014467  
784.000000	 0.014767  
783.000000	 0.015021  
782.000000	 0.015260  
781.000000	 0.015472  
780.000000	 0.015633  
779.000000	 0.015735  
778.000000	 0.015810  
777.000000	 0.015939  
776.000000	 0.016199  
775.000000	 0.016589  
774.000000	 0.017002  
773.000000	 0.017331  
772.000000	 0.017577  
771.000000	 0.017851  
770.000000	 0.018247  
769.000000	 0.018750  
768.000000	 0.019240  
767.000000	 0.019592  
766.000000	 0.019755  
765.000000	 0.019783  
764.000000	 0.019779  
763.000000	 0.019808  
762.000000	 0.019860  
761.000000	 0.019896  
760.000000	 0.019934  
759.000000	 0.020062  
758.000000	 0.020371  
757.000000	 0.020885  
756.000000	 0.021545  
755.000000	 0.022240  
754.000000	 0.022847  
753.000000	 0.023299  
752.000000	 0.023652  
751.000000	 0.024062  
750.000000	 0.024645  
749.000000	 0.025363  
748.000000	 0.026083  
747.000000	 0.026778  
746.000000	 0.027606  
745.000000	 0.028748  
744.000000	 0.030190  
743.000000	 0.031719  
742.000000	 0.033104  
741.000000	 0.034253  
740.000000	 0.035180  
739.000000	 0.035921  
738.000000	 0.036484  
737.000000	 0.036853  
736.000000	 0.037010  
735.000000	 0.036968  
734.000000	 0.036795  
733.000000	 0.036599  
732.000000	 0.036490  
731.000000	 0.036559  
730.000000	 0.036864  
729.000000	 0.037385  
728.000000	 0.038033  
727.000000	 0.038753  
726.000000	 0.039573  
725.000000	 0.040500  
724.000000	 0.041371  
723.000000	 0.041891  
722.000000	 0.041841  
721.000000	 0.041230  
720.000000	 0.040250  
719.000000	 0.039111  
718.000000	 0.037938  
717.000000	 0.036815  
716.000000	 0.035806  
715.000000	 0.034940  
714.000000	 0.034206  
713.000000	 0.033576  
712.000000	 0.033005  
711.000000	 0.032438  
710.000000	 0.031857  
709.000000	 0.031345  
708.000000	 0.031040  
707.000000	 0.031006  
706.000000	 0.031163  
705.000000	 0.031371  
704.000000	 0.031554  
703.000000	 0.031698  
702.000000	 0.031799  
701.000000	 0.031853  
700.000000	 0.031862  
699.000000	 0.031783  
698.000000	 0.031495  
697.000000	 0.030900  
696.000000	 0.030081  
695.000000	 0.029290  
694.000000	 0.028757  
693.000000	 0.028522  
692.000000	 0.028426  
691.000000	 0.028288  
690.000000	 0.028062  
689.000000	 0.027851  
688.000000	 0.027756  
687.000000	 0.027710  
686.000000	 0.027559  
685.000000	 0.027303  
684.000000	 0.027113  
683.000000	 0.027097  
682.000000	 0.027108  
681.000000	 0.026890  
680.000000	 0.026393  
679.000000	 0.025840  
678.000000	 0.025469  
677.000000	 0.025335  
676.000000	 0.025407  
675.000000	 0.025625  
674.000000	 0.025805  
673.000000	 0.025761  
672.000000	 0.025525  
671.000000	 0.025567  
670.000000	 0.026326  
669.000000	 0.027872  
668.000000	 0.028658  
667.000000	 0.027274  
666.000000	 0.025383  
665.000000	 0.024401  
664.000000	 0.024096  
663.000000	 0.024115  
662.000000	 0.024210  
661.000000	 0.024347  
660.000000	 0.024549  
659.000000	 0.024821  
658.000000	 0.025083  
657.000000	 0.025123  
656.000000	 0.024766  
655.000000	 0.024073  
654.000000	 0.023434  
653.000000	 0.023228  
652.000000	 0.023508  
651.000000	 0.023941  
650.000000	 0.024276  

