PE IR                   SPECTRUM    ASCII       PEDS        1.60        
  -1
NB441~1.ASC
17/05/24
07:53:03.00
17/05/24
07:53:03.00
Admin

650.000000
4









SPECTRUM ONE,CPU32 MAIN 00.02.6000 25-JUNE-2003 12:00:00
MIR TGS
MIR
OPTKBR
68128
0.200000

4.000000
STRONG
RATIO
SPECTRUM
MAGNITUDE
UNIVERSAL ATR
DOUBLE

COMBINED


0


#HDR
-1
-1
#GR
CM-1
A
0.00000011920928955078
0.0
4000.000000
-1.000000
3351
8
0.195382
-0.001543
#DATA
4000.000000	0.003013  
3999.000000	0.003078  
3998.000000	0.003135  
3997.000000	0.003132  
3996.000000	0.003053  
3995.000000	0.002927  
3994.000000	0.002805  
3993.000000	0.002727  
3992.000000	0.002701  
3991.000000	0.002712  
3990.000000	0.002738  
3989.000000	0.002765  
3988.000000	0.002795  
3987.000000	0.002847  
3986.000000	0.002934  
3985.000000	0.003038  
3984.000000	0.003112  
3983.000000	0.003112  
3982.000000	0.003032  
3981.000000	0.002902  
3980.000000	0.002755  
3979.000000	0.002606  
3978.000000	0.002468  
3977.000000	0.002376  
3976.000000	0.002374  
3975.000000	0.002483  
3974.000000	0.002670  
3973.000000	0.002869  
3972.000000	0.003005  
3971.000000	0.003036  
3970.000000	0.002960  
3969.000000	0.002814  
3968.000000	0.002661  
3967.000000	0.002561  
3966.000000	0.002547  
3965.000000	0.002604  
3964.000000	0.002675  
3963.000000	0.002705  
3962.000000	0.002689  
3961.000000	0.002657  
3960.000000	0.002636  
3959.000000	0.002620  
3958.000000	0.002600  
3957.000000	0.002589  
3956.000000	0.002599  
3955.000000	0.002625  
3954.000000	0.002638  
3953.000000	0.002625  
3952.000000	0.002600  
3951.000000	0.002586  
3950.000000	0.002583  
3949.000000	0.002564  
3948.000000	0.002517  
3947.000000	0.002472  
3946.000000	0.002469  
3945.000000	0.002511  
3944.000000	0.002580  
3943.000000	0.002676  
3942.000000	0.002803  
3941.000000	0.002930  
3940.000000	0.002995  
3939.000000	0.002961  
3938.000000	0.002869  
3937.000000	0.002818  
3936.000000	0.002875  
3935.000000	0.003012  
3934.000000	0.003139  
3933.000000	0.003184  
3932.000000	0.003153  
3931.000000	0.003085  
3930.000000	0.003017  
3929.000000	0.002985  
3928.000000	0.003007  
3927.000000	0.003044  
3926.000000	0.003028  
3925.000000	0.002943  
3924.000000	0.002821  
3923.000000	0.002672  
3922.000000	0.002496  
3921.000000	0.002340  
3920.000000	0.002293  
3919.000000	0.002392  
3918.000000	0.002566  
3917.000000	0.002723  
3916.000000	0.002854  
3915.000000	0.002998  
3914.000000	0.003154  
3913.000000	0.003269  
3912.000000	0.003279  
3911.000000	0.003155  
3910.000000	0.002915  
3909.000000	0.002620  
3908.000000	0.002356  
3907.000000	0.002196  
3906.000000	0.002192  
3905.000000	0.002373  
3904.000000	0.002686  
3903.000000	0.002970  
3902.000000	0.003102  
3901.000000	0.003108  
3900.000000	0.003110  
3899.000000	0.003157  
3898.000000	0.003169  
3897.000000	0.003056  
3896.000000	0.002848  
3895.000000	0.002658  
3894.000000	0.002552  
3893.000000	0.002487  
3892.000000	0.002418  
3891.000000	0.002400  
3890.000000	0.002525  
3889.000000	0.002807  
3888.000000	0.003065  
3887.000000	0.003045  
3886.000000	0.002777  
3885.000000	0.002592  
3884.000000	0.002708  
3883.000000	0.003015  
3882.000000	0.003226  
3881.000000	0.003192  
3880.000000	0.003029  
3879.000000	0.002933  
3878.000000	0.002974  
3877.000000	0.003031  
3876.000000	0.002900  
3875.000000	0.002581  
3874.000000	0.002355  
3873.000000	0.002443  
3872.000000	0.002688  
3871.000000	0.002776  
3870.000000	0.002725  
3869.000000	0.002814  
3868.000000	0.003138  
3867.000000	0.003484  
3866.000000	0.003588  
3865.000000	0.003451  
3864.000000	0.003298  
3863.000000	0.003238  
3862.000000	0.003186  
3861.000000	0.003035  
3860.000000	0.002745  
3859.000000	0.002360  
3858.000000	0.002035  
3857.000000	0.001979  
3856.000000	0.002163  
3855.000000	0.002129  
3854.000000	0.001882  
3853.000000	0.001999  
3852.000000	0.002460  
3851.000000	0.002881  
3850.000000	0.003094  
3849.000000	0.003137  
3848.000000	0.003109  
3847.000000	0.003046  
3846.000000	0.002936  
3845.000000	0.002786  
3844.000000	0.002718  
3843.000000	0.002903  
3842.000000	0.003368  
3841.000000	0.003879  
3840.000000	0.004116  
3839.000000	0.003990  
3838.000000	0.003715  
3837.000000	0.003522  
3836.000000	0.003449  
3835.000000	0.003404  
3834.000000	0.003285  
3833.000000	0.003069  
3832.000000	0.002846  
3831.000000	0.002741  
3830.000000	0.002793  
3829.000000	0.002901  
3828.000000	0.002900  
3827.000000	0.002746  
3826.000000	0.002605  
3825.000000	0.002688  
3824.000000	0.002986  
3823.000000	0.003146  
3822.000000	0.002957  
3821.000000	0.002777  
3820.000000	0.002923  
3819.000000	0.003291  
3818.000000	0.003505  
3817.000000	0.003291  
3816.000000	0.002859  
3815.000000	0.002597  
3814.000000	0.002549  
3813.000000	0.002513  
3812.000000	0.002384  
3811.000000	0.002267  
3810.000000	0.002290  
3809.000000	0.002366  
3808.000000	0.002342  
3807.000000	0.002319  
3806.000000	0.002529  
3805.000000	0.003015  
3804.000000	0.003476  
3803.000000	0.003445  
3802.000000	0.002967  
3801.000000	0.002627  
3800.000000	0.002674  
3799.000000	0.002870  
3798.000000	0.002892  
3797.000000	0.002682  
3796.000000	0.002453  
3795.000000	0.002379  
3794.000000	0.002428  
3793.000000	0.002473  
3792.000000	0.002445  
3791.000000	0.002350  
3790.000000	0.002227  
3789.000000	0.002115  
3788.000000	0.002050  
3787.000000	0.002049  
3786.000000	0.002112  
3785.000000	0.002246  
3784.000000	0.002456  
3783.000000	0.002705  
3782.000000	0.002874  
3781.000000	0.002813  
3780.000000	0.002546  
3779.000000	0.002289  
3778.000000	0.002184  
3777.000000	0.002172  
3776.000000	0.002130  
3775.000000	0.002052  
3774.000000	0.002058  
3773.000000	0.002199  
3772.000000	0.002342  
3771.000000	0.002342  
3770.000000	0.002284  
3769.000000	0.002377  
3768.000000	0.002661  
3767.000000	0.002945  
3766.000000	0.003034  
3765.000000	0.002951  
3764.000000	0.002890  
3763.000000	0.002962  
3762.000000	0.003098  
3761.000000	0.003175  
3760.000000	0.003146  
3759.000000	0.003021  
3758.000000	0.002821  
3757.000000	0.002620  
3756.000000	0.002525  
3755.000000	0.002567  
3754.000000	0.002638  
3753.000000	0.002580  
3752.000000	0.002452  
3751.000000	0.002527  
3750.000000	0.002767  
3749.000000	0.002937  
3748.000000	0.003031  
3747.000000	0.003038  
3746.000000	0.002705  
3745.000000	0.002100  
3744.000000	0.001794  
3743.000000	0.001961  
3742.000000	0.002244  
3741.000000	0.002364  
3740.000000	0.002378  
3739.000000	0.002524  
3738.000000	0.002883  
3737.000000	0.003280  
3736.000000	0.003512  
3735.000000	0.003522  
3734.000000	0.003361  
3733.000000	0.003105  
3732.000000	0.002851  
3731.000000	0.002693  
3730.000000	0.002630  
3729.000000	0.002539  
3728.000000	0.002286  
3727.000000	0.001915  
3726.000000	0.001643  
3725.000000	0.001598  
3724.000000	0.001732  
3723.000000	0.001958  
3722.000000	0.002230  
3721.000000	0.002481  
3720.000000	0.002579  
3719.000000	0.002415  
3718.000000	0.002046  
3717.000000	0.001700  
3716.000000	0.001613  
3715.000000	0.001830  
3714.000000	0.002148  
3713.000000	0.002290  
3712.000000	0.002271  
3711.000000	0.002310  
3710.000000	0.002399  
3709.000000	0.002386  
3708.000000	0.002237  
3707.000000	0.002060  
3706.000000	0.001992  
3705.000000	0.002077  
3704.000000	0.002217  
3703.000000	0.002270  
3702.000000	0.002228  
3701.000000	0.002205  
3700.000000	0.002256  
3699.000000	0.002303  
3698.000000	0.002233  
3697.000000	0.002080  
3696.000000	0.002032  
3695.000000	0.002256  
3694.000000	0.002766  
3693.000000	0.003414  
3692.000000	0.003927  
3691.000000	0.004007  
3690.000000	0.003605  
3689.000000	0.003035  
3688.000000	0.002629  
3687.000000	0.002479  
3686.000000	0.002488  
3685.000000	0.002519  
3684.000000	0.002507  
3683.000000	0.002444  
3682.000000	0.002305  
3681.000000	0.002094  
3680.000000	0.002004  
3679.000000	0.002320  
3678.000000	0.003014  
3677.000000	0.003537  
3676.000000	0.003518  
3675.000000	0.003206  
3674.000000	0.003005  
3673.000000	0.003052  
3672.000000	0.003190  
3671.000000	0.003254  
3670.000000	0.003315  
3669.000000	0.003363  
3668.000000	0.003244  
3667.000000	0.002905  
3666.000000	0.002431  
3665.000000	0.001991  
3664.000000	0.001732  
3663.000000	0.001675  
3662.000000	0.001721  
3661.000000	0.001775  
3660.000000	0.001828  
3659.000000	0.001888  
3658.000000	0.001894  
3657.000000	0.001841  
3656.000000	0.001867  
3655.000000	0.002097  
3654.000000	0.002527  
3653.000000	0.003035  
3652.000000	0.003394  
3651.000000	0.003493  
3650.000000	0.003693  
3649.000000	0.004236  
3648.000000	0.004648  
3647.000000	0.004603  
3646.000000	0.004292  
3645.000000	0.003945  
3644.000000	0.003619  
3643.000000	0.003291  
3642.000000	0.002971  
3641.000000	0.002689  
3640.000000	0.002430  
3639.000000	0.002166  
3638.000000	0.001925  
3637.000000	0.001747  
3636.000000	0.001579  
3635.000000	0.001331  
3634.000000	0.001050  
3633.000000	0.000948  
3632.000000	0.001223  
3631.000000	0.001784  
3630.000000	0.002307  
3629.000000	0.002665  
3628.000000	0.002867  
3627.000000	0.002894  
3626.000000	0.002758  
3625.000000	0.002541  
3624.000000	0.002406  
3623.000000	0.002496  
3622.000000	0.002799  
3621.000000	0.003116  
3620.000000	0.003256  
3619.000000	0.003225  
3618.000000	0.003156  
3617.000000	0.003119  
3616.000000	0.003067  
3615.000000	0.002925  
3614.000000	0.002721  
3613.000000	0.002584  
3612.000000	0.002595  
3611.000000	0.002692  
3610.000000	0.002753  
3609.000000	0.002757  
3608.000000	0.002804  
3607.000000	0.002949  
3606.000000	0.003134  
3605.000000	0.003295  
3604.000000	0.003401  
3603.000000	0.003423  
3602.000000	0.003338  
3601.000000	0.003195  
3600.000000	0.003084  
3599.000000	0.003055  
3598.000000	0.003090  
3597.000000	0.003160  
3596.000000	0.003238  
3595.000000	0.003298  
3594.000000	0.003301  
3593.000000	0.003233  
3592.000000	0.003150  
3591.000000	0.003132  
3590.000000	0.003186  
3589.000000	0.003242  
3588.000000	0.003324  
3587.000000	0.003517  
3586.000000	0.003762  
3585.000000	0.003922  
3584.000000	0.003928  
3583.000000	0.003811  
3582.000000	0.003662  
3581.000000	0.003579  
3580.000000	0.003620  
3579.000000	0.003771  
3578.000000	0.003935  
3577.000000	0.003984  
3576.000000	0.003854  
3575.000000	0.003599  
3574.000000	0.003355  
3573.000000	0.003218  
3572.000000	0.003203  
3571.000000	0.003286  
3570.000000	0.003431  
3569.000000	0.003613  
3568.000000	0.003885  
3567.000000	0.004300  
3566.000000	0.004704  
3565.000000	0.004899  
3564.000000	0.004864  
3563.000000	0.004705  
3562.000000	0.004542  
3561.000000	0.004447  
3560.000000	0.004424  
3559.000000	0.004432  
3558.000000	0.004433  
3557.000000	0.004434  
3556.000000	0.004478  
3555.000000	0.004592  
3554.000000	0.004740  
3553.000000	0.004832  
3552.000000	0.004801  
3551.000000	0.004658  
3550.000000	0.004458  
3549.000000	0.004254  
3548.000000	0.004087  
3547.000000	0.004006  
3546.000000	0.004048  
3545.000000	0.004183  
3544.000000	0.004330  
3543.000000	0.004426  
3542.000000	0.004468  
3541.000000	0.004490  
3540.000000	0.004518  
3539.000000	0.004558  
3538.000000	0.004604  
3537.000000	0.004657  
3536.000000	0.004715  
3535.000000	0.004783  
3534.000000	0.004866  
3533.000000	0.004962  
3532.000000	0.005042  
3531.000000	0.005048  
3530.000000	0.004943  
3529.000000	0.004773  
3528.000000	0.004656  
3527.000000	0.004672  
3526.000000	0.004785  
3525.000000	0.004896  
3524.000000	0.004943  
3523.000000	0.004950  
3522.000000	0.004971  
3521.000000	0.005014  
3520.000000	0.005039  
3519.000000	0.005009  
3518.000000	0.004940  
3517.000000	0.004896  
3516.000000	0.004938  
3515.000000	0.005073  
3514.000000	0.005250  
3513.000000	0.005400  
3512.000000	0.005481  
3511.000000	0.005520  
3510.000000	0.005577  
3509.000000	0.005688  
3508.000000	0.005826  
3507.000000	0.005945  
3506.000000	0.006023  
3505.000000	0.006069  
3504.000000	0.006103  
3503.000000	0.006124  
3502.000000	0.006112  
3501.000000	0.006055  
3500.000000	0.005952  
3499.000000	0.005810  
3498.000000	0.005664  
3497.000000	0.005587  
3496.000000	0.005620  
3495.000000	0.005720  
3494.000000	0.005806  
3493.000000	0.005874  
3492.000000	0.006004  
3491.000000	0.006240  
3490.000000	0.006493  
3489.000000	0.006622  
3488.000000	0.006600  
3487.000000	0.006556  
3486.000000	0.006605  
3485.000000	0.006707  
3484.000000	0.006716  
3483.000000	0.006560  
3482.000000	0.006329  
3481.000000	0.006193  
3480.000000	0.006240  
3479.000000	0.006429  
3478.000000	0.006655  
3477.000000	0.006841  
3476.000000	0.006969  
3475.000000	0.007065  
3474.000000	0.007145  
3473.000000	0.007203  
3472.000000	0.007226  
3471.000000	0.007217  
3470.000000	0.007188  
3469.000000	0.007140  
3468.000000	0.007073  
3467.000000	0.007007  
3466.000000	0.006963  
3465.000000	0.006919  
3464.000000	0.006828  
3463.000000	0.006684  
3462.000000	0.006572  
3461.000000	0.006596  
3460.000000	0.006776  
3459.000000	0.007020  
3458.000000	0.007204  
3457.000000	0.007263  
3456.000000	0.007214  
3455.000000	0.007105  
3454.000000	0.006981  
3453.000000	0.006898  
3452.000000	0.006940  
3451.000000	0.007172  
3450.000000	0.007567  
3449.000000	0.007985  
3448.000000	0.008267  
3447.000000	0.008349  
3446.000000	0.008277  
3445.000000	0.008121  
3444.000000	0.007913  
3443.000000	0.007674  
3442.000000	0.007458  
3441.000000	0.007339  
3440.000000	0.007356  
3439.000000	0.007478  
3438.000000	0.007617  
3437.000000	0.007683  
3436.000000	0.007657  
3435.000000	0.007616  
3434.000000	0.007661  
3433.000000	0.007821  
3432.000000	0.008030  
3431.000000	0.008193  
3430.000000	0.008262  
3429.000000	0.008252  
3428.000000	0.008218  
3427.000000	0.008213  
3426.000000	0.008262  
3425.000000	0.008341  
3424.000000	0.008379  
3423.000000	0.008313  
3422.000000	0.008152  
3421.000000	0.007972  
3420.000000	0.007855  
3419.000000	0.007815  
3418.000000	0.007818  
3417.000000	0.007836  
3416.000000	0.007880  
3415.000000	0.007979  
3414.000000	0.008140  
3413.000000	0.008333  
3412.000000	0.008509  
3411.000000	0.008620  
3410.000000	0.008645  
3409.000000	0.008612  
3408.000000	0.008606  
3407.000000	0.008710  
3406.000000	0.008922  
3405.000000	0.009136  
3404.000000	0.009224  
3403.000000	0.009146  
3402.000000	0.008979  
3401.000000	0.008848  
3400.000000	0.008833  
3399.000000	0.008919  
3398.000000	0.009022  
3397.000000	0.009041  
3396.000000	0.008940  
3395.000000	0.008788  
3394.000000	0.008712  
3393.000000	0.008786  
3392.000000	0.008953  
3391.000000	0.009076  
3390.000000	0.009070  
3389.000000	0.008966  
3388.000000	0.008854  
3387.000000	0.008807  
3386.000000	0.008837  
3385.000000	0.008920  
3384.000000	0.009026  
3383.000000	0.009133  
3382.000000	0.009237  
3381.000000	0.009337  
3380.000000	0.009418  
3379.000000	0.009440  
3378.000000	0.009382  
3377.000000	0.009279  
3376.000000	0.009210  
3375.000000	0.009226  
3374.000000	0.009298  
3373.000000	0.009363  
3372.000000	0.009396  
3371.000000	0.009433  
3370.000000	0.009502  
3369.000000	0.009569  
3368.000000	0.009565  
3367.000000	0.009479  
3366.000000	0.009379  
3365.000000	0.009333  
3364.000000	0.009344  
3363.000000	0.009367  
3362.000000	0.009382  
3361.000000	0.009423  
3360.000000	0.009512  
3359.000000	0.009622  
3358.000000	0.009696  
3357.000000	0.009710  
3356.000000	0.009688  
3355.000000	0.009650  
3354.000000	0.009587  
3353.000000	0.009472  
3352.000000	0.009314  
3351.000000	0.009173  
3350.000000	0.009125  
3349.000000	0.009195  
3348.000000	0.009336  
3347.000000	0.009474  
3346.000000	0.009569  
3345.000000	0.009654  
3344.000000	0.009783  
3343.000000	0.009966  
3342.000000	0.010130  
3341.000000	0.010183  
3340.000000	0.010085  
3339.000000	0.009881  
3338.000000	0.009658  
3337.000000	0.009486  
3336.000000	0.009389  
3335.000000	0.009366  
3334.000000	0.009402  
3333.000000	0.009468  
3332.000000	0.009518  
3331.000000	0.009510  
3330.000000	0.009423  
3329.000000	0.009273  
3328.000000	0.009100  
3327.000000	0.008960  
3326.000000	0.008912  
3325.000000	0.008998  
3324.000000	0.009215  
3323.000000	0.009500  
3322.000000	0.009755  
3321.000000	0.009894  
3320.000000	0.009895  
3319.000000	0.009800  
3318.000000	0.009686  
3317.000000	0.009615  
3316.000000	0.009611  
3315.000000	0.009646  
3314.000000	0.009654  
3313.000000	0.009569  
3312.000000	0.009384  
3311.000000	0.009176  
3310.000000	0.009057  
3309.000000	0.009088  
3308.000000	0.009228  
3307.000000	0.009371  
3306.000000	0.009416  
3305.000000	0.009338  
3304.000000	0.009198  
3303.000000	0.009095  
3302.000000	0.009087  
3301.000000	0.009130  
3300.000000	0.009117  
3299.000000	0.008991  
3298.000000	0.008801  
3297.000000	0.008651  
3296.000000	0.008592  
3295.000000	0.008587  
3294.000000	0.008576  
3293.000000	0.008548  
3292.000000	0.008550  
3291.000000	0.008617  
3290.000000	0.008722  
3289.000000	0.008795  
3288.000000	0.008809  
3287.000000	0.008804  
3286.000000	0.008824  
3285.000000	0.008832  
3284.000000	0.008740  
3283.000000	0.008535  
3282.000000	0.008331  
3281.000000	0.008256  
3280.000000	0.008302  
3279.000000	0.008331  
3278.000000	0.008243  
3277.000000	0.008070  
3276.000000	0.007919  
3275.000000	0.007849  
3274.000000	0.007849  
3273.000000	0.007890  
3272.000000	0.007959  
3271.000000	0.008036  
3270.000000	0.008087  
3269.000000	0.008089  
3268.000000	0.008040  
3267.000000	0.007945  
3266.000000	0.007810  
3265.000000	0.007648  
3264.000000	0.007492  
3263.000000	0.007368  
3262.000000	0.007284  
3261.000000	0.007233  
3260.000000	0.007211  
3259.000000	0.007217  
3258.000000	0.007248  
3257.000000	0.007296  
3256.000000	0.007341  
3255.000000	0.007351  
3254.000000	0.007296  
3253.000000	0.007185  
3252.000000	0.007069  
3251.000000	0.007001  
3250.000000	0.006986  
3249.000000	0.006982  
3248.000000	0.006958  
3247.000000	0.006935  
3246.000000	0.006955  
3245.000000	0.007013  
3244.000000	0.007037  
3243.000000	0.006949  
3242.000000	0.006744  
3241.000000	0.006497  
3240.000000	0.006294  
3239.000000	0.006181  
3238.000000	0.006153  
3237.000000	0.006190  
3236.000000	0.006265  
3235.000000	0.006341  
3234.000000	0.006388  
3233.000000	0.006398  
3232.000000	0.006383  
3231.000000	0.006354  
3230.000000	0.006318  
3229.000000	0.006298  
3228.000000	0.006333  
3227.000000	0.006429  
3226.000000	0.006533  
3225.000000	0.006570  
3224.000000	0.006517  
3223.000000	0.006413  
3222.000000	0.006291  
3221.000000	0.006146  
3220.000000	0.005970  
3219.000000	0.005807  
3218.000000	0.005712  
3217.000000	0.005681  
3216.000000	0.005644  
3215.000000	0.005548  
3214.000000	0.005410  
3213.000000	0.005284  
3212.000000	0.005203  
3211.000000	0.005176  
3210.000000	0.005206  
3209.000000	0.005284  
3208.000000	0.005367  
3207.000000	0.005400  
3206.000000	0.005362  
3205.000000	0.005282  
3204.000000	0.005210  
3203.000000	0.005181  
3202.000000	0.005201  
3201.000000	0.005246  
3200.000000	0.005271  
3199.000000	0.005243  
3198.000000	0.005166  
3197.000000	0.005073  
3196.000000	0.004990  
3195.000000	0.004920  
3194.000000	0.004868  
3193.000000	0.004850  
3192.000000	0.004876  
3191.000000	0.004914  
3190.000000	0.004908  
3189.000000	0.004833  
3188.000000	0.004719  
3187.000000	0.004628  
3186.000000	0.004596  
3185.000000	0.004625  
3184.000000	0.004699  
3183.000000	0.004807  
3182.000000	0.004927  
3181.000000	0.005016  
3180.000000	0.005029  
3179.000000	0.004964  
3178.000000	0.004858  
3177.000000	0.004739  
3176.000000	0.004610  
3175.000000	0.004476  
3174.000000	0.004366  
3173.000000	0.004314  
3172.000000	0.004312  
3171.000000	0.004331  
3170.000000	0.004355  
3169.000000	0.004393  
3168.000000	0.004448  
3167.000000	0.004513  
3166.000000	0.004575  
3165.000000	0.004615  
3164.000000	0.004597  
3163.000000	0.004488  
3162.000000	0.004293  
3161.000000	0.004067  
3160.000000	0.003879  
3159.000000	0.003762  
3158.000000	0.003696  
3157.000000	0.003647  
3156.000000	0.003614  
3155.000000	0.003633  
3154.000000	0.003736  
3153.000000	0.003891  
3152.000000	0.004012  
3151.000000	0.004025  
3150.000000	0.003935  
3149.000000	0.003814  
3148.000000	0.003737  
3147.000000	0.003727  
3146.000000	0.003751  
3145.000000	0.003748  
3144.000000	0.003678  
3143.000000	0.003560  
3142.000000	0.003468  
3141.000000	0.003470  
3140.000000	0.003557  
3139.000000	0.003662  
3138.000000	0.003732  
3137.000000	0.003778  
3136.000000	0.003830  
3135.000000	0.003883  
3134.000000	0.003888  
3133.000000	0.003807  
3132.000000	0.003656  
3131.000000	0.003494  
3130.000000	0.003377  
3129.000000	0.003329  
3128.000000	0.003334  
3127.000000	0.003352  
3126.000000	0.003343  
3125.000000	0.003289  
3124.000000	0.003214  
3123.000000	0.003175  
3122.000000	0.003216  
3121.000000	0.003325  
3120.000000	0.003438  
3119.000000	0.003497  
3118.000000	0.003500  
3117.000000	0.003482  
3116.000000	0.003468  
3115.000000	0.003462  
3114.000000	0.003466  
3113.000000	0.003485  
3112.000000	0.003500  
3111.000000	0.003474  
3110.000000	0.003384  
3109.000000	0.003253  
3108.000000	0.003138  
3107.000000	0.003095  
3106.000000	0.003126  
3105.000000	0.003183  
3104.000000	0.003200  
3103.000000	0.003162  
3102.000000	0.003119  
3101.000000	0.003130  
3100.000000	0.003178  
3099.000000	0.003184  
3098.000000	0.003096  
3097.000000	0.002956  
3096.000000	0.002863  
3095.000000	0.002883  
3094.000000	0.003005  
3093.000000	0.003155  
3092.000000	0.003247  
3091.000000	0.003243  
3090.000000	0.003178  
3089.000000	0.003147  
3088.000000	0.003219  
3087.000000	0.003372  
3086.000000	0.003520  
3085.000000	0.003596  
3084.000000	0.003598  
3083.000000	0.003556  
3082.000000	0.003493  
3081.000000	0.003424  
3080.000000	0.003376  
3079.000000	0.003370  
3078.000000	0.003406  
3077.000000	0.003464  
3076.000000	0.003536  
3075.000000	0.003613  
3074.000000	0.003676  
3073.000000	0.003696  
3072.000000	0.003658  
3071.000000	0.003571  
3070.000000	0.003462  
3069.000000	0.003383  
3068.000000	0.003404  
3067.000000	0.003548  
3066.000000	0.003730  
3065.000000	0.003811  
3064.000000	0.003743  
3063.000000	0.003624  
3062.000000	0.003583  
3061.000000	0.003645  
3060.000000	0.003736  
3059.000000	0.003802  
3058.000000	0.003838  
3057.000000	0.003842  
3056.000000	0.003785  
3055.000000	0.003682  
3054.000000	0.003617  
3053.000000	0.003671  
3052.000000	0.003832  
3051.000000	0.004006  
3050.000000	0.004099  
3049.000000	0.004077  
3048.000000	0.003970  
3047.000000	0.003847  
3046.000000	0.003793  
3045.000000	0.003859  
3044.000000	0.004028  
3043.000000	0.004227  
3042.000000	0.004381  
3041.000000	0.004457  
3040.000000	0.004465  
3039.000000	0.004449  
3038.000000	0.004457  
3037.000000	0.004514  
3036.000000	0.004609  
3035.000000	0.004720  
3034.000000	0.004855  
3033.000000	0.005035  
3032.000000	0.005246  
3031.000000	0.005420  
3030.000000	0.005497  
3029.000000	0.005491  
3028.000000	0.005490  
3027.000000	0.005588  
3026.000000	0.005805  
3025.000000	0.006079  
3024.000000	0.006314  
3023.000000	0.006480  
3022.000000	0.006639  
3021.000000	0.006895  
3020.000000	0.007313  
3019.000000	0.007875  
3018.000000	0.008511  
3017.000000	0.009129  
3016.000000	0.009658  
3015.000000	0.010071  
3014.000000	0.010393  
3013.000000	0.010682  
3012.000000	0.010966  
3011.000000	0.011221  
3010.000000	0.011390  
3009.000000	0.011432  
3008.000000	0.011358  
3007.000000	0.011210  
3006.000000	0.011027  
3005.000000	0.010825  
3004.000000	0.010618  
3003.000000	0.010428  
3002.000000	0.010265  
3001.000000	0.010110  
3000.000000	0.009941  
2999.000000	0.009792  
2998.000000	0.009750  
2997.000000	0.009872  
2996.000000	0.010122  
2995.000000	0.010396  
2994.000000	0.010619  
2993.000000	0.010784  
2992.000000	0.010939  
2991.000000	0.011154  
2990.000000	0.011503  
2989.000000	0.012012  
2988.000000	0.012641  
2987.000000	0.013326  
2986.000000	0.014062  
2985.000000	0.014919  
2984.000000	0.015950  
2983.000000	0.017133  
2982.000000	0.018388  
2981.000000	0.019678  
2980.000000	0.021057  
2979.000000	0.022645  
2978.000000	0.024543  
2977.000000	0.026768  
2976.000000	0.029275  
2975.000000	0.032037  
2974.000000	0.035102  
2973.000000	0.038555  
2972.000000	0.042440  
2971.000000	0.046730  
2970.000000	0.051383  
2969.000000	0.056380  
2968.000000	0.061694  
2967.000000	0.067245  
2966.000000	0.072897  
2965.000000	0.078509  
2964.000000	0.083964  
2963.000000	0.089165  
2962.000000	0.094030  
2961.000000	0.098483  
2960.000000	0.102435  
2959.000000	0.105762  
2958.000000	0.108327  
2957.000000	0.110038  
2956.000000	0.110866  
2955.000000	0.110805  
2954.000000	0.109880  
2953.000000	0.108200  
2952.000000	0.105983  
2951.000000	0.103500  
2950.000000	0.101007  
2949.000000	0.098734  
2948.000000	0.096890  
2947.000000	0.095628  
2946.000000	0.095019  
2945.000000	0.095089  
2944.000000	0.095888  
2943.000000	0.097503  
2942.000000	0.099994  
2941.000000	0.103338  
2940.000000	0.107445  
2939.000000	0.112213  
2938.000000	0.117531  
2937.000000	0.123254  
2936.000000	0.129216  
2935.000000	0.135315  
2934.000000	0.141557  
2933.000000	0.148005  
2932.000000	0.154648  
2931.000000	0.161337  
2930.000000	0.167843  
2929.000000	0.173986  
2928.000000	0.179676  
2927.000000	0.184823  
2926.000000	0.189233  
2925.000000	0.192625  
2924.000000	0.194731  
2923.000000	0.195382  
2922.000000	0.194552  
2921.000000	0.192372  
2920.000000	0.189094  
2919.000000	0.185000  
2918.000000	0.180325  
2917.000000	0.175268  
2916.000000	0.170017  
2915.000000	0.164740  
2914.000000	0.159563  
2913.000000	0.154567  
2912.000000	0.149794  
2911.000000	0.145236  
2910.000000	0.140853  
2909.000000	0.136612  
2908.000000	0.132509  
2907.000000	0.128556  
2906.000000	0.124763  
2905.000000	0.121128  
2904.000000	0.117640  
2903.000000	0.114282  
2902.000000	0.111057  
2901.000000	0.107965  
2900.000000	0.104967  
2899.000000	0.101982  
2898.000000	0.098963  
2897.000000	0.095945  
2896.000000	0.092992  
2895.000000	0.090116  
2894.000000	0.087289  
2893.000000	0.084524  
2892.000000	0.081870  
2891.000000	0.079340  
2890.000000	0.076908  
2889.000000	0.074582  
2888.000000	0.072456  
2887.000000	0.070654  
2886.000000	0.069253  
2885.000000	0.068284  
2884.000000	0.067768  
2883.000000	0.067724  
2882.000000	0.068191  
2881.000000	0.069239  
2880.000000	0.070936  
2879.000000	0.073285  
2878.000000	0.076171  
2877.000000	0.079391  
2876.000000	0.082682  
2875.000000	0.085750  
2874.000000	0.088302  
2873.000000	0.090152  
2872.000000	0.091298  
2871.000000	0.091898  
2870.000000	0.092164  
2869.000000	0.092292  
2868.000000	0.092450  
2867.000000	0.092795  
2866.000000	0.093478  
2865.000000	0.094644  
2864.000000	0.096406  
2863.000000	0.098806  
2862.000000	0.101789  
2861.000000	0.105212  
2860.000000	0.108869  
2859.000000	0.112515  
2858.000000	0.115925  
2857.000000	0.118930  
2856.000000	0.121355  
2855.000000	0.122884  
2854.000000	0.123086  
2853.000000	0.121643  
2852.000000	0.118559  
2851.000000	0.114117  
2850.000000	0.108676  
2849.000000	0.102571  
2848.000000	0.096122  
2847.000000	0.089640  
2846.000000	0.083365  
2845.000000	0.077416  
2844.000000	0.071798  
2843.000000	0.066447  
2842.000000	0.061299  
2841.000000	0.056348  
2840.000000	0.051663  
2839.000000	0.047343  
2838.000000	0.043456  
2837.000000	0.040011  
2836.000000	0.036972  
2835.000000	0.034283  
2834.000000	0.031887  
2833.000000	0.029742  
2832.000000	0.027826  
2831.000000	0.026116  
2830.000000	0.024582  
2829.000000	0.023195  
2828.000000	0.021936  
2827.000000	0.020778  
2826.000000	0.019680  
2825.000000	0.018623  
2824.000000	0.017639  
2823.000000	0.016791  
2822.000000	0.016105  
2821.000000	0.015546  
2820.000000	0.015056  
2819.000000	0.014596  
2818.000000	0.014140  
2817.000000	0.013663  
2816.000000	0.013159  
2815.000000	0.012664  
2814.000000	0.012233  
2813.000000	0.011879  
2812.000000	0.011564  
2811.000000	0.011230  
2810.000000	0.010851  
2809.000000	0.010440  
2808.000000	0.010045  
2807.000000	0.009723  
2806.000000	0.009510  
2805.000000	0.009392  
2804.000000	0.009302  
2803.000000	0.009166  
2802.000000	0.008950  
2801.000000	0.008665  
2800.000000	0.008349  
2799.000000	0.008044  
2798.000000	0.007786  
2797.000000	0.007589  
2796.000000	0.007451  
2795.000000	0.007370  
2794.000000	0.007348  
2793.000000	0.007360  
2792.000000	0.007342  
2791.000000	0.007230  
2790.000000	0.007034  
2789.000000	0.006826  
2788.000000	0.006665  
2787.000000	0.006538  
2786.000000	0.006401  
2785.000000	0.006240  
2784.000000	0.006078  
2783.000000	0.005938  
2782.000000	0.005819  
2781.000000	0.005709  
2780.000000	0.005599  
2779.000000	0.005483  
2778.000000	0.005364  
2777.000000	0.005253  
2776.000000	0.005153  
2775.000000	0.005053  
2774.000000	0.004940  
2773.000000	0.004828  
2772.000000	0.004739  
2771.000000	0.004669  
2770.000000	0.004592  
2769.000000	0.004497  
2768.000000	0.004405  
2767.000000	0.004344  
2766.000000	0.004318  
2765.000000	0.004324  
2764.000000	0.004360  
2763.000000	0.004413  
2762.000000	0.004437  
2761.000000	0.004394  
2760.000000	0.004295  
2759.000000	0.004191  
2758.000000	0.004111  
2757.000000	0.004048  
2756.000000	0.003985  
2755.000000	0.003930  
2754.000000	0.003894  
2753.000000	0.003868  
2752.000000	0.003838  
2751.000000	0.003808  
2750.000000	0.003805  
2749.000000	0.003841  
2748.000000	0.003893  
2747.000000	0.003911  
2746.000000	0.003868  
2745.000000	0.003788  
2744.000000	0.003733  
2743.000000	0.003749  
2742.000000	0.003823  
2741.000000	0.003914  
2740.000000	0.003991  
2739.000000	0.004055  
2738.000000	0.004114  
2737.000000	0.004165  
2736.000000	0.004225  
2735.000000	0.004322  
2734.000000	0.004454  
2733.000000	0.004562  
2732.000000	0.004577  
2731.000000	0.004489  
2730.000000	0.004348  
2729.000000	0.004219  
2728.000000	0.004130  
2727.000000	0.004085  
2726.000000	0.004075  
2725.000000	0.004087  
2724.000000	0.004112  
2723.000000	0.004147  
2722.000000	0.004190  
2721.000000	0.004214  
2720.000000	0.004184  
2719.000000	0.004099  
2718.000000	0.003999  
2717.000000	0.003917  
2716.000000	0.003852  
2715.000000	0.003784  
2714.000000	0.003718  
2713.000000	0.003672  
2712.000000	0.003643  
2711.000000	0.003605  
2710.000000	0.003535  
2709.000000	0.003438  
2708.000000	0.003333  
2707.000000	0.003235  
2706.000000	0.003150  
2705.000000	0.003071  
2704.000000	0.002989  
2703.000000	0.002918  
2702.000000	0.002898  
2701.000000	0.002949  
2700.000000	0.003035  
2699.000000	0.003088  
2698.000000	0.003086  
2697.000000	0.003080  
2696.000000	0.003130  
2695.000000	0.003234  
2694.000000	0.003336  
2693.000000	0.003396  
2692.000000	0.003407  
2691.000000	0.003375  
2690.000000	0.003298  
2689.000000	0.003199  
2688.000000	0.003133  
2687.000000	0.003149  
2686.000000	0.003229  
2685.000000	0.003306  
2684.000000	0.003326  
2683.000000	0.003289  
2682.000000	0.003239  
2681.000000	0.003210  
2680.000000	0.003212  
2679.000000	0.003227  
2678.000000	0.003225  
2677.000000	0.003184  
2676.000000	0.003119  
2675.000000	0.003077  
2674.000000	0.003096  
2673.000000	0.003173  
2672.000000	0.003272  
2671.000000	0.003357  
2670.000000	0.003404  
2669.000000	0.003399  
2668.000000	0.003341  
2667.000000	0.003258  
2666.000000	0.003188  
2665.000000	0.003152  
2664.000000	0.003137  
2663.000000	0.003121  
2662.000000	0.003100  
2661.000000	0.003073  
2660.000000	0.003029  
2659.000000	0.002957  
2658.000000	0.002872  
2657.000000	0.002813  
2656.000000	0.002810  
2655.000000	0.002849  
2654.000000	0.002878  
2653.000000	0.002852  
2652.000000	0.002782  
2651.000000	0.002728  
2650.000000	0.002731  
2649.000000	0.002755  
2648.000000	0.002716  
2647.000000	0.002586  
2646.000000	0.002436  
2645.000000	0.002359  
2644.000000	0.002373  
2643.000000	0.002421  
2642.000000	0.002450  
2641.000000	0.002454  
2640.000000	0.002428  
2639.000000	0.002336  
2638.000000	0.002163  
2637.000000	0.001964  
2636.000000	0.001847  
2635.000000	0.001867  
2634.000000	0.001985  
2633.000000	0.002110  
2632.000000	0.002193  
2631.000000	0.002246  
2630.000000	0.002284  
2629.000000	0.002296  
2628.000000	0.002264  
2627.000000	0.002215  
2626.000000	0.002198  
2625.000000	0.002229  
2624.000000	0.002274  
2623.000000	0.002292  
2622.000000	0.002279  
2621.000000	0.002257  
2620.000000	0.002244  
2619.000000	0.002251  
2618.000000	0.002284  
2617.000000	0.002328  
2616.000000	0.002342  
2615.000000	0.002288  
2614.000000	0.002171  
2613.000000	0.002035  
2612.000000	0.001929  
2611.000000	0.001878  
2610.000000	0.001883  
2609.000000	0.001929  
2608.000000	0.001987  
2607.000000	0.002041  
2606.000000	0.002089  
2605.000000	0.002129  
2604.000000	0.002139  
2603.000000	0.002099  
2602.000000	0.002023  
2601.000000	0.001943  
2600.000000	0.001874  
2599.000000	0.001799  
2598.000000	0.001704  
2597.000000	0.001607  
2596.000000	0.001526  
2595.000000	0.001457  
2594.000000	0.001393  
2593.000000	0.001347  
2592.000000	0.001352  
2591.000000	0.001410  
2590.000000	0.001487  
2589.000000	0.001544  
2588.000000	0.001567  
2587.000000	0.001564  
2586.000000	0.001539  
2585.000000	0.001495  
2584.000000	0.001448  
2583.000000	0.001416  
2582.000000	0.001380  
2581.000000	0.001301  
2580.000000	0.001179  
2579.000000	0.001088  
2578.000000	0.001109  
2577.000000	0.001231  
2576.000000	0.001347  
2575.000000	0.001365  
2574.000000	0.001296  
2573.000000	0.001221  
2572.000000	0.001192  
2571.000000	0.001192  
2570.000000	0.001175  
2569.000000	0.001127  
2568.000000	0.001076  
2567.000000	0.001055  
2566.000000	0.001053  
2565.000000	0.001035  
2564.000000	0.000992  
2563.000000	0.000958  
2562.000000	0.000974  
2561.000000	0.001042  
2560.000000	0.001137  
2559.000000	0.001235  
2558.000000	0.001296  
2557.000000	0.001258  
2556.000000	0.001105  
2555.000000	0.000927  
2554.000000	0.000851  
2553.000000	0.000893  
2552.000000	0.000939  
2551.000000	0.000876  
2550.000000	0.000708  
2549.000000	0.000505  
2548.000000	0.000316  
2547.000000	0.000187  
2546.000000	0.000201  
2545.000000	0.000407  
2544.000000	0.000721  
2543.000000	0.000955  
2542.000000	0.000990  
2541.000000	0.000865  
2540.000000	0.000718  
2539.000000	0.000650  
2538.000000	0.000664  
2537.000000	0.000688  
2536.000000	0.000657  
2535.000000	0.000577  
2534.000000	0.000505  
2533.000000	0.000460  
2532.000000	0.000402  
2531.000000	0.000321  
2530.000000	0.000310  
2529.000000	0.000460  
2528.000000	0.000712  
2527.000000	0.000885  
2526.000000	0.000872  
2525.000000	0.000743  
2524.000000	0.000638  
2523.000000	0.000610  
2522.000000	0.000618  
2521.000000	0.000615  
2520.000000	0.000583  
2519.000000	0.000513  
2518.000000	0.000417  
2517.000000	0.000350  
2516.000000	0.000377  
2515.000000	0.000502  
2514.000000	0.000668  
2513.000000	0.000816  
2512.000000	0.000924  
2511.000000	0.000964  
2510.000000	0.000910  
2509.000000	0.000788  
2508.000000	0.000695  
2507.000000	0.000701  
2506.000000	0.000763  
2505.000000	0.000775  
2504.000000	0.000696  
2503.000000	0.000583  
2502.000000	0.000508  
2501.000000	0.000490  
2500.000000	0.000524  
2499.000000	0.000618  
2498.000000	0.000747  
2497.000000	0.000836  
2496.000000	0.000830  
2495.000000	0.000768  
2494.000000	0.000726  
2493.000000	0.000704  
2492.000000	0.000647  
2491.000000	0.000542  
2490.000000	0.000449  
2489.000000	0.000409  
2488.000000	0.000402  
2487.000000	0.000421  
2486.000000	0.000502  
2485.000000	0.000648  
2484.000000	0.000779  
2483.000000	0.000800  
2482.000000	0.000710  
2481.000000	0.000577  
2480.000000	0.000455  
2479.000000	0.000337  
2478.000000	0.000210  
2477.000000	0.000080  
2476.000000	-0.000026 
2475.000000	-0.000092 
2474.000000	-0.000120 
2473.000000	-0.000138 
2472.000000	-0.000163 
2471.000000	-0.000167 
2470.000000	-0.000102 
2469.000000	0.000017  
2468.000000	0.000109  
2467.000000	0.000126  
2466.000000	0.000117  
2465.000000	0.000148  
2464.000000	0.000207  
2463.000000	0.000228  
2462.000000	0.000195  
2461.000000	0.000150  
2460.000000	0.000127  
2459.000000	0.000124  
2458.000000	0.000135  
2457.000000	0.000155  
2456.000000	0.000162  
2455.000000	0.000131  
2454.000000	0.000072  
2453.000000	0.000027  
2452.000000	0.000029  
2451.000000	0.000081  
2450.000000	0.000179  
2449.000000	0.000299  
2448.000000	0.000382  
2447.000000	0.000365  
2446.000000	0.000244  
2445.000000	0.000075  
2444.000000	-0.000065 
2443.000000	-0.000121 
2442.000000	-0.000070 
2441.000000	0.000031  
2440.000000	0.000061  
2439.000000	-0.000058 
2438.000000	-0.000254 
2437.000000	-0.000362 
2436.000000	-0.000303 
2435.000000	-0.000165 
2434.000000	-0.000090 
2433.000000	-0.000125 
2432.000000	-0.000188 
2431.000000	-0.000152 
2430.000000	0.000048  
2429.000000	0.000336  
2428.000000	0.000526  
2427.000000	0.000487  
2426.000000	0.000282  
2425.000000	0.000097  
2424.000000	0.000041  
2423.000000	0.000059  
2422.000000	0.000071  
2421.000000	0.000087  
2420.000000	0.000152  
2419.000000	0.000234  
2418.000000	0.000257  
2417.000000	0.000218  
2416.000000	0.000189  
2415.000000	0.000222  
2414.000000	0.000302  
2413.000000	0.000401  
2412.000000	0.000494  
2411.000000	0.000525  
2410.000000	0.000428  
2409.000000	0.000231  
2408.000000	0.000077  
2407.000000	0.000066  
2406.000000	0.000126  
2405.000000	0.000095  
2404.000000	-0.000060 
2403.000000	-0.000196 
2402.000000	-0.000160 
2401.000000	0.000024  
2400.000000	0.000204  
2399.000000	0.000263  
2398.000000	0.000219  
2397.000000	0.000161  
2396.000000	0.000159  
2395.000000	0.000230  
2394.000000	0.000353  
2393.000000	0.000476  
2392.000000	0.000555  
2391.000000	0.000584  
2390.000000	0.000569  
2389.000000	0.000482  
2388.000000	0.000278  
2387.000000	-0.000023 
2386.000000	-0.000303 
2385.000000	-0.000423 
2384.000000	-0.000337 
2383.000000	-0.000099 
2382.000000	0.000206  
2381.000000	0.000515  
2380.000000	0.000777  
2379.000000	0.000960  
2378.000000	0.001054  
2377.000000	0.001034  
2376.000000	0.000855  
2375.000000	0.000534  
2374.000000	0.000240  
2373.000000	0.000188  
2372.000000	0.000394  
2371.000000	0.000630  
2370.000000	0.000712  
2369.000000	0.000711  
2368.000000	0.000818  
2367.000000	0.001108  
2366.000000	0.001522  
2365.000000	0.001893  
2364.000000	0.001898  
2363.000000	0.001261  
2362.000000	0.000186  
2361.000000	-0.000603 
2360.000000	-0.000567 
2359.000000	0.000075  
2358.000000	0.000710  
2357.000000	0.001012  
2356.000000	0.001104  
2355.000000	0.001203  
2354.000000	0.001334  
2353.000000	0.001314  
2352.000000	0.000997  
2351.000000	0.000523  
2350.000000	0.000228  
2349.000000	0.000337  
2348.000000	0.000762  
2347.000000	0.001109  
2346.000000	0.001035  
2345.000000	0.000646  
2344.000000	0.000350  
2343.000000	0.000343  
2342.000000	0.000533  
2341.000000	0.000772  
2340.000000	0.000925  
2339.000000	0.000932  
2338.000000	0.000856  
2337.000000	0.000789  
2336.000000	0.000732  
2335.000000	0.000639  
2334.000000	0.000540  
2333.000000	0.000476  
2332.000000	0.000387  
2331.000000	0.000193  
2330.000000	-0.000037 
2329.000000	-0.000138 
2328.000000	-0.000047 
2327.000000	0.000109  
2326.000000	0.000199  
2325.000000	0.000197  
2324.000000	0.000186  
2323.000000	0.000228  
2322.000000	0.000270  
2321.000000	0.000201  
2320.000000	-0.000030 
2319.000000	-0.000331 
2318.000000	-0.000538 
2317.000000	-0.000538 
2316.000000	-0.000344 
2315.000000	-0.000077 
2314.000000	0.000106  
2313.000000	0.000096  
2312.000000	-0.000106 
2311.000000	-0.000385 
2310.000000	-0.000600 
2309.000000	-0.000696 
2308.000000	-0.000710 
2307.000000	-0.000695 
2306.000000	-0.000686 
2305.000000	-0.000717 
2304.000000	-0.000819 
2303.000000	-0.000973 
2302.000000	-0.001106 
2301.000000	-0.001167 
2300.000000	-0.001179 
2299.000000	-0.001196 
2298.000000	-0.001226 
2297.000000	-0.001236 
2296.000000	-0.001199 
2295.000000	-0.001115 
2294.000000	-0.001009 
2293.000000	-0.000942 
2292.000000	-0.000973 
2291.000000	-0.001086 
2290.000000	-0.001154 
2289.000000	-0.001056 
2288.000000	-0.000809 
2287.000000	-0.000554 
2286.000000	-0.000425 
2285.000000	-0.000445 
2284.000000	-0.000538 
2283.000000	-0.000589 
2282.000000	-0.000518 
2281.000000	-0.000352 
2280.000000	-0.000219 
2279.000000	-0.000230 
2278.000000	-0.000355 
2277.000000	-0.000469 
2276.000000	-0.000499 
2275.000000	-0.000470 
2274.000000	-0.000422 
2273.000000	-0.000360 
2272.000000	-0.000308 
2271.000000	-0.000314 
2270.000000	-0.000375 
2269.000000	-0.000415 
2268.000000	-0.000372 
2267.000000	-0.000261 
2266.000000	-0.000135 
2265.000000	-0.000044 
2264.000000	-0.000061 
2263.000000	-0.000274 
2262.000000	-0.000668 
2261.000000	-0.001051 
2260.000000	-0.001199 
2259.000000	-0.001081 
2258.000000	-0.000889 
2257.000000	-0.000829 
2256.000000	-0.000913 
2255.000000	-0.000990 
2254.000000	-0.000948 
2253.000000	-0.000828 
2252.000000	-0.000733 
2251.000000	-0.000697 
2250.000000	-0.000685 
2249.000000	-0.000689 
2248.000000	-0.000747 
2247.000000	-0.000861 
2246.000000	-0.000965 
2245.000000	-0.000988 
2244.000000	-0.000912 
2243.000000	-0.000748 
2242.000000	-0.000542 
2241.000000	-0.000409 
2240.000000	-0.000470 
2239.000000	-0.000677 
2238.000000	-0.000793 
2237.000000	-0.000647 
2236.000000	-0.000369 
2235.000000	-0.000256 
2234.000000	-0.000406 
2233.000000	-0.000600 
2232.000000	-0.000554 
2231.000000	-0.000222 
2230.000000	0.000152  
2229.000000	0.000238  
2228.000000	-0.000115 
2227.000000	-0.000732 
2226.000000	-0.001206 
2225.000000	-0.001219 
2224.000000	-0.000784 
2223.000000	-0.000183 
2222.000000	0.000303  
2221.000000	0.000536  
2220.000000	0.000483  
2219.000000	0.000190  
2218.000000	-0.000200 
2217.000000	-0.000498 
2216.000000	-0.000603 
2215.000000	-0.000556 
2214.000000	-0.000452 
2213.000000	-0.000375 
2212.000000	-0.000390 
2211.000000	-0.000493 
2210.000000	-0.000553 
2209.000000	-0.000404 
2208.000000	-0.000028 
2207.000000	0.000385  
2206.000000	0.000611  
2205.000000	0.000575  
2204.000000	0.000371  
2203.000000	0.000159  
2202.000000	0.000064  
2201.000000	0.000100  
2200.000000	0.000171  
2199.000000	0.000165  
2198.000000	0.000056  
2197.000000	-0.000109 
2196.000000	-0.000304 
2195.000000	-0.000505 
2194.000000	-0.000613 
2193.000000	-0.000507 
2192.000000	-0.000216 
2191.000000	0.000048  
2190.000000	0.000098  
2189.000000	-0.000045 
2188.000000	-0.000227 
2187.000000	-0.000348 
2186.000000	-0.000449 
2185.000000	-0.000595 
2184.000000	-0.000756 
2183.000000	-0.000820 
2182.000000	-0.000729 
2181.000000	-0.000563 
2180.000000	-0.000451 
2179.000000	-0.000421 
2178.000000	-0.000400 
2177.000000	-0.000358 
2176.000000	-0.000358 
2175.000000	-0.000407 
2174.000000	-0.000388 
2173.000000	-0.000229 
2172.000000	-0.000066 
2171.000000	-0.000100 
2170.000000	-0.000318 
2169.000000	-0.000485 
2168.000000	-0.000427 
2167.000000	-0.000218 
2166.000000	-0.000058 
2165.000000	-0.000046 
2164.000000	-0.000124 
2163.000000	-0.000214 
2162.000000	-0.000310 
2161.000000	-0.000424 
2160.000000	-0.000475 
2159.000000	-0.000326 
2158.000000	-0.000017 
2157.000000	0.000181  
2156.000000	0.000071  
2155.000000	-0.000214 
2154.000000	-0.000390 
2153.000000	-0.000376 
2152.000000	-0.000325 
2151.000000	-0.000332 
2150.000000	-0.000314 
2149.000000	-0.000225 
2148.000000	-0.000154 
2147.000000	-0.000116 
2146.000000	0.000041  
2145.000000	0.000378  
2144.000000	0.000656  
2143.000000	0.000606  
2142.000000	0.000266  
2141.000000	-0.000095 
2140.000000	-0.000314 
2139.000000	-0.000424 
2138.000000	-0.000503 
2137.000000	-0.000589 
2136.000000	-0.000695 
2135.000000	-0.000765 
2134.000000	-0.000685 
2133.000000	-0.000472 
2132.000000	-0.000374 
2131.000000	-0.000614 
2130.000000	-0.001073 
2129.000000	-0.001394 
2128.000000	-0.001373 
2127.000000	-0.001116 
2126.000000	-0.000837 
2125.000000	-0.000637 
2124.000000	-0.000505 
2123.000000	-0.000396 
2122.000000	-0.000262 
2121.000000	-0.000102 
2120.000000	-0.000009 
2119.000000	-0.000076 
2118.000000	-0.000257 
2117.000000	-0.000407 
2116.000000	-0.000448 
2115.000000	-0.000420 
2114.000000	-0.000355 
2113.000000	-0.000236 
2112.000000	-0.000114 
2111.000000	-0.000119 
2110.000000	-0.000289 
2109.000000	-0.000499 
2108.000000	-0.000615 
2107.000000	-0.000639 
2106.000000	-0.000633 
2105.000000	-0.000606 
2104.000000	-0.000537 
2103.000000	-0.000451 
2102.000000	-0.000390 
2101.000000	-0.000356 
2100.000000	-0.000346 
2099.000000	-0.000392 
2098.000000	-0.000503 
2097.000000	-0.000602 
2096.000000	-0.000576 
2095.000000	-0.000372 
2094.000000	-0.000036 
2093.000000	0.000308  
2092.000000	0.000508  
2091.000000	0.000484  
2090.000000	0.000312  
2089.000000	0.000144  
2088.000000	0.000040  
2087.000000	-0.000056 
2086.000000	-0.000188 
2085.000000	-0.000309 
2084.000000	-0.000391 
2083.000000	-0.000484 
2082.000000	-0.000629 
2081.000000	-0.000780 
2080.000000	-0.000871 
2079.000000	-0.000896 
2078.000000	-0.000870 
2077.000000	-0.000778 
2076.000000	-0.000634 
2075.000000	-0.000520 
2074.000000	-0.000511 
2073.000000	-0.000597 
2072.000000	-0.000718 
2071.000000	-0.000825 
2070.000000	-0.000869 
2069.000000	-0.000804 
2068.000000	-0.000653 
2067.000000	-0.000511 
2066.000000	-0.000431 
2065.000000	-0.000369 
2064.000000	-0.000267 
2063.000000	-0.000144 
2062.000000	-0.000052 
2061.000000	-0.000013 
2060.000000	-0.000039 
2059.000000	-0.000137 
2058.000000	-0.000266 
2057.000000	-0.000328 
2056.000000	-0.000269 
2055.000000	-0.000137 
2054.000000	-0.000028 
2053.000000	-0.000016 
2052.000000	-0.000145 
2051.000000	-0.000387 
2050.000000	-0.000599 
2049.000000	-0.000624 
2048.000000	-0.000490 
2047.000000	-0.000388 
2046.000000	-0.000422 
2045.000000	-0.000517 
2044.000000	-0.000607 
2043.000000	-0.000715 
2042.000000	-0.000787 
2041.000000	-0.000643 
2040.000000	-0.000254 
2039.000000	0.000119  
2038.000000	0.000221  
2037.000000	0.000084  
2036.000000	-0.000098 
2035.000000	-0.000263 
2034.000000	-0.000447 
2033.000000	-0.000565 
2032.000000	-0.000460 
2031.000000	-0.000143 
2030.000000	0.000179  
2029.000000	0.000317  
2028.000000	0.000236  
2027.000000	0.000026  
2026.000000	-0.000196 
2025.000000	-0.000350 
2024.000000	-0.000430 
2023.000000	-0.000459 
2022.000000	-0.000355 
2021.000000	0.000016  
2020.000000	0.000588  
2019.000000	0.000990  
2018.000000	0.000835  
2017.000000	0.000147  
2016.000000	-0.000622 
2015.000000	-0.001054 
2014.000000	-0.001072 
2013.000000	-0.000894 
2012.000000	-0.000803 
2011.000000	-0.000936 
2010.000000	-0.001201 
2009.000000	-0.001396 
2008.000000	-0.001411 
2007.000000	-0.001248 
2006.000000	-0.000914 
2005.000000	-0.000445 
2004.000000	-0.000033 
2003.000000	0.000061  
2002.000000	-0.000192 
2001.000000	-0.000521 
2000.000000	-0.000615 
1999.000000	-0.000424 
1998.000000	-0.000130 
1997.000000	0.000060  
1996.000000	0.000018  
1995.000000	-0.000281 
1994.000000	-0.000709 
1993.000000	-0.000966 
1992.000000	-0.000837 
1991.000000	-0.000460 
1990.000000	-0.000150 
1989.000000	-0.000059 
1988.000000	-0.000141 
1987.000000	-0.000334 
1986.000000	-0.000649 
1985.000000	-0.001063 
1984.000000	-0.001431 
1983.000000	-0.001543 
1982.000000	-0.001296 
1981.000000	-0.000828 
1980.000000	-0.000443 
1979.000000	-0.000372 
1978.000000	-0.000570 
1977.000000	-0.000820 
1976.000000	-0.001005 
1975.000000	-0.001152 
1974.000000	-0.001240 
1973.000000	-0.001170 
1972.000000	-0.000959 
1971.000000	-0.000735 
1970.000000	-0.000507 
1969.000000	-0.000118 
1968.000000	0.000456  
1967.000000	0.000924  
1966.000000	0.001005  
1965.000000	0.000795  
1964.000000	0.000576  
1963.000000	0.000473  
1962.000000	0.000440  
1961.000000	0.000413  
1960.000000	0.000342  
1959.000000	0.000154  
1958.000000	-0.000170 
1957.000000	-0.000516 
1956.000000	-0.000745 
1955.000000	-0.000838 
1954.000000	-0.000840 
1953.000000	-0.000735 
1952.000000	-0.000535 
1951.000000	-0.000391 
1950.000000	-0.000456 
1949.000000	-0.000649 
1948.000000	-0.000721 
1947.000000	-0.000579 
1946.000000	-0.000417 
1945.000000	-0.000464 
1944.000000	-0.000692 
1943.000000	-0.000851 
1942.000000	-0.000781 
1941.000000	-0.000576 
1940.000000	-0.000390 
1939.000000	-0.000274 
1938.000000	-0.000220 
1937.000000	-0.000228 
1936.000000	-0.000296 
1935.000000	-0.000385 
1934.000000	-0.000427 
1933.000000	-0.000372 
1932.000000	-0.000236 
1931.000000	-0.000077 
1930.000000	0.000053  
1929.000000	0.000105  
1928.000000	0.000041  
1927.000000	-0.000114 
1926.000000	-0.000260 
1925.000000	-0.000285 
1924.000000	-0.000177 
1923.000000	-0.000036 
1922.000000	0.000015  
1921.000000	-0.000056 
1920.000000	-0.000207 
1919.000000	-0.000335 
1918.000000	-0.000306 
1917.000000	-0.000100 
1916.000000	0.000118  
1915.000000	0.000182  
1914.000000	0.000078  
1913.000000	-0.000065 
1912.000000	-0.000119 
1911.000000	-0.000056 
1910.000000	0.000072  
1909.000000	0.000207  
1908.000000	0.000302  
1907.000000	0.000323  
1906.000000	0.000265  
1905.000000	0.000165  
1904.000000	0.000068  
1903.000000	0.000009  
1902.000000	0.000001  
1901.000000	0.000009  
1900.000000	-0.000030 
1899.000000	-0.000154 
1898.000000	-0.000313 
1897.000000	-0.000417 
1896.000000	-0.000427 
1895.000000	-0.000374 
1894.000000	-0.000289 
1893.000000	-0.000180 
1892.000000	-0.000067 
1891.000000	0.000011  
1890.000000	0.000044  
1889.000000	0.000046  
1888.000000	0.000016  
1887.000000	-0.000052 
1886.000000	-0.000122 
1885.000000	-0.000141 
1884.000000	-0.000129 
1883.000000	-0.000169 
1882.000000	-0.000284 
1881.000000	-0.000390 
1880.000000	-0.000406 
1879.000000	-0.000347 
1878.000000	-0.000271 
1877.000000	-0.000194 
1876.000000	-0.000116 
1875.000000	-0.000076 
1874.000000	-0.000107 
1873.000000	-0.000186 
1872.000000	-0.000281 
1871.000000	-0.000394 
1870.000000	-0.000502 
1869.000000	-0.000483 
1868.000000	-0.000280 
1867.000000	-0.000059 
1866.000000	0.000015  
1865.000000	-0.000072 
1864.000000	-0.000239 
1863.000000	-0.000387 
1862.000000	-0.000445 
1861.000000	-0.000405 
1860.000000	-0.000330 
1859.000000	-0.000310 
1858.000000	-0.000380 
1857.000000	-0.000475 
1856.000000	-0.000503 
1855.000000	-0.000433 
1854.000000	-0.000297 
1853.000000	-0.000167 
1852.000000	-0.000093 
1851.000000	-0.000094 
1850.000000	-0.000153 
1849.000000	-0.000212 
1848.000000	-0.000211 
1847.000000	-0.000145 
1846.000000	-0.000058 
1845.000000	0.000011  
1844.000000	0.000067  
1843.000000	0.000108  
1842.000000	0.000135  
1841.000000	0.000132  
1840.000000	0.000069  
1839.000000	-0.000058 
1838.000000	-0.000199 
1837.000000	-0.000279 
1836.000000	-0.000286 
1835.000000	-0.000268 
1834.000000	-0.000264 
1833.000000	-0.000271 
1832.000000	-0.000271 
1831.000000	-0.000278 
1830.000000	-0.000311 
1829.000000	-0.000367 
1828.000000	-0.000437 
1827.000000	-0.000496 
1826.000000	-0.000515 
1825.000000	-0.000456 
1824.000000	-0.000337 
1823.000000	-0.000237 
1822.000000	-0.000213 
1821.000000	-0.000263 
1820.000000	-0.000340 
1819.000000	-0.000384 
1818.000000	-0.000337 
1817.000000	-0.000191 
1816.000000	-0.000039 
1815.000000	0.000024  
1814.000000	-0.000008 
1813.000000	-0.000069 
1812.000000	-0.000129 
1811.000000	-0.000227 
1810.000000	-0.000359 
1809.000000	-0.000451 
1808.000000	-0.000475 
1807.000000	-0.000471 
1806.000000	-0.000460 
1805.000000	-0.000412 
1804.000000	-0.000307 
1803.000000	-0.000163 
1802.000000	-0.000025 
1801.000000	0.000084  
1800.000000	0.000137  
1799.000000	0.000089  
1798.000000	-0.000020 
1797.000000	-0.000062 
1796.000000	0.000043  
1795.000000	0.000240  
1794.000000	0.000392  
1793.000000	0.000433  
1792.000000	0.000406  
1791.000000	0.000361  
1790.000000	0.000328  
1789.000000	0.000318  
1788.000000	0.000306  
1787.000000	0.000275  
1786.000000	0.000258  
1785.000000	0.000312  
1784.000000	0.000432  
1783.000000	0.000556  
1782.000000	0.000619  
1781.000000	0.000644  
1780.000000	0.000713  
1779.000000	0.000820  
1778.000000	0.000911  
1777.000000	0.000962  
1776.000000	0.001000  
1775.000000	0.001039  
1774.000000	0.001042  
1773.000000	0.001025  
1772.000000	0.001095  
1771.000000	0.001178  
1770.000000	0.001203  
1769.000000	0.001291  
1768.000000	0.001520  
1767.000000	0.001800  
1766.000000	0.002022  
1765.000000	0.002206  
1764.000000	0.002422  
1763.000000	0.002666  
1762.000000	0.002861  
1761.000000	0.003028  
1760.000000	0.003282  
1759.000000	0.003672  
1758.000000	0.004193  
1757.000000	0.004847  
1756.000000	0.005586  
1755.000000	0.006279  
1754.000000	0.006907  
1753.000000	0.007706  
1752.000000	0.009119  
1751.000000	0.011465  
1750.000000	0.014743  
1749.000000	0.018876  
1748.000000	0.023584  
1747.000000	0.028335  
1746.000000	0.033007  
1745.000000	0.037966  
1744.000000	0.043127  
1743.000000	0.047559  
1742.000000	0.050422  
1741.000000	0.051501  
1740.000000	0.050731  
1739.000000	0.048487  
1738.000000	0.045790  
1737.000000	0.043178  
1736.000000	0.040113  
1735.000000	0.035492  
1734.000000	0.029902  
1733.000000	0.025916  
1732.000000	0.023861  
1731.000000	0.022593  
1730.000000	0.021583  
1729.000000	0.020756  
1728.000000	0.020113  
1727.000000	0.019655  
1726.000000	0.019361  
1725.000000	0.019183  
1724.000000	0.019022  
1723.000000	0.018803  
1722.000000	0.018526  
1721.000000	0.018172  
1720.000000	0.017630  
1719.000000	0.016737  
1718.000000	0.015562  
1717.000000	0.014491  
1716.000000	0.013573  
1715.000000	0.012676  
1714.000000	0.011843  
1713.000000	0.011088  
1712.000000	0.010322  
1711.000000	0.009498  
1710.000000	0.008697  
1709.000000	0.008030  
1708.000000	0.007493  
1707.000000	0.006935  
1706.000000	0.006252  
1705.000000	0.005563  
1704.000000	0.005017  
1703.000000	0.004647  
1702.000000	0.004394  
1701.000000	0.004098  
1700.000000	0.003717  
1699.000000	0.003428  
1698.000000	0.003349  
1697.000000	0.003370  
1696.000000	0.003270  
1695.000000	0.003018  
1694.000000	0.002831  
1693.000000	0.002763  
1692.000000	0.002666  
1691.000000	0.002460  
1690.000000	0.002238  
1689.000000	0.002112  
1688.000000	0.002098  
1687.000000	0.002140  
1686.000000	0.002167  
1685.000000	0.002090  
1684.000000	0.001987  
1683.000000	0.001937  
1682.000000	0.002002  
1681.000000	0.002118  
1680.000000	0.002153  
1679.000000	0.002103  
1678.000000	0.002052  
1677.000000	0.002020  
1676.000000	0.001930  
1675.000000	0.001787  
1674.000000	0.001701  
1673.000000	0.001723  
1672.000000	0.001777  
1671.000000	0.001800  
1670.000000	0.001864  
1669.000000	0.001977  
1668.000000	0.002026  
1667.000000	0.002035  
1666.000000	0.002068  
1665.000000	0.002126  
1664.000000	0.002172  
1663.000000	0.002254  
1662.000000	0.002439  
1661.000000	0.002634  
1660.000000	0.002739  
1659.000000	0.002741  
1658.000000	0.002689  
1657.000000	0.002643  
1656.000000	0.002662  
1655.000000	0.002710  
1654.000000	0.002740  
1653.000000	0.002937  
1652.000000	0.002990  
1651.000000	0.002958  
1650.000000	0.002975  
1649.000000	0.002953  
1648.000000	0.002860  
1647.000000	0.002884  
1646.000000	0.003058  
1645.000000	0.003144  
1644.000000	0.003123  
1643.000000	0.003066  
1642.000000	0.003048  
1641.000000	0.003095  
1640.000000	0.003152  
1639.000000	0.003150  
1638.000000	0.003094  
1637.000000	0.003044  
1636.000000	0.003043  
1635.000000	0.002965  
1634.000000	0.002797  
1633.000000	0.002709  
1632.000000	0.002675  
1631.000000	0.002616  
1630.000000	0.002536  
1629.000000	0.002479  
1628.000000	0.002458  
1627.000000	0.002461  
1626.000000	0.002493  
1625.000000	0.002555  
1624.000000	0.002579  
1623.000000	0.002504  
1622.000000	0.002372  
1621.000000	0.002262  
1620.000000	0.002203  
1619.000000	0.002143  
1618.000000	0.002042  
1617.000000	0.001968  
1616.000000	0.001991  
1615.000000	0.002042  
1614.000000	0.002098  
1613.000000	0.002147  
1612.000000	0.002142  
1611.000000	0.002079  
1610.000000	0.002003  
1609.000000	0.001966  
1608.000000	0.001980  
1607.000000	0.002044  
1606.000000	0.002134  
1605.000000	0.002201  
1604.000000	0.002211  
1603.000000	0.002154  
1602.000000	0.002048  
1601.000000	0.001909  
1600.000000	0.001746  
1599.000000	0.001581  
1598.000000	0.001455  
1597.000000	0.001404  
1596.000000	0.001433  
1595.000000	0.001524  
1594.000000	0.001640  
1593.000000	0.001728  
1592.000000	0.001761  
1591.000000	0.001777  
1590.000000	0.001827  
1589.000000	0.001898  
1588.000000	0.001931  
1587.000000	0.001926  
1586.000000	0.001960  
1585.000000	0.002066  
1584.000000	0.002196  
1583.000000	0.002295  
1582.000000	0.002350  
1581.000000	0.002378  
1580.000000	0.002402  
1579.000000	0.002428  
1578.000000	0.002429  
1577.000000	0.002393  
1576.000000	0.002356  
1575.000000	0.002323  
1574.000000	0.002316  
1573.000000	0.002359  
1572.000000	0.002403  
1571.000000	0.002387  
1570.000000	0.002365  
1569.000000	0.002407  
1568.000000	0.002469  
1567.000000	0.002526  
1566.000000	0.002580  
1565.000000	0.002569  
1564.000000	0.002457  
1563.000000	0.002252  
1562.000000	0.002099  
1561.000000	0.002116  
1560.000000	0.002280  
1559.000000	0.002346  
1558.000000	0.002160  
1557.000000	0.001897  
1556.000000	0.001805  
1555.000000	0.001779  
1554.000000	0.001708  
1553.000000	0.001593  
1552.000000	0.001476  
1551.000000	0.001395  
1550.000000	0.001424  
1549.000000	0.001548  
1548.000000	0.001619  
1547.000000	0.001552  
1546.000000	0.001409  
1545.000000	0.001341  
1544.000000	0.001368  
1543.000000	0.001324  
1542.000000	0.001148  
1541.000000	0.001221  
1540.000000	0.001742  
1539.000000	0.001983  
1538.000000	0.001876  
1537.000000	0.001837  
1536.000000	0.001868  
1535.000000	0.001862  
1534.000000	0.001844  
1533.000000	0.001977  
1532.000000	0.002182  
1531.000000	0.002288  
1530.000000	0.002267  
1529.000000	0.002162  
1528.000000	0.002045  
1527.000000	0.001988  
1526.000000	0.002042  
1525.000000	0.002196  
1524.000000	0.002355  
1523.000000	0.002414  
1522.000000	0.002482  
1521.000000	0.002698  
1520.000000	0.002893  
1519.000000	0.002978  
1518.000000	0.003012  
1517.000000	0.003076  
1516.000000	0.003141  
1515.000000	0.003136  
1514.000000	0.003135  
1513.000000	0.003211  
1512.000000	0.003341  
1511.000000	0.003450  
1510.000000	0.003587  
1509.000000	0.003898  
1508.000000	0.004420  
1507.000000	0.004806  
1506.000000	0.004821  
1505.000000	0.004778  
1504.000000	0.004882  
1503.000000	0.005026  
1502.000000	0.005183  
1501.000000	0.005387  
1500.000000	0.005596  
1499.000000	0.005702  
1498.000000	0.005787  
1497.000000	0.006126  
1496.000000	0.006608  
1495.000000	0.006879  
1494.000000	0.006954  
1493.000000	0.006993  
1492.000000	0.007042  
1491.000000	0.007177  
1490.000000	0.007653  
1489.000000	0.008502  
1488.000000	0.009283  
1487.000000	0.009792  
1486.000000	0.010261  
1485.000000	0.010859  
1484.000000	0.011567  
1483.000000	0.012382  
1482.000000	0.013433  
1481.000000	0.014721  
1480.000000	0.015977  
1479.000000	0.017062  
1478.000000	0.018239  
1477.000000	0.019802  
1476.000000	0.021669  
1475.000000	0.023820  
1474.000000	0.027349  
1473.000000	0.033716  
1472.000000	0.041514  
1471.000000	0.048128  
1470.000000	0.053593  
1469.000000	0.058682  
1468.000000	0.063371  
1467.000000	0.067423  
1466.000000	0.070842  
1465.000000	0.073580  
1464.000000	0.075268  
1463.000000	0.075986  
1462.000000	0.076298  
1461.000000	0.076513  
1460.000000	0.076673  
1459.000000	0.076911  
1458.000000	0.077519  
1457.000000	0.077649  
1456.000000	0.076116  
1455.000000	0.073761  
1454.000000	0.071345  
1453.000000	0.068736  
1452.000000	0.065936  
1451.000000	0.063234  
1450.000000	0.060811  
1449.000000	0.058420  
1448.000000	0.055799  
1447.000000	0.053087  
1446.000000	0.050474  
1445.000000	0.047881  
1444.000000	0.045243  
1443.000000	0.042673  
1442.000000	0.040304  
1441.000000	0.038140  
1440.000000	0.036141  
1439.000000	0.034256  
1438.000000	0.032367  
1437.000000	0.030409  
1436.000000	0.028694  
1435.000000	0.027491  
1434.000000	0.026518  
1433.000000	0.025387  
1432.000000	0.024010  
1431.000000	0.022548  
1430.000000	0.021164  
1429.000000	0.019944  
1428.000000	0.018976  
1427.000000	0.018295  
1426.000000	0.017787  
1425.000000	0.017319  
1424.000000	0.016930  
1423.000000	0.016679  
1422.000000	0.016451  
1421.000000	0.016094  
1420.000000	0.015640  
1419.000000	0.015254  
1418.000000	0.014951  
1417.000000	0.014636  
1416.000000	0.014318  
1415.000000	0.014015  
1414.000000	0.013684  
1413.000000	0.013314  
1412.000000	0.012997  
1411.000000	0.012822  
1410.000000	0.012737  
1409.000000	0.012643  
1408.000000	0.012544  
1407.000000	0.012523  
1406.000000	0.012619  
1405.000000	0.012817  
1404.000000	0.013117  
1403.000000	0.013474  
1402.000000	0.013785  
1401.000000	0.014014  
1400.000000	0.014266  
1399.000000	0.014633  
1398.000000	0.015021  
1397.000000	0.015329  
1396.000000	0.015637  
1395.000000	0.016041  
1394.000000	0.016459  
1393.000000	0.016808  
1392.000000	0.017143  
1391.000000	0.017520  
1390.000000	0.017982  
1389.000000	0.018716  
1388.000000	0.020068  
1387.000000	0.022109  
1386.000000	0.024403  
1385.000000	0.026631  
1384.000000	0.028936  
1383.000000	0.031565  
1382.000000	0.034588  
1381.000000	0.037874  
1380.000000	0.041089  
1379.000000	0.043630  
1378.000000	0.044889  
1377.000000	0.044646  
1376.000000	0.042971  
1375.000000	0.040035  
1374.000000	0.036442  
1373.000000	0.033191  
1372.000000	0.030798  
1371.000000	0.029137  
1370.000000	0.028006  
1369.000000	0.027348  
1368.000000	0.027064  
1367.000000	0.026872  
1366.000000	0.026450  
1365.000000	0.025625  
1364.000000	0.024420  
1363.000000	0.023074  
1362.000000	0.021934  
1361.000000	0.021143  
1360.000000	0.020607  
1359.000000	0.020212  
1358.000000	0.019907  
1357.000000	0.019671  
1356.000000	0.019494  
1355.000000	0.019380  
1354.000000	0.019326  
1353.000000	0.019306  
1352.000000	0.019283  
1351.000000	0.019228  
1350.000000	0.019126  
1349.000000	0.018975  
1348.000000	0.018800  
1347.000000	0.018624  
1346.000000	0.018444  
1345.000000	0.018242  
1344.000000	0.018030  
1343.000000	0.017840  
1342.000000	0.017682  
1341.000000	0.017526  
1340.000000	0.017323  
1339.000000	0.017050  
1338.000000	0.016733  
1337.000000	0.016407  
1336.000000	0.016086  
1335.000000	0.015773  
1334.000000	0.015469  
1333.000000	0.015188  
1332.000000	0.014967  
1331.000000	0.014844  
1330.000000	0.014813  
1329.000000	0.014834  
1328.000000	0.014885  
1327.000000	0.014965  
1326.000000	0.015057  
1325.000000	0.015141  
1324.000000	0.015227  
1323.000000	0.015339  
1322.000000	0.015460  
1321.000000	0.015535  
1320.000000	0.015536  
1319.000000	0.015504  
1318.000000	0.015502  
1317.000000	0.015563  
1316.000000	0.015696  
1315.000000	0.015901  
1314.000000	0.016144  
1313.000000	0.016357  
1312.000000	0.016494  
1311.000000	0.016582  
1310.000000	0.016674  
1309.000000	0.016791  
1308.000000	0.016910  
1307.000000	0.016999  
1306.000000	0.017046  
1305.000000	0.017063  
1304.000000	0.017062  
1303.000000	0.017035  
1302.000000	0.016962  
1301.000000	0.016836  
1300.000000	0.016671  
1299.000000	0.016494  
1298.000000	0.016323  
1297.000000	0.016168  
1296.000000	0.016038  
1295.000000	0.015930  
1294.000000	0.015821  
1293.000000	0.015694  
1292.000000	0.015557  
1291.000000	0.015430  
1290.000000	0.015328  
1289.000000	0.015273  
1288.000000	0.015303  
1287.000000	0.015433  
1286.000000	0.015632  
1285.000000	0.015851  
1284.000000	0.016066  
1283.000000	0.016279  
1282.000000	0.016482  
1281.000000	0.016678  
1280.000000	0.016889  
1279.000000	0.017122  
1278.000000	0.017346  
1277.000000	0.017525  
1276.000000	0.017669  
1275.000000	0.017808  
1274.000000	0.017933  
1273.000000	0.018008  
1272.000000	0.018036  
1271.000000	0.018063  
1270.000000	0.018106  
1269.000000	0.018127  
1268.000000	0.018111  
1267.000000	0.018105  
1266.000000	0.018160  
1265.000000	0.018256  
1264.000000	0.018331  
1263.000000	0.018362  
1262.000000	0.018402  
1261.000000	0.018520  
1260.000000	0.018730  
1259.000000	0.018976  
1258.000000	0.019182  
1257.000000	0.019334  
1256.000000	0.019489  
1255.000000	0.019716  
1254.000000	0.020019  
1253.000000	0.020344  
1252.000000	0.020648  
1251.000000	0.020940  
1250.000000	0.021253  
1249.000000	0.021594  
1248.000000	0.021932  
1247.000000	0.022220  
1246.000000	0.022422  
1245.000000	0.022523  
1244.000000	0.022535  
1243.000000	0.022478  
1242.000000	0.022368  
1241.000000	0.022200  
1240.000000	0.021958  
1239.000000	0.021627  
1238.000000	0.021217  
1237.000000	0.020775  
1236.000000	0.020358  
1235.000000	0.020003  
1234.000000	0.019709  
1233.000000	0.019451  
1232.000000	0.019209  
1231.000000	0.018968  
1230.000000	0.018720  
1229.000000	0.018470  
1228.000000	0.018245  
1227.000000	0.018068  
1226.000000	0.017941  
1225.000000	0.017860  
1224.000000	0.017842  
1223.000000	0.017895  
1222.000000	0.017984  
1221.000000	0.018067  
1220.000000	0.018155  
1219.000000	0.018295  
1218.000000	0.018503  
1217.000000	0.018736  
1216.000000	0.018944  
1215.000000	0.019110  
1214.000000	0.019240  
1213.000000	0.019341  
1212.000000	0.019431  
1211.000000	0.019545  
1210.000000	0.019716  
1209.000000	0.019947  
1208.000000	0.020216  
1207.000000	0.020497  
1206.000000	0.020780  
1205.000000	0.021079  
1204.000000	0.021422  
1203.000000	0.021813  
1202.000000	0.022226  
1201.000000	0.022633  
1200.000000	0.023038  
1199.000000	0.023465  
1198.000000	0.023926  
1197.000000	0.024420  
1196.000000	0.024938  
1195.000000	0.025468  
1194.000000	0.026000  
1193.000000	0.026543  
1192.000000	0.027125  
1191.000000	0.027743  
1190.000000	0.028357  
1189.000000	0.028934  
1188.000000	0.029496  
1187.000000	0.030088  
1186.000000	0.030713  
1185.000000	0.031343  
1184.000000	0.031953  
1183.000000	0.032537  
1182.000000	0.033076  
1181.000000	0.033542  
1180.000000	0.033924  
1179.000000	0.034232  
1178.000000	0.034464  
1177.000000	0.034595  
1176.000000	0.034620  
1175.000000	0.034567  
1174.000000	0.034466  
1173.000000	0.034319  
1172.000000	0.034105  
1171.000000	0.033817  
1170.000000	0.033444  
1169.000000	0.032963  
1168.000000	0.032369  
1167.000000	0.031702  
1166.000000	0.031013  
1165.000000	0.030308  
1164.000000	0.029550  
1163.000000	0.028715  
1162.000000	0.027814  
1161.000000	0.026882  
1160.000000	0.025982  
1159.000000	0.025181  
1158.000000	0.024490  
1157.000000	0.023838  
1156.000000	0.023160  
1155.000000	0.022498  
1154.000000	0.021957  
1153.000000	0.021559  
1152.000000	0.021195  
1151.000000	0.020746  
1150.000000	0.020211  
1149.000000	0.019672  
1148.000000	0.019200  
1147.000000	0.018799  
1146.000000	0.018433  
1145.000000	0.018065  
1144.000000	0.017675  
1143.000000	0.017267  
1142.000000	0.016861  
1141.000000	0.016474  
1140.000000	0.016113  
1139.000000	0.015768  
1138.000000	0.015429  
1137.000000	0.015096  
1136.000000	0.014779  
1135.000000	0.014496  
1134.000000	0.014267  
1133.000000	0.014099  
1132.000000	0.013981  
1131.000000	0.013885  
1130.000000	0.013799  
1129.000000	0.013772  
1128.000000	0.013900  
1127.000000	0.014237  
1126.000000	0.014734  
1125.000000	0.015290  
1124.000000	0.015854  
1123.000000	0.016439  
1122.000000	0.017062  
1121.000000	0.017707  
1120.000000	0.018348  
1119.000000	0.018963  
1118.000000	0.019508  
1117.000000	0.019912  
1116.000000	0.020120  
1115.000000	0.020131  
1114.000000	0.019970  
1113.000000	0.019657  
1112.000000	0.019219  
1111.000000	0.018726  
1110.000000	0.018282  
1109.000000	0.017969  
1108.000000	0.017808  
1107.000000	0.017750  
1106.000000	0.017705  
1105.000000	0.017609  
1104.000000	0.017469  
1103.000000	0.017348  
1102.000000	0.017289  
1101.000000	0.017275  
1100.000000	0.017250  
1099.000000	0.017186  
1098.000000	0.017091  
1097.000000	0.016998  
1096.000000	0.016941  
1095.000000	0.016931  
1094.000000	0.016947  
1093.000000	0.016975  
1092.000000	0.017053  
1091.000000	0.017243  
1090.000000	0.017559  
1089.000000	0.017948  
1088.000000	0.018378  
1087.000000	0.018897  
1086.000000	0.019587  
1085.000000	0.020489  
1084.000000	0.021586  
1083.000000	0.022842  
1082.000000	0.024212  
1081.000000	0.025657  
1080.000000	0.027162  
1079.000000	0.028751  
1078.000000	0.030441  
1077.000000	0.032179  
1076.000000	0.033848  
1075.000000	0.035321  
1074.000000	0.036484  
1073.000000	0.037225  
1072.000000	0.037463  
1071.000000	0.037215  
1070.000000	0.036600  
1069.000000	0.035750  
1068.000000	0.034756  
1067.000000	0.033731  
1066.000000	0.032844  
1065.000000	0.032227  
1064.000000	0.031866  
1063.000000	0.031620  
1062.000000	0.031335  
1061.000000	0.030885  
1060.000000	0.030159  
1059.000000	0.029111  
1058.000000	0.027829  
1057.000000	0.026525  
1056.000000	0.025420  
1055.000000	0.024654  
1054.000000	0.024285  
1053.000000	0.024321  
1052.000000	0.024726  
1051.000000	0.025403  
1050.000000	0.026207  
1049.000000	0.026997  
1048.000000	0.027668  
1047.000000	0.028157  
1046.000000	0.028455  
1045.000000	0.028598  
1044.000000	0.028623  
1043.000000	0.028541  
1042.000000	0.028356  
1041.000000	0.028096  
1040.000000	0.027805  
1039.000000	0.027496  
1038.000000	0.027150  
1037.000000	0.026776  
1036.000000	0.026478  
1035.000000	0.026421  
1034.000000	0.026726  
1033.000000	0.027388  
1032.000000	0.028258  
1031.000000	0.029085  
1030.000000	0.029579  
1029.000000	0.029507  
1028.000000	0.028790  
1027.000000	0.027548  
1026.000000	0.026031  
1025.000000	0.024495  
1024.000000	0.023112  
1023.000000	0.021958  
1022.000000	0.021025  
1021.000000	0.020255  
1020.000000	0.019601  
1019.000000	0.019075  
1018.000000	0.018729  
1017.000000	0.018605  
1016.000000	0.018707  
1015.000000	0.019005  
1014.000000	0.019430  
1013.000000	0.019870  
1012.000000	0.020196  
1011.000000	0.020299  
1010.000000	0.020118  
1009.000000	0.019655  
1008.000000	0.018968  
1007.000000	0.018148  
1006.000000	0.017276  
1005.000000	0.016404  
1004.000000	0.015590  
1003.000000	0.014907  
1002.000000	0.014391  
1001.000000	0.014016  
1000.000000	0.013748  
999.000000	 0.013631  
998.000000	 0.013742  
997.000000	 0.014090  
996.000000	 0.014594  
995.000000	 0.015156  
994.000000	 0.015700  
993.000000	 0.016132  
992.000000	 0.016338  
991.000000	 0.016260  
990.000000	 0.015959  
989.000000	 0.015539  
988.000000	 0.015051  
987.000000	 0.014497  
986.000000	 0.013915  
985.000000	 0.013375  
984.000000	 0.012917  
983.000000	 0.012536  
982.000000	 0.012243  
981.000000	 0.012080  
980.000000	 0.012069  
979.000000	 0.012154  
978.000000	 0.012259  
977.000000	 0.012382  
976.000000	 0.012594  
975.000000	 0.012946  
974.000000	 0.013398  
973.000000	 0.013853  
972.000000	 0.014238  
971.000000	 0.014543  
970.000000	 0.014817  
969.000000	 0.015118  
968.000000	 0.015476  
967.000000	 0.015871  
966.000000	 0.016243  
965.000000	 0.016521  
964.000000	 0.016652  
963.000000	 0.016642  
962.000000	 0.016567  
961.000000	 0.016549  
960.000000	 0.016665  
959.000000	 0.016908  
958.000000	 0.017241  
957.000000	 0.017671  
956.000000	 0.018233  
955.000000	 0.018884  
954.000000	 0.019470  
953.000000	 0.019818  
952.000000	 0.019843  
951.000000	 0.019559  
950.000000	 0.019026  
949.000000	 0.018332  
948.000000	 0.017589  
947.000000	 0.016891  
946.000000	 0.016259  
945.000000	 0.015662  
944.000000	 0.015103  
943.000000	 0.014620  
942.000000	 0.014214  
941.000000	 0.013806  
940.000000	 0.013314  
939.000000	 0.012735  
938.000000	 0.012127  
937.000000	 0.011541  
936.000000	 0.011006  
935.000000	 0.010540  
934.000000	 0.010154  
933.000000	 0.009839  
932.000000	 0.009570  
931.000000	 0.009335  
930.000000	 0.009131  
929.000000	 0.008970  
928.000000	 0.008882  
927.000000	 0.008889  
926.000000	 0.008961  
925.000000	 0.009027  
924.000000	 0.009059  
923.000000	 0.009110  
922.000000	 0.009247  
921.000000	 0.009443  
920.000000	 0.009604  
919.000000	 0.009660  
918.000000	 0.009616  
917.000000	 0.009505  
916.000000	 0.009368  
915.000000	 0.009266  
914.000000	 0.009247  
913.000000	 0.009272  
912.000000	 0.009222  
911.000000	 0.009037  
910.000000	 0.008804  
909.000000	 0.008668  
908.000000	 0.008680  
907.000000	 0.008770  
906.000000	 0.008861  
905.000000	 0.008943  
904.000000	 0.009049  
903.000000	 0.009200  
902.000000	 0.009397  
901.000000	 0.009610  
900.000000	 0.009760  
899.000000	 0.009748  
898.000000	 0.009553  
897.000000	 0.009286  
896.000000	 0.009094  
895.000000	 0.009029  
894.000000	 0.009025  
893.000000	 0.008996  
892.000000	 0.008924  
891.000000	 0.008850  
890.000000	 0.008817  
889.000000	 0.008844  
888.000000	 0.008917  
887.000000	 0.008979  
886.000000	 0.008951  
885.000000	 0.008812  
884.000000	 0.008647  
883.000000	 0.008582  
882.000000	 0.008659  
881.000000	 0.008779  
880.000000	 0.008806  
879.000000	 0.008712  
878.000000	 0.008608  
877.000000	 0.008615  
876.000000	 0.008737  
875.000000	 0.008875  
874.000000	 0.008948  
873.000000	 0.008970  
872.000000	 0.008983  
871.000000	 0.008981  
870.000000	 0.008941  
869.000000	 0.008887  
868.000000	 0.008880  
867.000000	 0.008928  
866.000000	 0.008957  
865.000000	 0.008905  
864.000000	 0.008799  
863.000000	 0.008734  
862.000000	 0.008783  
861.000000	 0.008949  
860.000000	 0.009188  
859.000000	 0.009462  
858.000000	 0.009768  
857.000000	 0.010131  
856.000000	 0.010568  
855.000000	 0.011054  
854.000000	 0.011571  
853.000000	 0.012164  
852.000000	 0.012907  
851.000000	 0.013795  
850.000000	 0.014709  
849.000000	 0.015523  
848.000000	 0.016178  
847.000000	 0.016634  
846.000000	 0.016801  
845.000000	 0.016599  
844.000000	 0.016080  
843.000000	 0.015403  
842.000000	 0.014695  
841.000000	 0.013981  
840.000000	 0.013254  
839.000000	 0.012561  
838.000000	 0.011962  
837.000000	 0.011467  
836.000000	 0.011045  
835.000000	 0.010674  
834.000000	 0.010346  
833.000000	 0.010059  
832.000000	 0.009821  
831.000000	 0.009669  
830.000000	 0.009614  
829.000000	 0.009605  
828.000000	 0.009566  
827.000000	 0.009497  
826.000000	 0.009485  
825.000000	 0.009596  
824.000000	 0.009788  
823.000000	 0.009972  
822.000000	 0.010102  
821.000000	 0.010181  
820.000000	 0.010199  
819.000000	 0.010135  
818.000000	 0.010030  
817.000000	 0.009998  
816.000000	 0.010130  
815.000000	 0.010382  
814.000000	 0.010604  
813.000000	 0.010691  
812.000000	 0.010679  
811.000000	 0.010682  
810.000000	 0.010766  
809.000000	 0.010919  
808.000000	 0.011125  
807.000000	 0.011378  
806.000000	 0.011622  
805.000000	 0.011726  
804.000000	 0.011578  
803.000000	 0.011193  
802.000000	 0.010713  
801.000000	 0.010285  
800.000000	 0.009970  
799.000000	 0.009739  
798.000000	 0.009555  
797.000000	 0.009419  
796.000000	 0.009342  
795.000000	 0.009302  
794.000000	 0.009256  
793.000000	 0.009221  
792.000000	 0.009288  
791.000000	 0.009512  
790.000000	 0.009822  
789.000000	 0.010083  
788.000000	 0.010248  
787.000000	 0.010396  
786.000000	 0.010610  
785.000000	 0.010891  
784.000000	 0.011197  
783.000000	 0.011528  
782.000000	 0.011899  
781.000000	 0.012283  
780.000000	 0.012623  
779.000000	 0.012886  
778.000000	 0.013081  
777.000000	 0.013242  
776.000000	 0.013418  
775.000000	 0.013669  
774.000000	 0.014016  
773.000000	 0.014406  
772.000000	 0.014768  
771.000000	 0.015087  
770.000000	 0.015396  
769.000000	 0.015684  
768.000000	 0.015897  
767.000000	 0.016019  
766.000000	 0.016122  
765.000000	 0.016274  
764.000000	 0.016449  
763.000000	 0.016555  
762.000000	 0.016543  
761.000000	 0.016460  
760.000000	 0.016404  
759.000000	 0.016469  
758.000000	 0.016707  
757.000000	 0.017122  
756.000000	 0.017652  
755.000000	 0.018200  
754.000000	 0.018681  
753.000000	 0.019066  
752.000000	 0.019410  
751.000000	 0.019805  
750.000000	 0.020306  
749.000000	 0.020867  
748.000000	 0.021420  
747.000000	 0.022015  
746.000000	 0.022846  
745.000000	 0.024070  
744.000000	 0.025610  
743.000000	 0.027194  
742.000000	 0.028590  
741.000000	 0.029740  
740.000000	 0.030678  
739.000000	 0.031413  
738.000000	 0.031927  
737.000000	 0.032244  
736.000000	 0.032417  
735.000000	 0.032462  
734.000000	 0.032378  
733.000000	 0.032232  
732.000000	 0.032192  
731.000000	 0.032436  
730.000000	 0.033025  
729.000000	 0.033869  
728.000000	 0.034830  
727.000000	 0.035844  
726.000000	 0.036909  
725.000000	 0.037970  
724.000000	 0.038840  
723.000000	 0.039265  
722.000000	 0.039064  
721.000000	 0.038222  
720.000000	 0.036906  
719.000000	 0.035371  
718.000000	 0.033823  
717.000000	 0.032382  
716.000000	 0.031114  
715.000000	 0.030070  
714.000000	 0.029286  
713.000000	 0.028744  
712.000000	 0.028336  
711.000000	 0.027893  
710.000000	 0.027312  
709.000000	 0.026689  
708.000000	 0.026242  
707.000000	 0.026091  
706.000000	 0.026127  
705.000000	 0.026176  
704.000000	 0.026217  
703.000000	 0.026331  
702.000000	 0.026507  
701.000000	 0.026616  
700.000000	 0.026566  
699.000000	 0.026353  
698.000000	 0.025933  
697.000000	 0.025219  
696.000000	 0.024265  
695.000000	 0.023317  
694.000000	 0.022602  
693.000000	 0.022118  
692.000000	 0.021713  
691.000000	 0.021336  
690.000000	 0.021086  
689.000000	 0.021039  
688.000000	 0.021089  
687.000000	 0.021000  
686.000000	 0.020633  
685.000000	 0.020107  
684.000000	 0.019715  
683.000000	 0.019635  
682.000000	 0.019714  
681.000000	 0.019615  
680.000000	 0.019210  
679.000000	 0.018737  
678.000000	 0.018459  
677.000000	 0.018325  
676.000000	 0.018146  
675.000000	 0.017910  
674.000000	 0.017734  
673.000000	 0.017703  
672.000000	 0.017897  
671.000000	 0.018623  
670.000000	 0.020153  
669.000000	 0.022095  
668.000000	 0.022527  
667.000000	 0.020386  
666.000000	 0.017720  
665.000000	 0.016093  
664.000000	 0.015495  
663.000000	 0.015569  
662.000000	 0.015934  
661.000000	 0.016315  
660.000000	 0.016259  
659.000000	 0.016165  
658.000000	 0.015666  
657.000000	 0.016246  
656.000000	 0.014836  
655.000000	 0.011808  
654.000000	 0.012089  
653.000000	 0.011604  
652.000000	 0.012006  
651.000000	 0.012302  
650.000000	 0.012586  

