PE IR                   SPECTRUM    ASCII       PEDS        1.60        
  -1
NB470~1.ASC
17/05/24
08:00:29.00
17/05/24
08:00:29.00
Admin

650.000000
4









SPECTRUM ONE,CPU32 MAIN 00.02.6000 25-JUNE-2003 12:00:00
MIR TGS
MIR
OPTKBR
68128
0.200000

4.000000
STRONG
RATIO
SPECTRUM
MAGNITUDE
UNIVERSAL ATR
DOUBLE

COMBINED


0


#HDR
-1
-1
#GR
CM-1
A
0.00000011920928955078
0.0
4000.000000
-1.000000
3351
8
0.178085
-0.001301
#DATA
4000.000000	0.004622  
3999.000000	0.004529  
3998.000000	0.004436  
3997.000000	0.004343  
3996.000000	0.004252  
3995.000000	0.004034  
3994.000000	0.003793  
3993.000000	0.003628  
3992.000000	0.003574  
3991.000000	0.003614  
3990.000000	0.003709  
3989.000000	0.003829  
3988.000000	0.003949  
3987.000000	0.004042  
3986.000000	0.004089  
3985.000000	0.004081  
3984.000000	0.004033  
3983.000000	0.003969  
3982.000000	0.003903  
3981.000000	0.003831  
3980.000000	0.003736  
3979.000000	0.003619  
3978.000000	0.003512  
3977.000000	0.003469  
3976.000000	0.003526  
3975.000000	0.003672  
3974.000000	0.003845  
3973.000000	0.003972  
3972.000000	0.004013  
3971.000000	0.003974  
3970.000000	0.003892  
3969.000000	0.003810  
3968.000000	0.003761  
3967.000000	0.003763  
3966.000000	0.003806  
3965.000000	0.003849  
3964.000000	0.003843  
3963.000000	0.003771  
3962.000000	0.003658  
3961.000000	0.003554  
3960.000000	0.003487  
3959.000000	0.003449  
3958.000000	0.003419  
3957.000000	0.003392  
3956.000000	0.003387  
3955.000000	0.003424  
3954.000000	0.003501  
3953.000000	0.003601  
3952.000000	0.003704  
3951.000000	0.003801  
3950.000000	0.003882  
3949.000000	0.003937  
3948.000000	0.003965  
3947.000000	0.003970  
3946.000000	0.003954  
3945.000000	0.003906  
3944.000000	0.003829  
3943.000000	0.003769  
3942.000000	0.003787  
3941.000000	0.003902  
3940.000000	0.004052  
3939.000000	0.004140  
3938.000000	0.004117  
3937.000000	0.004020  
3936.000000	0.003926  
3935.000000	0.003863  
3934.000000	0.003794  
3933.000000	0.003663  
3932.000000	0.003481  
3931.000000	0.003322  
3930.000000	0.003250  
3929.000000	0.003257  
3928.000000	0.003302  
3927.000000	0.003356  
3926.000000	0.003401  
3925.000000	0.003415  
3924.000000	0.003394  
3923.000000	0.003378  
3922.000000	0.003419  
3921.000000	0.003539  
3920.000000	0.003733  
3919.000000	0.003975  
3918.000000	0.004202  
3917.000000	0.004340  
3916.000000	0.004361  
3915.000000	0.004304  
3914.000000	0.004215  
3913.000000	0.004112  
3912.000000	0.003994  
3911.000000	0.003867  
3910.000000	0.003740  
3909.000000	0.003614  
3908.000000	0.003493  
3907.000000	0.003411  
3906.000000	0.003426  
3905.000000	0.003568  
3904.000000	0.003770  
3903.000000	0.003914  
3902.000000	0.003941  
3901.000000	0.003875  
3900.000000	0.003782  
3899.000000	0.003724  
3898.000000	0.003731  
3897.000000	0.003777  
3896.000000	0.003794  
3895.000000	0.003725  
3894.000000	0.003574  
3893.000000	0.003402  
3892.000000	0.003278  
3891.000000	0.003230  
3890.000000	0.003255  
3889.000000	0.003328  
3888.000000	0.003385  
3887.000000	0.003342  
3886.000000	0.003223  
3885.000000	0.003152  
3884.000000	0.003214  
3883.000000	0.003350  
3882.000000	0.003421  
3881.000000	0.003371  
3880.000000	0.003287  
3879.000000	0.003243  
3878.000000	0.003199  
3877.000000	0.003060  
3876.000000	0.002808  
3875.000000	0.002583  
3874.000000	0.002540  
3873.000000	0.002648  
3872.000000	0.002733  
3871.000000	0.002688  
3870.000000	0.002613  
3869.000000	0.002686  
3868.000000	0.002945  
3867.000000	0.003245  
3866.000000	0.003359  
3865.000000	0.003229  
3864.000000	0.003049  
3863.000000	0.002996  
3862.000000	0.003033  
3861.000000	0.003035  
3860.000000	0.002962  
3859.000000	0.002859  
3858.000000	0.002741  
3857.000000	0.002556  
3856.000000	0.002245  
3855.000000	0.001848  
3854.000000	0.001575  
3853.000000	0.001530  
3852.000000	0.001589  
3851.000000	0.001726  
3850.000000	0.001954  
3849.000000	0.002210  
3848.000000	0.002460  
3847.000000	0.002674  
3846.000000	0.002776  
3845.000000	0.002746  
3844.000000	0.002685  
3843.000000	0.002694  
3842.000000	0.002747  
3841.000000	0.002723  
3840.000000	0.002538  
3839.000000	0.002262  
3838.000000	0.002056  
3837.000000	0.001976  
3836.000000	0.001944  
3835.000000	0.001894  
3834.000000	0.001841  
3833.000000	0.001851  
3832.000000	0.001974  
3831.000000	0.002191  
3830.000000	0.002443  
3829.000000	0.002659  
3828.000000	0.002780  
3827.000000	0.002777  
3826.000000	0.002657  
3825.000000	0.002446  
3824.000000	0.002164  
3823.000000	0.001845  
3822.000000	0.001598  
3821.000000	0.001503  
3820.000000	0.001481  
3819.000000	0.001453  
3818.000000	0.001410  
3817.000000	0.001388  
3816.000000	0.001478  
3815.000000	0.001709  
3814.000000	0.002004  
3813.000000	0.002246  
3812.000000	0.002328  
3811.000000	0.002251  
3810.000000	0.002106  
3809.000000	0.001959  
3808.000000	0.001854  
3807.000000	0.001850  
3806.000000	0.001976  
3805.000000	0.002191  
3804.000000	0.002361  
3803.000000	0.002289  
3802.000000	0.001946  
3801.000000	0.001584  
3800.000000	0.001425  
3799.000000	0.001489  
3798.000000	0.001670  
3797.000000	0.001879  
3796.000000	0.002119  
3795.000000	0.002399  
3794.000000	0.002657  
3793.000000	0.002819  
3792.000000	0.002871  
3791.000000	0.002868  
3790.000000	0.002859  
3789.000000	0.002842  
3788.000000	0.002804  
3787.000000	0.002783  
3786.000000	0.002834  
3785.000000	0.002958  
3784.000000	0.003080  
3783.000000	0.003121  
3782.000000	0.003046  
3781.000000	0.002877  
3780.000000	0.002713  
3779.000000	0.002656  
3778.000000	0.002705  
3777.000000	0.002763  
3776.000000	0.002736  
3775.000000	0.002615  
3774.000000	0.002473  
3773.000000	0.002391  
3772.000000	0.002373  
3771.000000	0.002360  
3770.000000	0.002330  
3769.000000	0.002348  
3768.000000	0.002481  
3767.000000	0.002700  
3766.000000	0.002901  
3765.000000	0.003012  
3764.000000	0.003046  
3763.000000	0.003030  
3762.000000	0.002951  
3761.000000	0.002808  
3760.000000	0.002675  
3759.000000	0.002618  
3758.000000	0.002607  
3757.000000	0.002582  
3756.000000	0.002535  
3755.000000	0.002489  
3754.000000	0.002429  
3753.000000	0.002318  
3752.000000	0.002174  
3751.000000	0.002047  
3750.000000	0.001915  
3749.000000	0.001737  
3748.000000	0.001559  
3747.000000	0.001445  
3746.000000	0.001371  
3745.000000	0.001267  
3744.000000	0.001135  
3743.000000	0.001056  
3742.000000	0.001100  
3741.000000	0.001184  
3740.000000	0.001186  
3739.000000	0.001188  
3738.000000	0.001311  
3737.000000	0.001502  
3736.000000	0.001650  
3735.000000	0.001738  
3734.000000	0.001851  
3733.000000	0.002017  
3732.000000	0.002145  
3731.000000	0.002185  
3730.000000	0.002199  
3729.000000	0.002242  
3728.000000	0.002296  
3727.000000	0.002325  
3726.000000	0.002324  
3725.000000	0.002322  
3724.000000	0.002355  
3723.000000	0.002436  
3722.000000	0.002543  
3721.000000	0.002648  
3720.000000	0.002725  
3719.000000	0.002773  
3718.000000	0.002796  
3717.000000	0.002778  
3716.000000	0.002670  
3715.000000	0.002395  
3714.000000	0.001902  
3713.000000	0.001304  
3712.000000	0.000924  
3711.000000	0.000983  
3710.000000	0.001326  
3709.000000	0.001683  
3708.000000	0.001948  
3707.000000	0.002159  
3706.000000	0.002366  
3705.000000	0.002579  
3704.000000	0.002763  
3703.000000	0.002870  
3702.000000	0.002885  
3701.000000	0.002839  
3700.000000	0.002785  
3699.000000	0.002774  
3698.000000	0.002831  
3697.000000	0.002950  
3696.000000	0.003104  
3695.000000	0.003249  
3694.000000	0.003324  
3693.000000	0.003272  
3692.000000	0.003083  
3691.000000	0.002800  
3690.000000	0.002499  
3689.000000	0.002281  
3688.000000	0.002202  
3687.000000	0.002271  
3686.000000	0.002454  
3685.000000	0.002655  
3684.000000	0.002763  
3683.000000	0.002749  
3682.000000	0.002656  
3681.000000	0.002532  
3680.000000	0.002392  
3679.000000	0.002239  
3678.000000	0.002078  
3677.000000	0.001947  
3676.000000	0.001899  
3675.000000	0.001894  
3674.000000	0.001869  
3673.000000	0.001846  
3672.000000	0.001840  
3671.000000	0.001926  
3670.000000	0.002216  
3669.000000	0.002600  
3668.000000	0.002875  
3667.000000	0.002968  
3666.000000	0.002929  
3665.000000	0.002888  
3664.000000	0.002960  
3663.000000	0.003135  
3662.000000	0.003312  
3661.000000	0.003401  
3660.000000	0.003375  
3659.000000	0.003251  
3658.000000	0.003071  
3657.000000	0.002923  
3656.000000	0.002913  
3655.000000	0.003068  
3654.000000	0.003312  
3653.000000	0.003488  
3652.000000	0.003469  
3651.000000	0.003341  
3650.000000	0.003381  
3649.000000	0.003623  
3648.000000	0.003744  
3647.000000	0.003598  
3646.000000	0.003349  
3645.000000	0.003174  
3644.000000	0.003124  
3643.000000	0.003177  
3642.000000	0.003322  
3641.000000	0.003532  
3640.000000	0.003734  
3639.000000	0.003848  
3638.000000	0.003847  
3637.000000	0.003770  
3636.000000	0.003658  
3635.000000	0.003525  
3634.000000	0.003398  
3633.000000	0.003333  
3632.000000	0.003363  
3631.000000	0.003454  
3630.000000	0.003544  
3629.000000	0.003592  
3628.000000	0.003594  
3627.000000	0.003606  
3626.000000	0.003652  
3625.000000	0.003698  
3624.000000	0.003776  
3623.000000	0.003965  
3622.000000	0.004222  
3621.000000	0.004385  
3620.000000	0.004338  
3619.000000	0.004160  
3618.000000	0.004021  
3617.000000	0.003975  
3616.000000	0.003944  
3615.000000	0.003847  
3614.000000	0.003711  
3613.000000	0.003642  
3612.000000	0.003701  
3611.000000	0.003852  
3610.000000	0.004012  
3609.000000	0.004134  
3608.000000	0.004226  
3607.000000	0.004311  
3606.000000	0.004385  
3605.000000	0.004419  
3604.000000	0.004391  
3603.000000	0.004332  
3602.000000	0.004317  
3601.000000	0.004403  
3600.000000	0.004579  
3599.000000	0.004766  
3598.000000	0.004877  
3597.000000	0.004874  
3596.000000	0.004790  
3595.000000	0.004701  
3594.000000	0.004667  
3593.000000	0.004718  
3592.000000	0.004849  
3591.000000	0.005027  
3590.000000	0.005209  
3589.000000	0.005374  
3588.000000	0.005537  
3587.000000	0.005730  
3586.000000	0.005953  
3585.000000	0.006135  
3584.000000	0.006180  
3583.000000	0.006065  
3582.000000	0.005883  
3581.000000	0.005770  
3580.000000	0.005791  
3579.000000	0.005895  
3578.000000	0.005978  
3577.000000	0.005981  
3576.000000	0.005935  
3575.000000	0.005913  
3574.000000	0.005938  
3573.000000	0.005981  
3572.000000	0.006002  
3571.000000	0.005993  
3570.000000	0.005990  
3569.000000	0.006076  
3568.000000	0.006345  
3567.000000	0.006768  
3566.000000	0.007147  
3565.000000	0.007310  
3564.000000	0.007239  
3563.000000	0.007037  
3562.000000	0.006866  
3561.000000	0.006842  
3560.000000	0.006971  
3559.000000	0.007179  
3558.000000	0.007380  
3557.000000	0.007510  
3556.000000	0.007537  
3555.000000	0.007476  
3554.000000	0.007394  
3553.000000	0.007361  
3552.000000	0.007400  
3551.000000	0.007494  
3550.000000	0.007628  
3549.000000	0.007812  
3548.000000	0.008063  
3547.000000	0.008361  
3546.000000	0.008628  
3545.000000	0.008783  
3544.000000	0.008810  
3543.000000	0.008759  
3542.000000	0.008704  
3541.000000	0.008691  
3540.000000	0.008726  
3539.000000	0.008792  
3538.000000	0.008862  
3537.000000	0.008914  
3536.000000	0.008928  
3535.000000	0.008902  
3534.000000	0.008856  
3533.000000	0.008809  
3532.000000	0.008763  
3531.000000	0.008717  
3530.000000	0.008696  
3529.000000	0.008766  
3528.000000	0.008970  
3527.000000	0.009275  
3526.000000	0.009579  
3525.000000	0.009792  
3524.000000	0.009898  
3523.000000	0.009954  
3522.000000	0.010023  
3521.000000	0.010109  
3520.000000	0.010168  
3519.000000	0.010171  
3518.000000	0.010156  
3517.000000	0.010199  
3516.000000	0.010334  
3515.000000	0.010507  
3514.000000	0.010635  
3513.000000	0.010693  
3512.000000	0.010747  
3511.000000	0.010875  
3510.000000	0.011084  
3509.000000	0.011289  
3508.000000	0.011405  
3507.000000	0.011425  
3506.000000	0.011423  
3505.000000	0.011482  
3504.000000	0.011619  
3503.000000	0.011756  
3502.000000	0.011804  
3501.000000	0.011750  
3500.000000	0.011655  
3499.000000	0.011598  
3498.000000	0.011643  
3497.000000	0.011812  
3496.000000	0.012065  
3495.000000	0.012313  
3494.000000	0.012494  
3493.000000	0.012639  
3492.000000	0.012828  
3491.000000	0.013088  
3490.000000	0.013346  
3489.000000	0.013503  
3488.000000	0.013537  
3487.000000	0.013534  
3486.000000	0.013592  
3485.000000	0.013739  
3484.000000	0.013920  
3483.000000	0.014054  
3482.000000	0.014105  
3481.000000	0.014119  
3480.000000	0.014177  
3479.000000	0.014318  
3478.000000	0.014516  
3477.000000	0.014710  
3476.000000	0.014849  
3475.000000	0.014896  
3474.000000	0.014845  
3473.000000	0.014752  
3472.000000	0.014725  
3471.000000	0.014841  
3470.000000	0.015063  
3469.000000	0.015271  
3468.000000	0.015381  
3467.000000	0.015423  
3466.000000	0.015486  
3465.000000	0.015615  
3464.000000	0.015781  
3463.000000	0.015938  
3462.000000	0.016072  
3461.000000	0.016193  
3460.000000	0.016305  
3459.000000	0.016399  
3458.000000	0.016468  
3457.000000	0.016524  
3456.000000	0.016595  
3455.000000	0.016702  
3454.000000	0.016836  
3453.000000	0.016955  
3452.000000	0.017030  
3451.000000	0.017075  
3450.000000	0.017149  
3449.000000	0.017316  
3448.000000	0.017600  
3447.000000	0.017949  
3446.000000	0.018258  
3445.000000	0.018435  
3444.000000	0.018464  
3443.000000	0.018412  
3442.000000	0.018390  
3441.000000	0.018473  
3440.000000	0.018644  
3439.000000	0.018812  
3438.000000	0.018882  
3437.000000	0.018822  
3436.000000	0.018696  
3435.000000	0.018623  
3434.000000	0.018700  
3433.000000	0.018948  
3432.000000	0.019301  
3431.000000	0.019658  
3430.000000	0.019937  
3429.000000	0.020111  
3428.000000	0.020204  
3427.000000	0.020258  
3426.000000	0.020288  
3425.000000	0.020288  
3424.000000	0.020264  
3423.000000	0.020255  
3422.000000	0.020318  
3421.000000	0.020482  
3420.000000	0.020709  
3419.000000	0.020906  
3418.000000	0.020986  
3417.000000	0.020942  
3416.000000	0.020881  
3415.000000	0.020951  
3414.000000	0.021199  
3413.000000	0.021520  
3412.000000	0.021759  
3411.000000	0.021847  
3410.000000	0.021849  
3409.000000	0.021892  
3408.000000	0.022069  
3407.000000	0.022380  
3406.000000	0.022724  
3405.000000	0.022954  
3404.000000	0.022994  
3403.000000	0.022900  
3402.000000	0.022811  
3401.000000	0.022819  
3400.000000	0.022918  
3399.000000	0.023053  
3398.000000	0.023181  
3397.000000	0.023291  
3396.000000	0.023387  
3395.000000	0.023491  
3394.000000	0.023627  
3393.000000	0.023800  
3392.000000	0.023975  
3391.000000	0.024113  
3390.000000	0.024203  
3389.000000	0.024252  
3388.000000	0.024279  
3387.000000	0.024317  
3386.000000	0.024406  
3385.000000	0.024556  
3384.000000	0.024720  
3383.000000	0.024837  
3382.000000	0.024888  
3381.000000	0.024916  
3380.000000	0.024972  
3379.000000	0.025066  
3378.000000	0.025170  
3377.000000	0.025264  
3376.000000	0.025346  
3375.000000	0.025419  
3374.000000	0.025476  
3373.000000	0.025525  
3372.000000	0.025605  
3371.000000	0.025760  
3370.000000	0.025989  
3369.000000	0.026240  
3368.000000	0.026453  
3367.000000	0.026598  
3366.000000	0.026671  
3365.000000	0.026668  
3364.000000	0.026595  
3363.000000	0.026499  
3362.000000	0.026450  
3361.000000	0.026495  
3360.000000	0.026622  
3359.000000	0.026777  
3358.000000	0.026909  
3357.000000	0.026994  
3356.000000	0.027037  
3355.000000	0.027056  
3354.000000	0.027063  
3353.000000	0.027066  
3352.000000	0.027074  
3351.000000	0.027094  
3350.000000	0.027121  
3349.000000	0.027132  
3348.000000	0.027108  
3347.000000	0.027057  
3346.000000	0.027018  
3345.000000	0.027033  
3344.000000	0.027109  
3343.000000	0.027211  
3342.000000	0.027281  
3341.000000	0.027288  
3340.000000	0.027247  
3339.000000	0.027196  
3338.000000	0.027146  
3337.000000	0.027080  
3336.000000	0.027003  
3335.000000	0.026970  
3334.000000	0.027019  
3333.000000	0.027105  
3332.000000	0.027125  
3331.000000	0.027031  
3330.000000	0.026864  
3329.000000	0.026703  
3328.000000	0.026596  
3327.000000	0.026552  
3326.000000	0.026585  
3325.000000	0.026704  
3324.000000	0.026889  
3323.000000	0.027087  
3322.000000	0.027242  
3321.000000	0.027332  
3320.000000	0.027366  
3319.000000	0.027359  
3318.000000	0.027298  
3317.000000	0.027157  
3316.000000	0.026951  
3315.000000	0.026761  
3314.000000	0.026667  
3313.000000	0.026660  
3312.000000	0.026640  
3311.000000	0.026537  
3310.000000	0.026381  
3309.000000	0.026250  
3308.000000	0.026170  
3307.000000	0.026097  
3306.000000	0.025994  
3305.000000	0.025877  
3304.000000	0.025794  
3303.000000	0.025765  
3302.000000	0.025767  
3301.000000	0.025746  
3300.000000	0.025662  
3299.000000	0.025521  
3298.000000	0.025368  
3297.000000	0.025237  
3296.000000	0.025123  
3295.000000	0.025008  
3294.000000	0.024907  
3293.000000	0.024854  
3292.000000	0.024849  
3291.000000	0.024841  
3290.000000	0.024775  
3289.000000	0.024642  
3288.000000	0.024496  
3287.000000	0.024399  
3286.000000	0.024358  
3285.000000	0.024304  
3284.000000	0.024158  
3283.000000	0.023926  
3282.000000	0.023723  
3281.000000	0.023656  
3280.000000	0.023695  
3279.000000	0.023691  
3278.000000	0.023524  
3277.000000	0.023214  
3276.000000	0.022890  
3275.000000	0.022672  
3274.000000	0.022595  
3273.000000	0.022619  
3272.000000	0.022673  
3271.000000	0.022695  
3270.000000	0.022656  
3269.000000	0.022564  
3268.000000	0.022435  
3267.000000	0.022272  
3266.000000	0.022073  
3265.000000	0.021847  
3264.000000	0.021625  
3263.000000	0.021443  
3262.000000	0.021318  
3261.000000	0.021236  
3260.000000	0.021163  
3259.000000	0.021076  
3258.000000	0.020984  
3257.000000	0.020908  
3256.000000	0.020841  
3255.000000	0.020744  
3254.000000	0.020598  
3253.000000	0.020436  
3252.000000	0.020316  
3251.000000	0.020254  
3250.000000	0.020204  
3249.000000	0.020099  
3248.000000	0.019911  
3247.000000	0.019666  
3246.000000	0.019428  
3245.000000	0.019242  
3244.000000	0.019104  
3243.000000	0.018970  
3242.000000	0.018815  
3241.000000	0.018651  
3240.000000	0.018508  
3239.000000	0.018382  
3238.000000	0.018245  
3237.000000	0.018088  
3236.000000	0.017923  
3235.000000	0.017761  
3234.000000	0.017601  
3233.000000	0.017454  
3232.000000	0.017350  
3231.000000	0.017296  
3230.000000	0.017255  
3229.000000	0.017188  
3228.000000	0.017105  
3227.000000	0.017043  
3226.000000	0.016997  
3225.000000	0.016918  
3224.000000	0.016785  
3223.000000	0.016635  
3222.000000	0.016501  
3221.000000	0.016358  
3220.000000	0.016167  
3219.000000	0.015954  
3218.000000	0.015786  
3217.000000	0.015674  
3216.000000	0.015556  
3215.000000	0.015391  
3214.000000	0.015230  
3213.000000	0.015149  
3212.000000	0.015143  
3211.000000	0.015124  
3210.000000	0.015012  
3209.000000	0.014820  
3208.000000	0.014615  
3207.000000	0.014453  
3206.000000	0.014341  
3205.000000	0.014269  
3204.000000	0.014230  
3203.000000	0.014224  
3202.000000	0.014242  
3201.000000	0.014244  
3200.000000	0.014176  
3199.000000	0.014014  
3198.000000	0.013787  
3197.000000	0.013547  
3196.000000	0.013321  
3195.000000	0.013106  
3194.000000	0.012909  
3193.000000	0.012758  
3192.000000	0.012666  
3191.000000	0.012618  
3190.000000	0.012574  
3189.000000	0.012499  
3188.000000	0.012369  
3187.000000	0.012182  
3186.000000	0.011986  
3185.000000	0.011862  
3184.000000	0.011859  
3183.000000	0.011943  
3182.000000	0.012025  
3181.000000	0.012034  
3180.000000	0.011952  
3179.000000	0.011796  
3178.000000	0.011591  
3177.000000	0.011372  
3176.000000	0.011182  
3175.000000	0.011046  
3174.000000	0.010953  
3173.000000	0.010877  
3172.000000	0.010804  
3171.000000	0.010741  
3170.000000	0.010698  
3169.000000	0.010673  
3168.000000	0.010662  
3167.000000	0.010669  
3166.000000	0.010684  
3165.000000	0.010679  
3164.000000	0.010614  
3163.000000	0.010469  
3162.000000	0.010266  
3161.000000	0.010057  
3160.000000	0.009892  
3159.000000	0.009777  
3158.000000	0.009676  
3157.000000	0.009546  
3156.000000	0.009393  
3155.000000	0.009285  
3154.000000	0.009297  
3153.000000	0.009419  
3152.000000	0.009540  
3151.000000	0.009540  
3150.000000	0.009388  
3149.000000	0.009164  
3148.000000	0.008980  
3147.000000	0.008891  
3146.000000	0.008870  
3145.000000	0.008846  
3144.000000	0.008755  
3143.000000	0.008579  
3142.000000	0.008358  
3141.000000	0.008165  
3140.000000	0.008045  
3139.000000	0.007989  
3138.000000	0.007960  
3137.000000	0.007950  
3136.000000	0.007992  
3135.000000	0.008090  
3134.000000	0.008176  
3133.000000	0.008160  
3132.000000	0.008025  
3131.000000	0.007851  
3130.000000	0.007735  
3129.000000	0.007709  
3128.000000	0.007745  
3127.000000	0.007798  
3126.000000	0.007829  
3125.000000	0.007803  
3124.000000	0.007707  
3123.000000	0.007580  
3122.000000	0.007497  
3121.000000	0.007501  
3120.000000	0.007552  
3119.000000	0.007575  
3118.000000	0.007529  
3117.000000	0.007438  
3116.000000	0.007358  
3115.000000	0.007333  
3114.000000	0.007362  
3113.000000	0.007408  
3112.000000	0.007436  
3111.000000	0.007423  
3110.000000	0.007364  
3109.000000	0.007261  
3108.000000	0.007130  
3107.000000	0.006998  
3106.000000	0.006874  
3105.000000	0.006732  
3104.000000	0.006543  
3103.000000	0.006345  
3102.000000	0.006237  
3101.000000	0.006282  
3100.000000	0.006423  
3099.000000	0.006529  
3098.000000	0.006515  
3097.000000	0.006401  
3096.000000	0.006274  
3095.000000	0.006214  
3094.000000	0.006241  
3093.000000	0.006310  
3092.000000	0.006351  
3091.000000	0.006331  
3090.000000	0.006275  
3089.000000	0.006237  
3088.000000	0.006238  
3087.000000	0.006258  
3086.000000	0.006278  
3085.000000	0.006300  
3084.000000	0.006322  
3083.000000	0.006321  
3082.000000	0.006275  
3081.000000	0.006183  
3080.000000	0.006067  
3079.000000	0.005956  
3078.000000	0.005876  
3077.000000	0.005851  
3076.000000	0.005883  
3075.000000	0.005953  
3074.000000	0.006033  
3073.000000	0.006099  
3072.000000	0.006127  
3071.000000	0.006094  
3070.000000	0.006008  
3069.000000	0.005925  
3068.000000	0.005914  
3067.000000	0.005983  
3066.000000	0.006060  
3065.000000	0.006061  
3064.000000	0.005981  
3063.000000	0.005898  
3062.000000	0.005887  
3061.000000	0.005951  
3060.000000	0.006044  
3059.000000	0.006132  
3058.000000	0.006204  
3057.000000	0.006235  
3056.000000	0.006175  
3055.000000	0.006022  
3054.000000	0.005865  
3053.000000	0.005822  
3052.000000	0.005935  
3051.000000	0.006127  
3050.000000	0.006281  
3049.000000	0.006335  
3048.000000	0.006307  
3047.000000	0.006256  
3046.000000	0.006235  
3045.000000	0.006256  
3044.000000	0.006285  
3043.000000	0.006278  
3042.000000	0.006235  
3041.000000	0.006207  
3040.000000	0.006248  
3039.000000	0.006356  
3038.000000	0.006483  
3037.000000	0.006594  
3036.000000	0.006694  
3035.000000	0.006809  
3034.000000	0.006949  
3033.000000	0.007103  
3032.000000	0.007243  
3031.000000	0.007338  
3030.000000	0.007375  
3029.000000	0.007381  
3028.000000	0.007406  
3027.000000	0.007494  
3026.000000	0.007644  
3025.000000	0.007825  
3024.000000	0.008014  
3023.000000	0.008228  
3022.000000	0.008510  
3021.000000	0.008884  
3020.000000	0.009323  
3019.000000	0.009763  
3018.000000	0.010153  
3017.000000	0.010481  
3016.000000	0.010761  
3015.000000	0.011015  
3014.000000	0.011270  
3013.000000	0.011554  
3012.000000	0.011874  
3011.000000	0.012188  
3010.000000	0.012427  
3009.000000	0.012543  
3008.000000	0.012535  
3007.000000	0.012427  
3006.000000	0.012244  
3005.000000	0.012014  
3004.000000	0.011789  
3003.000000	0.011626  
3002.000000	0.011542  
3001.000000	0.011505  
3000.000000	0.011475  
2999.000000	0.011454  
2998.000000	0.011484  
2997.000000	0.011607  
2996.000000	0.011813  
2995.000000	0.012050  
2994.000000	0.012265  
2993.000000	0.012454  
2992.000000	0.012668  
2991.000000	0.012969  
2990.000000	0.013394  
2989.000000	0.013943  
2988.000000	0.014583  
2987.000000	0.015275  
2986.000000	0.016001  
2985.000000	0.016789  
2984.000000	0.017700  
2983.000000	0.018774  
2982.000000	0.020005  
2981.000000	0.021389  
2980.000000	0.022985  
2979.000000	0.024878  
2978.000000	0.027078  
2977.000000	0.029497  
2976.000000	0.032067  
2975.000000	0.034867  
2974.000000	0.038089  
2973.000000	0.041876  
2972.000000	0.046215  
2971.000000	0.050974  
2970.000000	0.056044  
2969.000000	0.061418  
2968.000000	0.067146  
2967.000000	0.073217  
2966.000000	0.079470  
2965.000000	0.085656  
2964.000000	0.091556  
2963.000000	0.097045  
2962.000000	0.102045  
2961.000000	0.106452  
2960.000000	0.110134  
2959.000000	0.112954  
2958.000000	0.114779  
2957.000000	0.115516  
2956.000000	0.115165  
2955.000000	0.113849  
2954.000000	0.111768  
2953.000000	0.109140  
2952.000000	0.106192  
2951.000000	0.103169  
2950.000000	0.100330  
2949.000000	0.097915  
2948.000000	0.096109  
2947.000000	0.095029  
2946.000000	0.094722  
2945.000000	0.095194  
2944.000000	0.096457  
2943.000000	0.098535  
2942.000000	0.101421  
2941.000000	0.105046  
2940.000000	0.109308  
2939.000000	0.114119  
2938.000000	0.119401  
2937.000000	0.125032  
2936.000000	0.130841  
2935.000000	0.136659  
2934.000000	0.142367  
2933.000000	0.147885  
2932.000000	0.153151  
2931.000000	0.158116  
2930.000000	0.162738  
2929.000000	0.166972  
2928.000000	0.170752  
2927.000000	0.173947  
2926.000000	0.176365  
2925.000000	0.177794  
2924.000000	0.178085  
2923.000000	0.177191  
2922.000000	0.175188  
2921.000000	0.172276  
2920.000000	0.168717  
2919.000000	0.164731  
2918.000000	0.160422  
2917.000000	0.155838  
2916.000000	0.151079  
2915.000000	0.146325  
2914.000000	0.141763  
2913.000000	0.137496  
2912.000000	0.133526  
2911.000000	0.129791  
2910.000000	0.126227  
2909.000000	0.122803  
2908.000000	0.119520  
2907.000000	0.116375  
2906.000000	0.113352  
2905.000000	0.110434  
2904.000000	0.107616  
2903.000000	0.104895  
2902.000000	0.102261  
2901.000000	0.099689  
2900.000000	0.097144  
2899.000000	0.094591  
2898.000000	0.092010  
2897.000000	0.089427  
2896.000000	0.086897  
2895.000000	0.084470  
2894.000000	0.082170  
2893.000000	0.080020  
2892.000000	0.078052  
2891.000000	0.076290  
2890.000000	0.074711  
2889.000000	0.073263  
2888.000000	0.071924  
2887.000000	0.070765  
2886.000000	0.069928  
2885.000000	0.069547  
2884.000000	0.069678  
2883.000000	0.070330  
2882.000000	0.071537  
2881.000000	0.073371  
2880.000000	0.075884  
2879.000000	0.079015  
2878.000000	0.082574  
2877.000000	0.086289  
2876.000000	0.089837  
2875.000000	0.092881  
2874.000000	0.095129  
2873.000000	0.096456  
2872.000000	0.096970  
2871.000000	0.096949  
2870.000000	0.096706  
2869.000000	0.096466  
2868.000000	0.096345  
2867.000000	0.096397  
2866.000000	0.096695  
2865.000000	0.097356  
2864.000000	0.098476  
2863.000000	0.100017  
2862.000000	0.101810  
2861.000000	0.103671  
2860.000000	0.105486  
2859.000000	0.107165  
2858.000000	0.108570  
2857.000000	0.109535  
2856.000000	0.109921  
2855.000000	0.109595  
2854.000000	0.108382  
2853.000000	0.106130  
2852.000000	0.102839  
2851.000000	0.098710  
2850.000000	0.094032  
2849.000000	0.089074  
2848.000000	0.084039  
2847.000000	0.079072  
2846.000000	0.074259  
2845.000000	0.069631  
2844.000000	0.065176  
2843.000000	0.060873  
2842.000000	0.056709  
2841.000000	0.052697  
2840.000000	0.048890  
2839.000000	0.045355  
2838.000000	0.042153  
2837.000000	0.039317  
2836.000000	0.036848  
2835.000000	0.034699  
2834.000000	0.032775  
2833.000000	0.030968  
2832.000000	0.029227  
2831.000000	0.027578  
2830.000000	0.026088  
2829.000000	0.024800  
2828.000000	0.023694  
2827.000000	0.022708  
2826.000000	0.021773  
2825.000000	0.020851  
2824.000000	0.019956  
2823.000000	0.019140  
2822.000000	0.018448  
2821.000000	0.017873  
2820.000000	0.017369  
2819.000000	0.016892  
2818.000000	0.016423  
2817.000000	0.015962  
2816.000000	0.015516  
2815.000000	0.015101  
2814.000000	0.014733  
2813.000000	0.014403  
2812.000000	0.014078  
2811.000000	0.013730  
2810.000000	0.013356  
2809.000000	0.012982  
2808.000000	0.012634  
2807.000000	0.012338  
2806.000000	0.012101  
2805.000000	0.011902  
2804.000000	0.011699  
2803.000000	0.011455  
2802.000000	0.011170  
2801.000000	0.010867  
2800.000000	0.010573  
2799.000000	0.010322  
2798.000000	0.010148  
2797.000000	0.010057  
2796.000000	0.010007  
2795.000000	0.009946  
2794.000000	0.009856  
2793.000000	0.009758  
2792.000000	0.009665  
2791.000000	0.009556  
2790.000000	0.009400  
2789.000000	0.009186  
2788.000000	0.008931  
2787.000000	0.008665  
2786.000000	0.008428  
2785.000000	0.008251  
2784.000000	0.008136  
2783.000000	0.008051  
2782.000000	0.007952  
2781.000000	0.007819  
2780.000000	0.007656  
2779.000000	0.007489  
2778.000000	0.007342  
2777.000000	0.007234  
2776.000000	0.007156  
2775.000000	0.007084  
2774.000000	0.007008  
2773.000000	0.006947  
2772.000000	0.006931  
2771.000000	0.006953  
2770.000000	0.006969  
2769.000000	0.006931  
2768.000000	0.006827  
2767.000000	0.006682  
2766.000000	0.006548  
2765.000000	0.006471  
2764.000000	0.006470  
2763.000000	0.006516  
2762.000000	0.006550  
2761.000000	0.006526  
2760.000000	0.006441  
2759.000000	0.006316  
2758.000000	0.006176  
2757.000000	0.006047  
2756.000000	0.005969  
2755.000000	0.005973  
2754.000000	0.006037  
2753.000000	0.006099  
2752.000000	0.006118  
2751.000000	0.006109  
2750.000000	0.006122  
2749.000000	0.006176  
2748.000000	0.006249  
2747.000000	0.006304  
2746.000000	0.006315  
2745.000000	0.006285  
2744.000000	0.006237  
2743.000000	0.006204  
2742.000000	0.006202  
2741.000000	0.006223  
2740.000000	0.006257  
2739.000000	0.006300  
2738.000000	0.006343  
2737.000000	0.006364  
2736.000000	0.006353  
2735.000000	0.006345  
2734.000000	0.006381  
2733.000000	0.006451  
2732.000000	0.006497  
2731.000000	0.006466  
2730.000000	0.006360  
2729.000000	0.006221  
2728.000000	0.006083  
2727.000000	0.005959  
2726.000000	0.005854  
2725.000000	0.005777  
2724.000000	0.005747  
2723.000000	0.005776  
2722.000000	0.005847  
2721.000000	0.005904  
2720.000000	0.005902  
2719.000000	0.005851  
2718.000000	0.005801  
2717.000000	0.005772  
2716.000000	0.005733  
2715.000000	0.005647  
2714.000000	0.005520  
2713.000000	0.005378  
2712.000000	0.005229  
2711.000000	0.005070  
2710.000000	0.004917  
2709.000000	0.004799  
2708.000000	0.004730  
2707.000000	0.004705  
2706.000000	0.004714  
2705.000000	0.004735  
2704.000000	0.004732  
2703.000000	0.004675  
2702.000000	0.004582  
2701.000000	0.004510  
2700.000000	0.004498  
2699.000000	0.004535  
2698.000000	0.004585  
2697.000000	0.004626  
2696.000000	0.004668  
2695.000000	0.004734  
2694.000000	0.004826  
2693.000000	0.004908  
2692.000000	0.004921  
2691.000000	0.004827  
2690.000000	0.004660  
2689.000000	0.004515  
2688.000000	0.004471  
2687.000000	0.004530  
2686.000000	0.004624  
2685.000000	0.004692  
2684.000000	0.004723  
2683.000000	0.004737  
2682.000000	0.004748  
2681.000000	0.004748  
2680.000000	0.004733  
2679.000000	0.004711  
2678.000000	0.004687  
2677.000000	0.004657  
2676.000000	0.004621  
2675.000000	0.004597  
2674.000000	0.004612  
2673.000000	0.004674  
2672.000000	0.004772  
2671.000000	0.004882  
2670.000000	0.004961  
2669.000000	0.004963  
2668.000000	0.004874  
2667.000000	0.004736  
2666.000000	0.004610  
2665.000000	0.004527  
2664.000000	0.004474  
2663.000000	0.004436  
2662.000000	0.004408  
2661.000000	0.004371  
2660.000000	0.004306  
2659.000000	0.004232  
2658.000000	0.004213  
2657.000000	0.004285  
2656.000000	0.004403  
2655.000000	0.004471  
2654.000000	0.004424  
2653.000000	0.004271  
2652.000000	0.004085  
2651.000000	0.003944  
2650.000000	0.003878  
2649.000000	0.003837  
2648.000000	0.003750  
2647.000000	0.003610  
2646.000000	0.003491  
2645.000000	0.003460  
2644.000000	0.003503  
2643.000000	0.003547  
2642.000000	0.003554  
2641.000000	0.003535  
2640.000000	0.003502  
2639.000000	0.003448  
2638.000000	0.003376  
2637.000000	0.003309  
2636.000000	0.003264  
2635.000000	0.003236  
2634.000000	0.003229  
2633.000000	0.003271  
2632.000000	0.003383  
2631.000000	0.003541  
2630.000000	0.003678  
2629.000000	0.003725  
2628.000000	0.003669  
2627.000000	0.003574  
2626.000000	0.003530  
2625.000000	0.003564  
2624.000000	0.003616  
2623.000000	0.003614  
2622.000000	0.003557  
2621.000000	0.003511  
2620.000000	0.003521  
2619.000000	0.003569  
2618.000000	0.003605  
2617.000000	0.003580  
2616.000000	0.003466  
2615.000000	0.003276  
2614.000000	0.003082  
2613.000000	0.002989  
2612.000000	0.003040  
2611.000000	0.003167  
2610.000000	0.003246  
2609.000000	0.003206  
2608.000000	0.003080  
2607.000000	0.002975  
2606.000000	0.002973  
2605.000000	0.003062  
2604.000000	0.003143  
2603.000000	0.003129  
2602.000000	0.003027  
2601.000000	0.002917  
2600.000000	0.002865  
2599.000000	0.002860  
2598.000000	0.002862  
2597.000000	0.002855  
2596.000000	0.002856  
2595.000000	0.002874  
2594.000000	0.002892  
2593.000000	0.002882  
2592.000000	0.002844  
2591.000000	0.002811  
2590.000000	0.002831  
2589.000000	0.002910  
2588.000000	0.002991  
2587.000000	0.002987  
2586.000000	0.002866  
2585.000000	0.002693  
2584.000000	0.002581  
2583.000000	0.002575  
2582.000000	0.002618  
2581.000000	0.002619  
2580.000000	0.002565  
2579.000000	0.002525  
2578.000000	0.002556  
2577.000000	0.002613  
2576.000000	0.002602  
2575.000000	0.002503  
2574.000000	0.002411  
2573.000000	0.002427  
2572.000000	0.002538  
2571.000000	0.002627  
2570.000000	0.002612  
2569.000000	0.002536  
2568.000000	0.002512  
2567.000000	0.002592  
2566.000000	0.002710  
2565.000000	0.002760  
2564.000000	0.002703  
2563.000000	0.002590  
2562.000000	0.002497  
2561.000000	0.002464  
2560.000000	0.002507  
2559.000000	0.002617  
2558.000000	0.002738  
2557.000000	0.002763  
2556.000000	0.002630  
2555.000000	0.002395  
2554.000000	0.002179  
2553.000000	0.002041  
2552.000000	0.001951  
2551.000000	0.001878  
2550.000000	0.001834  
2549.000000	0.001821  
2548.000000	0.001810  
2547.000000	0.001803  
2546.000000	0.001858  
2545.000000	0.002004  
2544.000000	0.002159  
2543.000000	0.002208  
2542.000000	0.002127  
2541.000000	0.001995  
2540.000000	0.001901  
2539.000000	0.001879  
2538.000000	0.001916  
2537.000000	0.001968  
2536.000000	0.001980  
2535.000000	0.001916  
2534.000000	0.001779  
2533.000000	0.001596  
2532.000000	0.001405  
2531.000000	0.001283  
2530.000000	0.001339  
2529.000000	0.001607  
2528.000000	0.001966  
2527.000000	0.002218  
2526.000000	0.002257  
2525.000000	0.002123  
2524.000000	0.001919  
2523.000000	0.001724  
2522.000000	0.001593  
2521.000000	0.001557  
2520.000000	0.001605  
2519.000000	0.001682  
2518.000000	0.001744  
2517.000000	0.001788  
2516.000000	0.001819  
2515.000000	0.001832  
2514.000000	0.001834  
2513.000000	0.001846  
2512.000000	0.001853  
2511.000000	0.001790  
2510.000000	0.001623  
2509.000000	0.001434  
2508.000000	0.001359  
2507.000000	0.001434  
2506.000000	0.001545  
2505.000000	0.001562  
2504.000000	0.001493  
2503.000000	0.001468  
2502.000000	0.001572  
2501.000000	0.001747  
2500.000000	0.001872  
2499.000000	0.001897  
2498.000000	0.001860  
2497.000000	0.001810  
2496.000000	0.001769  
2495.000000	0.001749  
2494.000000	0.001755  
2493.000000	0.001755  
2492.000000	0.001702  
2491.000000	0.001607  
2490.000000	0.001540  
2489.000000	0.001557  
2488.000000	0.001637  
2487.000000	0.001715  
2486.000000	0.001738  
2485.000000	0.001672  
2484.000000	0.001517  
2483.000000	0.001341  
2482.000000	0.001247  
2481.000000	0.001275  
2480.000000	0.001356  
2479.000000	0.001394  
2478.000000	0.001378  
2477.000000	0.001353  
2476.000000	0.001341  
2475.000000	0.001326  
2474.000000	0.001303  
2473.000000	0.001289  
2472.000000	0.001287  
2471.000000	0.001277  
2470.000000	0.001245  
2469.000000	0.001180  
2468.000000	0.001069  
2467.000000	0.000915  
2466.000000	0.000759  
2465.000000	0.000654  
2464.000000	0.000616  
2463.000000	0.000638  
2462.000000	0.000715  
2461.000000	0.000833  
2460.000000	0.000951  
2459.000000	0.001033  
2458.000000	0.001084  
2457.000000	0.001108  
2456.000000	0.001077  
2455.000000	0.000976  
2454.000000	0.000866  
2453.000000	0.000837  
2452.000000	0.000900  
2451.000000	0.000985  
2450.000000	0.001040  
2449.000000	0.001065  
2448.000000	0.001055  
2447.000000	0.000972  
2446.000000	0.000818  
2445.000000	0.000682  
2444.000000	0.000667  
2443.000000	0.000789  
2442.000000	0.000971  
2441.000000	0.001110  
2440.000000	0.001151  
2439.000000	0.001109  
2438.000000	0.001047  
2437.000000	0.001013  
2436.000000	0.001001  
2435.000000	0.000966  
2434.000000	0.000890  
2433.000000	0.000807  
2432.000000	0.000788  
2431.000000	0.000896  
2430.000000	0.001145  
2429.000000	0.001457  
2428.000000	0.001678  
2427.000000	0.001684  
2426.000000	0.001490  
2425.000000	0.001240  
2424.000000	0.001072  
2423.000000	0.001023  
2422.000000	0.001047  
2421.000000	0.001081  
2420.000000	0.001080  
2419.000000	0.001036  
2418.000000	0.000987  
2417.000000	0.000991  
2416.000000	0.001060  
2415.000000	0.001149  
2414.000000	0.001210  
2413.000000	0.001239  
2412.000000	0.001250  
2411.000000	0.001230  
2410.000000	0.001161  
2409.000000	0.001080  
2408.000000	0.001064  
2407.000000	0.001143  
2406.000000	0.001246  
2405.000000	0.001267  
2404.000000	0.001188  
2403.000000	0.001098  
2402.000000	0.001086  
2401.000000	0.001141  
2400.000000	0.001182  
2399.000000	0.001164  
2398.000000	0.001117  
2397.000000	0.001092  
2396.000000	0.001111  
2395.000000	0.001168  
2394.000000	0.001240  
2393.000000	0.001292  
2392.000000	0.001312  
2391.000000	0.001339  
2390.000000	0.001422  
2389.000000	0.001516  
2388.000000	0.001493  
2387.000000	0.001280  
2386.000000	0.000960  
2385.000000	0.000700  
2384.000000	0.000608  
2383.000000	0.000697  
2382.000000	0.000930  
2381.000000	0.001228  
2380.000000	0.001455  
2379.000000	0.001504  
2378.000000	0.001405  
2377.000000	0.001272  
2376.000000	0.001122  
2375.000000	0.000866  
2374.000000	0.000535  
2373.000000	0.000368  
2372.000000	0.000544  
2371.000000	0.000936  
2370.000000	0.001269  
2369.000000	0.001432  
2368.000000	0.001470  
2367.000000	0.001376  
2366.000000	0.001132  
2365.000000	0.000870  
2364.000000	0.000749  
2363.000000	0.000725  
2362.000000	0.000635  
2361.000000	0.000479  
2360.000000	0.000391  
2359.000000	0.000427  
2358.000000	0.000551  
2357.000000	0.000726  
2356.000000	0.000919  
2355.000000	0.001101  
2354.000000	0.001244  
2353.000000	0.001273  
2352.000000	0.001103  
2351.000000	0.000817  
2350.000000	0.000653  
2349.000000	0.000776  
2348.000000	0.001094  
2347.000000	0.001261  
2346.000000	0.001017  
2345.000000	0.000539  
2344.000000	0.000212  
2343.000000	0.000128  
2342.000000	0.000131  
2341.000000	0.000165  
2340.000000	0.000278  
2339.000000	0.000487  
2338.000000	0.000747  
2337.000000	0.000958  
2336.000000	0.001007  
2335.000000	0.000863  
2334.000000	0.000623  
2333.000000	0.000404  
2332.000000	0.000229  
2331.000000	0.000081  
2330.000000	-0.000008 
2329.000000	-0.000027 
2328.000000	-0.000053 
2327.000000	-0.000184 
2326.000000	-0.000375 
2325.000000	-0.000477 
2324.000000	-0.000394 
2323.000000	-0.000181 
2322.000000	0.000025  
2321.000000	0.000134  
2320.000000	0.000132  
2319.000000	0.000051  
2318.000000	-0.000055 
2317.000000	-0.000108 
2316.000000	-0.000040 
2315.000000	0.000132  
2314.000000	0.000285  
2313.000000	0.000255  
2312.000000	0.000000  
2311.000000	-0.000343 
2310.000000	-0.000572 
2309.000000	-0.000617 
2308.000000	-0.000559 
2307.000000	-0.000493 
2306.000000	-0.000424 
2305.000000	-0.000337 
2304.000000	-0.000256 
2303.000000	-0.000219 
2302.000000	-0.000223 
2301.000000	-0.000254 
2300.000000	-0.000319 
2299.000000	-0.000423 
2298.000000	-0.000520 
2297.000000	-0.000565 
2296.000000	-0.000562 
2295.000000	-0.000526 
2294.000000	-0.000431 
2293.000000	-0.000266 
2292.000000	-0.000113 
2291.000000	-0.000078 
2290.000000	-0.000149 
2289.000000	-0.000202 
2288.000000	-0.000163 
2287.000000	-0.000082 
2286.000000	-0.000029 
2285.000000	-0.000007 
2284.000000	0.000017  
2283.000000	0.000053  
2282.000000	0.000098  
2281.000000	0.000160  
2280.000000	0.000222  
2279.000000	0.000241  
2278.000000	0.000203  
2277.000000	0.000143  
2276.000000	0.000079  
2275.000000	-0.000011 
2274.000000	-0.000116 
2273.000000	-0.000158 
2272.000000	-0.000086 
2271.000000	0.000046  
2270.000000	0.000169  
2269.000000	0.000284  
2268.000000	0.000428  
2267.000000	0.000579  
2266.000000	0.000667  
2265.000000	0.000650  
2264.000000	0.000516  
2263.000000	0.000259  
2262.000000	-0.000066 
2261.000000	-0.000306 
2260.000000	-0.000286 
2259.000000	0.000005  
2258.000000	0.000382  
2257.000000	0.000618  
2256.000000	0.000636  
2255.000000	0.000541  
2254.000000	0.000501  
2253.000000	0.000600  
2252.000000	0.000763  
2251.000000	0.000819  
2250.000000	0.000641  
2249.000000	0.000269  
2248.000000	-0.000100 
2247.000000	-0.000263 
2246.000000	-0.000159 
2245.000000	0.000097  
2244.000000	0.000328  
2243.000000	0.000434  
2242.000000	0.000426  
2241.000000	0.000357  
2240.000000	0.000266  
2239.000000	0.000202  
2238.000000	0.000226  
2237.000000	0.000345  
2236.000000	0.000459  
2235.000000	0.000452  
2234.000000	0.000336  
2233.000000	0.000262  
2232.000000	0.000369  
2231.000000	0.000642  
2230.000000	0.000895  
2229.000000	0.000914  
2228.000000	0.000623  
2227.000000	0.000176  
2226.000000	-0.000149 
2225.000000	-0.000188 
2224.000000	-0.000000 
2223.000000	0.000247  
2222.000000	0.000459  
2221.000000	0.000612  
2220.000000	0.000669  
2219.000000	0.000591  
2218.000000	0.000418  
2217.000000	0.000231  
2216.000000	0.000052  
2215.000000	-0.000128 
2214.000000	-0.000246 
2213.000000	-0.000197 
2212.000000	0.000006  
2211.000000	0.000242  
2210.000000	0.000456  
2209.000000	0.000730  
2208.000000	0.001100  
2207.000000	0.001413  
2206.000000	0.001463  
2205.000000	0.001234  
2204.000000	0.000940  
2203.000000	0.000843  
2202.000000	0.001030  
2201.000000	0.001364  
2200.000000	0.001589  
2199.000000	0.001550  
2198.000000	0.001299  
2197.000000	0.000989  
2196.000000	0.000699  
2195.000000	0.000426  
2194.000000	0.000237  
2193.000000	0.000258  
2192.000000	0.000481  
2191.000000	0.000690  
2190.000000	0.000690  
2189.000000	0.000516  
2188.000000	0.000331  
2187.000000	0.000186  
2186.000000	0.000010  
2185.000000	-0.000189 
2184.000000	-0.000282 
2183.000000	-0.000193 
2182.000000	-0.000034 
2181.000000	0.000034  
2180.000000	0.000029  
2179.000000	0.000144  
2178.000000	0.000525  
2177.000000	0.001081  
2176.000000	0.001553  
2175.000000	0.001736  
2174.000000	0.001627  
2173.000000	0.001367  
2172.000000	0.001092  
2171.000000	0.000844  
2170.000000	0.000617  
2169.000000	0.000455  
2168.000000	0.000468  
2167.000000	0.000728  
2166.000000	0.001136  
2165.000000	0.001438  
2164.000000	0.001423  
2163.000000	0.001127  
2162.000000	0.000794  
2161.000000	0.000655  
2160.000000	0.000790  
2159.000000	0.001121  
2158.000000	0.001452  
2157.000000	0.001519  
2156.000000	0.001183  
2155.000000	0.000593  
2154.000000	0.000086  
2153.000000	-0.000112 
2152.000000	-0.000051 
2151.000000	0.000086  
2150.000000	0.000195  
2149.000000	0.000272  
2148.000000	0.000370  
2147.000000	0.000557  
2146.000000	0.000834  
2145.000000	0.001043  
2144.000000	0.000986  
2143.000000	0.000686  
2142.000000	0.000421  
2141.000000	0.000423  
2140.000000	0.000621  
2139.000000	0.000782  
2138.000000	0.000797  
2137.000000	0.000709  
2136.000000	0.000563  
2135.000000	0.000368  
2134.000000	0.000177  
2133.000000	0.000055  
2132.000000	-0.000028 
2131.000000	-0.000159 
2130.000000	-0.000338 
2129.000000	-0.000461 
2128.000000	-0.000444 
2127.000000	-0.000296 
2126.000000	-0.000066 
2125.000000	0.000199  
2124.000000	0.000448  
2123.000000	0.000637  
2122.000000	0.000764  
2121.000000	0.000830  
2120.000000	0.000793  
2119.000000	0.000618  
2118.000000	0.000364  
2117.000000	0.000176  
2116.000000	0.000144  
2115.000000	0.000247  
2114.000000	0.000411  
2113.000000	0.000574  
2112.000000	0.000666  
2111.000000	0.000602  
2110.000000	0.000352  
2109.000000	0.000004  
2108.000000	-0.000269 
2107.000000	-0.000348 
2106.000000	-0.000252 
2105.000000	-0.000116 
2104.000000	-0.000052 
2103.000000	-0.000038 
2102.000000	0.000024  
2101.000000	0.000147  
2100.000000	0.000214  
2099.000000	0.000142  
2098.000000	0.000006  
2097.000000	-0.000048 
2096.000000	0.000034  
2095.000000	0.000239  
2094.000000	0.000564  
2093.000000	0.000983  
2092.000000	0.001364  
2091.000000	0.001551  
2090.000000	0.001520  
2089.000000	0.001379  
2088.000000	0.001210  
2087.000000	0.001023  
2086.000000	0.000838  
2085.000000	0.000716  
2084.000000	0.000675  
2083.000000	0.000638  
2082.000000	0.000515  
2081.000000	0.000282  
2080.000000	-0.000006 
2079.000000	-0.000221 
2078.000000	-0.000196 
2077.000000	0.000121  
2076.000000	0.000552  
2075.000000	0.000812  
2074.000000	0.000786  
2073.000000	0.000610  
2072.000000	0.000481  
2071.000000	0.000455  
2070.000000	0.000460  
2069.000000	0.000395  
2068.000000	0.000209  
2067.000000	-0.000044 
2066.000000	-0.000206 
2065.000000	-0.000144 
2064.000000	0.000092  
2063.000000	0.000357  
2062.000000	0.000589  
2061.000000	0.000806  
2060.000000	0.000959  
2059.000000	0.000955  
2058.000000	0.000848  
2057.000000	0.000833  
2056.000000	0.000979  
2055.000000	0.001091  
2054.000000	0.000943  
2053.000000	0.000541  
2052.000000	0.000085  
2051.000000	-0.000236 
2050.000000	-0.000340 
2049.000000	-0.000234 
2048.000000	0.000001  
2047.000000	0.000260  
2046.000000	0.000486  
2045.000000	0.000658  
2044.000000	0.000722  
2043.000000	0.000647  
2042.000000	0.000535  
2041.000000	0.000551  
2040.000000	0.000685  
2039.000000	0.000780  
2038.000000	0.000813  
2037.000000	0.000953  
2036.000000	0.001261  
2035.000000	0.001530  
2034.000000	0.001549  
2033.000000	0.001378  
2032.000000	0.001202  
2031.000000	0.001052  
2030.000000	0.000847  
2029.000000	0.000600  
2028.000000	0.000408  
2027.000000	0.000316  
2026.000000	0.000313  
2025.000000	0.000404  
2024.000000	0.000593  
2023.000000	0.000853  
2022.000000	0.001164  
2021.000000	0.001512  
2020.000000	0.001776  
2019.000000	0.001725  
2018.000000	0.001230  
2017.000000	0.000449  
2016.000000	-0.000279 
2015.000000	-0.000700 
2014.000000	-0.000724 
2013.000000	-0.000438 
2012.000000	-0.000123 
2011.000000	-0.000070 
2010.000000	-0.000273 
2009.000000	-0.000414 
2008.000000	-0.000248 
2007.000000	0.000130  
2006.000000	0.000496  
2005.000000	0.000751  
2004.000000	0.000851  
2003.000000	0.000682  
2002.000000	0.000214  
2001.000000	-0.000305 
2000.000000	-0.000515 
1999.000000	-0.000301 
1998.000000	0.000129  
1997.000000	0.000480  
1996.000000	0.000606  
1995.000000	0.000547  
1994.000000	0.000458  
1993.000000	0.000519  
1992.000000	0.000749  
1991.000000	0.000922  
1990.000000	0.000824  
1989.000000	0.000519  
1988.000000	0.000234  
1987.000000	0.000054  
1986.000000	-0.000159 
1985.000000	-0.000511 
1984.000000	-0.000828 
1983.000000	-0.000802 
1982.000000	-0.000339 
1981.000000	0.000291  
1980.000000	0.000680  
1979.000000	0.000612  
1978.000000	0.000179  
1977.000000	-0.000390 
1976.000000	-0.000917 
1975.000000	-0.001269 
1974.000000	-0.001301 
1973.000000	-0.000961 
1972.000000	-0.000430 
1971.000000	-0.000010 
1970.000000	0.000152  
1969.000000	0.000147  
1968.000000	0.000132  
1967.000000	0.000158  
1966.000000	0.000221  
1965.000000	0.000355  
1964.000000	0.000586  
1963.000000	0.000842  
1962.000000	0.001026  
1961.000000	0.001123  
1960.000000	0.001197  
1959.000000	0.001261  
1958.000000	0.001248  
1957.000000	0.001095  
1956.000000	0.000839  
1955.000000	0.000615  
1954.000000	0.000565  
1953.000000	0.000727  
1952.000000	0.000974  
1951.000000	0.001093  
1950.000000	0.000960  
1949.000000	0.000663  
1948.000000	0.000418  
1947.000000	0.000379  
1946.000000	0.000508  
1945.000000	0.000642  
1944.000000	0.000645  
1943.000000	0.000515  
1942.000000	0.000337  
1941.000000	0.000172  
1940.000000	0.000047  
1939.000000	0.000001  
1938.000000	0.000075  
1937.000000	0.000230  
1936.000000	0.000362  
1935.000000	0.000418  
1934.000000	0.000466  
1933.000000	0.000584  
1932.000000	0.000741  
1931.000000	0.000848  
1930.000000	0.000892  
1929.000000	0.000924  
1928.000000	0.000944  
1927.000000	0.000925  
1926.000000	0.000893  
1925.000000	0.000919  
1924.000000	0.000990  
1923.000000	0.000983  
1922.000000	0.000837  
1921.000000	0.000643  
1920.000000	0.000505  
1919.000000	0.000452  
1918.000000	0.000501  
1917.000000	0.000642  
1916.000000	0.000801  
1915.000000	0.000864  
1914.000000	0.000775  
1913.000000	0.000598  
1912.000000	0.000474  
1911.000000	0.000492  
1910.000000	0.000633  
1909.000000	0.000814  
1908.000000	0.000948  
1907.000000	0.000994  
1906.000000	0.000945  
1905.000000	0.000824  
1904.000000	0.000668  
1903.000000	0.000514  
1902.000000	0.000415  
1901.000000	0.000403  
1900.000000	0.000467  
1899.000000	0.000578  
1898.000000	0.000715  
1897.000000	0.000846  
1896.000000	0.000910  
1895.000000	0.000869  
1894.000000	0.000785  
1893.000000	0.000759  
1892.000000	0.000796  
1891.000000	0.000805  
1890.000000	0.000704  
1889.000000	0.000522  
1888.000000	0.000365  
1887.000000	0.000323  
1886.000000	0.000410  
1885.000000	0.000555  
1884.000000	0.000641  
1883.000000	0.000614  
1882.000000	0.000533  
1881.000000	0.000463  
1880.000000	0.000377  
1879.000000	0.000230  
1878.000000	0.000092  
1877.000000	0.000101  
1876.000000	0.000284  
1875.000000	0.000509  
1874.000000	0.000660  
1873.000000	0.000742  
1872.000000	0.000783  
1871.000000	0.000740  
1870.000000	0.000579  
1869.000000	0.000418  
1868.000000	0.000406  
1867.000000	0.000498  
1866.000000	0.000581  
1865.000000	0.000616  
1864.000000	0.000619  
1863.000000	0.000611  
1862.000000	0.000599  
1861.000000	0.000578  
1860.000000	0.000514  
1859.000000	0.000377  
1858.000000	0.000213  
1857.000000	0.000142  
1856.000000	0.000234  
1855.000000	0.000433  
1854.000000	0.000615  
1853.000000	0.000706  
1852.000000	0.000709  
1851.000000	0.000671  
1850.000000	0.000637  
1849.000000	0.000644  
1848.000000	0.000720  
1847.000000	0.000842  
1846.000000	0.000941  
1845.000000	0.000956  
1844.000000	0.000871  
1843.000000	0.000722  
1842.000000	0.000621  
1841.000000	0.000635  
1840.000000	0.000694  
1839.000000	0.000678  
1838.000000	0.000542  
1837.000000	0.000374  
1836.000000	0.000289  
1835.000000	0.000291  
1834.000000	0.000311  
1833.000000	0.000308  
1832.000000	0.000303  
1831.000000	0.000337  
1830.000000	0.000404  
1829.000000	0.000460  
1828.000000	0.000503  
1827.000000	0.000546  
1826.000000	0.000554  
1825.000000	0.000506  
1824.000000	0.000433  
1823.000000	0.000378  
1822.000000	0.000341  
1821.000000	0.000302  
1820.000000	0.000284  
1819.000000	0.000326  
1818.000000	0.000422  
1817.000000	0.000529  
1816.000000	0.000597  
1815.000000	0.000606  
1814.000000	0.000567  
1813.000000	0.000503  
1812.000000	0.000444  
1811.000000	0.000399  
1810.000000	0.000361  
1809.000000	0.000343  
1808.000000	0.000350  
1807.000000	0.000380  
1806.000000	0.000440  
1805.000000	0.000541  
1804.000000	0.000659  
1803.000000	0.000731  
1802.000000	0.000726  
1801.000000	0.000674  
1800.000000	0.000652  
1799.000000	0.000701  
1798.000000	0.000802  
1797.000000	0.000925  
1796.000000	0.001045  
1795.000000	0.001146  
1794.000000	0.001208  
1793.000000	0.001234  
1792.000000	0.001219  
1791.000000	0.001128  
1790.000000	0.001007  
1789.000000	0.000960  
1788.000000	0.001005  
1787.000000	0.001085  
1786.000000	0.001150  
1785.000000	0.001184  
1784.000000	0.001201  
1783.000000	0.001221  
1782.000000	0.001245  
1781.000000	0.001251  
1780.000000	0.001265  
1779.000000	0.001311  
1778.000000	0.001375  
1777.000000	0.001437  
1776.000000	0.001484  
1775.000000	0.001532  
1774.000000	0.001564  
1773.000000	0.001557  
1772.000000	0.001548  
1771.000000	0.001572  
1770.000000	0.001634  
1769.000000	0.001724  
1768.000000	0.001790  
1767.000000	0.001809  
1766.000000	0.001876  
1765.000000	0.002085  
1764.000000	0.002383  
1763.000000	0.002618  
1762.000000	0.002702  
1761.000000	0.002737  
1760.000000	0.002920  
1759.000000	0.003278  
1758.000000	0.003684  
1757.000000	0.004051  
1756.000000	0.004404  
1755.000000	0.004844  
1754.000000	0.005433  
1753.000000	0.006198  
1752.000000	0.007226  
1751.000000	0.008631  
1750.000000	0.010512  
1749.000000	0.012996  
1748.000000	0.015925  
1747.000000	0.018878  
1746.000000	0.021732  
1745.000000	0.024694  
1744.000000	0.027726  
1743.000000	0.030318  
1742.000000	0.032031  
1741.000000	0.032777  
1740.000000	0.032491  
1739.000000	0.031313  
1738.000000	0.029839  
1737.000000	0.028445  
1736.000000	0.026834  
1735.000000	0.024397  
1734.000000	0.021492  
1733.000000	0.019415  
1732.000000	0.018430  
1731.000000	0.017984  
1730.000000	0.017732  
1729.000000	0.017596  
1728.000000	0.017623  
1727.000000	0.017844  
1726.000000	0.018226  
1725.000000	0.018671  
1724.000000	0.019104  
1723.000000	0.019473  
1722.000000	0.019766  
1721.000000	0.019958  
1720.000000	0.019948  
1719.000000	0.019620  
1718.000000	0.018990  
1717.000000	0.018210  
1716.000000	0.017348  
1715.000000	0.016410  
1714.000000	0.015454  
1713.000000	0.014518  
1712.000000	0.013578  
1711.000000	0.012594  
1710.000000	0.011611  
1709.000000	0.010730  
1708.000000	0.009973  
1707.000000	0.009233  
1706.000000	0.008432  
1705.000000	0.007712  
1704.000000	0.007244  
1703.000000	0.007003  
1702.000000	0.006742  
1701.000000	0.006164  
1700.000000	0.005311  
1699.000000	0.004676  
1698.000000	0.004522  
1697.000000	0.004534  
1696.000000	0.004336  
1695.000000	0.003920  
1694.000000	0.003603  
1693.000000	0.003568  
1692.000000	0.003620  
1691.000000	0.003559  
1690.000000	0.003412  
1689.000000	0.003298  
1688.000000	0.003271  
1687.000000	0.003320  
1686.000000	0.003359  
1685.000000	0.003386  
1684.000000	0.003443  
1683.000000	0.003433  
1682.000000	0.003435  
1681.000000	0.003481  
1680.000000	0.003398  
1679.000000	0.003193  
1678.000000	0.003044  
1677.000000	0.003029  
1676.000000	0.003077  
1675.000000	0.003089  
1674.000000	0.003070  
1673.000000	0.003098  
1672.000000	0.003131  
1671.000000	0.003073  
1670.000000	0.003022  
1669.000000	0.003065  
1668.000000	0.003099  
1667.000000	0.003110  
1666.000000	0.003157  
1665.000000	0.003231  
1664.000000	0.003297  
1663.000000	0.003373  
1662.000000	0.003499  
1661.000000	0.003631  
1660.000000	0.003718  
1659.000000	0.003744  
1658.000000	0.003750  
1657.000000	0.003781  
1656.000000	0.003840  
1655.000000	0.003811  
1654.000000	0.003764  
1653.000000	0.003954  
1652.000000	0.004034  
1651.000000	0.004016  
1650.000000	0.004135  
1649.000000	0.004176  
1648.000000	0.004042  
1647.000000	0.003923  
1646.000000	0.003939  
1645.000000	0.003971  
1644.000000	0.003976  
1643.000000	0.003963  
1642.000000	0.003934  
1641.000000	0.003910  
1640.000000	0.003889  
1639.000000	0.003861  
1638.000000	0.003825  
1637.000000	0.003828  
1636.000000	0.003884  
1635.000000	0.003834  
1634.000000	0.003652  
1633.000000	0.003551  
1632.000000	0.003541  
1631.000000	0.003493  
1630.000000	0.003390  
1629.000000	0.003312  
1628.000000	0.003307  
1627.000000	0.003327  
1626.000000	0.003320  
1625.000000	0.003266  
1624.000000	0.003185  
1623.000000	0.003128  
1622.000000	0.003128  
1621.000000	0.003168  
1620.000000	0.003202  
1619.000000	0.003150  
1618.000000	0.002984  
1617.000000	0.002838  
1616.000000	0.002801  
1615.000000	0.002806  
1614.000000	0.002843  
1613.000000	0.002910  
1612.000000	0.002943  
1611.000000	0.002903  
1610.000000	0.002821  
1609.000000	0.002751  
1608.000000	0.002721  
1607.000000	0.002742  
1606.000000	0.002820  
1605.000000	0.002907  
1604.000000	0.002937  
1603.000000	0.002885  
1602.000000	0.002803  
1601.000000	0.002749  
1600.000000	0.002712  
1599.000000	0.002650  
1598.000000	0.002563  
1597.000000	0.002488  
1596.000000	0.002452  
1595.000000	0.002456  
1594.000000	0.002502  
1593.000000	0.002577  
1592.000000	0.002648  
1591.000000	0.002702  
1590.000000	0.002755  
1589.000000	0.002811  
1588.000000	0.002837  
1587.000000	0.002822  
1586.000000	0.002817  
1585.000000	0.002860  
1584.000000	0.002920  
1583.000000	0.002960  
1582.000000	0.002979  
1581.000000	0.002997  
1580.000000	0.003019  
1579.000000	0.003031  
1578.000000	0.003012  
1577.000000	0.003025  
1576.000000	0.003124  
1575.000000	0.003188  
1574.000000	0.003193  
1573.000000	0.003208  
1572.000000	0.003184  
1571.000000	0.003077  
1570.000000	0.002998  
1569.000000	0.003053  
1568.000000	0.003144  
1567.000000	0.003210  
1566.000000	0.003262  
1565.000000	0.003296  
1564.000000	0.003297  
1563.000000	0.003283  
1562.000000	0.003282  
1561.000000	0.003279  
1560.000000	0.003294  
1559.000000	0.003362  
1558.000000	0.003289  
1557.000000	0.003193  
1556.000000	0.003248  
1555.000000	0.003255  
1554.000000	0.003140  
1553.000000	0.003055  
1552.000000	0.003095  
1551.000000	0.003142  
1550.000000	0.003078  
1549.000000	0.002989  
1548.000000	0.002996  
1547.000000	0.003098  
1546.000000	0.003200  
1545.000000	0.003268  
1544.000000	0.003255  
1543.000000	0.003076  
1542.000000	0.002787  
1541.000000	0.002790  
1540.000000	0.003286  
1539.000000	0.003583  
1538.000000	0.003505  
1537.000000	0.003477  
1536.000000	0.003542  
1535.000000	0.003560  
1534.000000	0.003572  
1533.000000	0.003686  
1532.000000	0.003830  
1531.000000	0.003931  
1530.000000	0.003997  
1529.000000	0.004043  
1528.000000	0.004059  
1527.000000	0.004013  
1526.000000	0.003936  
1525.000000	0.003937  
1524.000000	0.004058  
1523.000000	0.004205  
1522.000000	0.004351  
1521.000000	0.004490  
1520.000000	0.004519  
1519.000000	0.004548  
1518.000000	0.004691  
1517.000000	0.004904  
1516.000000	0.005033  
1515.000000	0.005055  
1514.000000	0.005169  
1513.000000	0.005444  
1512.000000	0.005766  
1511.000000	0.006013  
1510.000000	0.006229  
1509.000000	0.006541  
1508.000000	0.006892  
1507.000000	0.006882  
1506.000000	0.006623  
1505.000000	0.006601  
1504.000000	0.006856  
1503.000000	0.007179  
1502.000000	0.007424  
1501.000000	0.007609  
1500.000000	0.007744  
1499.000000	0.007826  
1498.000000	0.008003  
1497.000000	0.008457  
1496.000000	0.008954  
1495.000000	0.009178  
1494.000000	0.009293  
1493.000000	0.009503  
1492.000000	0.009787  
1491.000000	0.010123  
1490.000000	0.010696  
1489.000000	0.011543  
1488.000000	0.012354  
1487.000000	0.013017  
1486.000000	0.013726  
1485.000000	0.014605  
1484.000000	0.015603  
1483.000000	0.016720  
1482.000000	0.018037  
1481.000000	0.019512  
1480.000000	0.020898  
1479.000000	0.022127  
1478.000000	0.023439  
1477.000000	0.025046  
1476.000000	0.026812  
1475.000000	0.028691  
1474.000000	0.031669  
1473.000000	0.037085  
1472.000000	0.043783  
1471.000000	0.049536  
1470.000000	0.054451  
1469.000000	0.059170  
1468.000000	0.063595  
1467.000000	0.067401  
1466.000000	0.070481  
1465.000000	0.072704  
1464.000000	0.073847  
1463.000000	0.074225  
1462.000000	0.074434  
1461.000000	0.074738  
1460.000000	0.075145  
1459.000000	0.075781  
1458.000000	0.076686  
1457.000000	0.076561  
1456.000000	0.074376  
1455.000000	0.071611  
1454.000000	0.069129  
1453.000000	0.066656  
1452.000000	0.064058  
1451.000000	0.061581  
1450.000000	0.059349  
1449.000000	0.057076  
1448.000000	0.054510  
1447.000000	0.051871  
1446.000000	0.049446  
1445.000000	0.047168  
1444.000000	0.044938  
1443.000000	0.042824  
1442.000000	0.040945  
1441.000000	0.039346  
1440.000000	0.038043  
1439.000000	0.037009  
1438.000000	0.036083  
1437.000000	0.035034  
1436.000000	0.033886  
1435.000000	0.032959  
1434.000000	0.032270  
1433.000000	0.031490  
1432.000000	0.030410  
1431.000000	0.029121  
1430.000000	0.027825  
1429.000000	0.026671  
1428.000000	0.025771  
1427.000000	0.025172  
1426.000000	0.024771  
1425.000000	0.024387  
1424.000000	0.024005  
1423.000000	0.023748  
1422.000000	0.023617  
1421.000000	0.023461  
1420.000000	0.023165  
1419.000000	0.022761  
1418.000000	0.022296  
1417.000000	0.021835  
1416.000000	0.021457  
1415.000000	0.021157  
1414.000000	0.020878  
1413.000000	0.020584  
1412.000000	0.020306  
1411.000000	0.020098  
1410.000000	0.019938  
1409.000000	0.019786  
1408.000000	0.019662  
1407.000000	0.019609  
1406.000000	0.019616  
1405.000000	0.019619  
1404.000000	0.019638  
1403.000000	0.019773  
1402.000000	0.020050  
1401.000000	0.020416  
1400.000000	0.020824  
1399.000000	0.021214  
1398.000000	0.021501  
1397.000000	0.021698  
1396.000000	0.021888  
1395.000000	0.022095  
1394.000000	0.022269  
1393.000000	0.022432  
1392.000000	0.022702  
1391.000000	0.023121  
1390.000000	0.023697  
1389.000000	0.024551  
1388.000000	0.025897  
1387.000000	0.027706  
1386.000000	0.029651  
1385.000000	0.031648  
1384.000000	0.033931  
1383.000000	0.036690  
1382.000000	0.039889  
1381.000000	0.043296  
1380.000000	0.046466  
1379.000000	0.048738  
1378.000000	0.049572  
1377.000000	0.048914  
1376.000000	0.046944  
1375.000000	0.043842  
1374.000000	0.040181  
1373.000000	0.036941  
1372.000000	0.034622  
1371.000000	0.033060  
1370.000000	0.031968  
1369.000000	0.031206  
1368.000000	0.030721  
1367.000000	0.030381  
1366.000000	0.029986  
1365.000000	0.029344  
1364.000000	0.028351  
1363.000000	0.027093  
1362.000000	0.025870  
1361.000000	0.024949  
1360.000000	0.024364  
1359.000000	0.024022  
1358.000000	0.023818  
1357.000000	0.023672  
1356.000000	0.023540  
1355.000000	0.023421  
1354.000000	0.023342  
1353.000000	0.023305  
1352.000000	0.023283  
1351.000000	0.023238  
1350.000000	0.023156  
1349.000000	0.023038  
1348.000000	0.022913  
1347.000000	0.022804  
1346.000000	0.022707  
1345.000000	0.022620  
1344.000000	0.022580  
1343.000000	0.022637  
1342.000000	0.022783  
1341.000000	0.022927  
1340.000000	0.022920  
1339.000000	0.022666  
1338.000000	0.022240  
1337.000000	0.021792  
1336.000000	0.021406  
1335.000000	0.021090  
1334.000000	0.020828  
1333.000000	0.020616  
1332.000000	0.020478  
1331.000000	0.020428  
1330.000000	0.020430  
1329.000000	0.020415  
1328.000000	0.020360  
1327.000000	0.020300  
1326.000000	0.020255  
1325.000000	0.020204  
1324.000000	0.020141  
1323.000000	0.020099  
1322.000000	0.020103  
1321.000000	0.020125  
1320.000000	0.020111  
1319.000000	0.020042  
1318.000000	0.019941  
1317.000000	0.019861  
1316.000000	0.019853  
1315.000000	0.019940  
1314.000000	0.020083  
1313.000000	0.020197  
1312.000000	0.020232  
1311.000000	0.020219  
1310.000000	0.020210  
1309.000000	0.020208  
1308.000000	0.020181  
1307.000000	0.020116  
1306.000000	0.020032  
1305.000000	0.019950  
1304.000000	0.019877  
1303.000000	0.019810  
1302.000000	0.019741  
1301.000000	0.019665  
1300.000000	0.019594  
1299.000000	0.019551  
1298.000000	0.019546  
1297.000000	0.019551  
1296.000000	0.019524  
1295.000000	0.019440  
1294.000000	0.019305  
1293.000000	0.019148  
1292.000000	0.018998  
1291.000000	0.018868  
1290.000000	0.018739  
1289.000000	0.018585  
1288.000000	0.018409  
1287.000000	0.018259  
1286.000000	0.018188  
1285.000000	0.018211  
1284.000000	0.018296  
1283.000000	0.018383  
1282.000000	0.018426  
1281.000000	0.018428  
1280.000000	0.018434  
1279.000000	0.018477  
1278.000000	0.018542  
1277.000000	0.018585  
1276.000000	0.018600  
1275.000000	0.018621  
1274.000000	0.018670  
1273.000000	0.018731  
1272.000000	0.018780  
1271.000000	0.018810  
1270.000000	0.018805  
1269.000000	0.018746  
1268.000000	0.018651  
1267.000000	0.018588  
1266.000000	0.018617  
1265.000000	0.018728  
1264.000000	0.018873  
1263.000000	0.019032  
1262.000000	0.019224  
1261.000000	0.019458  
1260.000000	0.019695  
1259.000000	0.019875  
1258.000000	0.019980  
1257.000000	0.020063  
1256.000000	0.020220  
1255.000000	0.020507  
1254.000000	0.020887  
1253.000000	0.021260  
1252.000000	0.021548  
1251.000000	0.021763  
1250.000000	0.021964  
1249.000000	0.022182  
1248.000000	0.022382  
1247.000000	0.022504  
1246.000000	0.022524  
1245.000000	0.022474  
1244.000000	0.022393  
1243.000000	0.022289  
1242.000000	0.022133  
1241.000000	0.021888  
1240.000000	0.021554  
1239.000000	0.021164  
1238.000000	0.020763  
1237.000000	0.020387  
1236.000000	0.020049  
1235.000000	0.019750  
1234.000000	0.019480  
1233.000000	0.019225  
1232.000000	0.018989  
1231.000000	0.018787  
1230.000000	0.018643  
1229.000000	0.018571  
1228.000000	0.018582  
1227.000000	0.018662  
1226.000000	0.018775  
1225.000000	0.018897  
1224.000000	0.019059  
1223.000000	0.019311  
1222.000000	0.019661  
1221.000000	0.020058  
1220.000000	0.020451  
1219.000000	0.020817  
1218.000000	0.021137  
1217.000000	0.021382  
1216.000000	0.021551  
1215.000000	0.021691  
1214.000000	0.021848  
1213.000000	0.022000  
1212.000000	0.022076  
1211.000000	0.022045  
1210.000000	0.021959  
1209.000000	0.021907  
1208.000000	0.021939  
1207.000000	0.022053  
1206.000000	0.022226  
1205.000000	0.022433  
1204.000000	0.022650  
1203.000000	0.022856  
1202.000000	0.023049  
1201.000000	0.023246  
1200.000000	0.023459  
1199.000000	0.023676  
1198.000000	0.023870  
1197.000000	0.024037  
1196.000000	0.024202  
1195.000000	0.024385  
1194.000000	0.024573  
1193.000000	0.024744  
1192.000000	0.024902  
1191.000000	0.025072  
1190.000000	0.025270  
1189.000000	0.025493  
1188.000000	0.025739  
1187.000000	0.026004  
1186.000000	0.026272  
1185.000000	0.026519  
1184.000000	0.026749  
1183.000000	0.026986  
1182.000000	0.027221  
1181.000000	0.027390  
1180.000000	0.027440  
1179.000000	0.027385  
1178.000000	0.027293  
1177.000000	0.027208  
1176.000000	0.027120  
1175.000000	0.026999  
1174.000000	0.026826  
1173.000000	0.026599  
1172.000000	0.026325  
1171.000000	0.026026  
1170.000000	0.025709  
1169.000000	0.025362  
1168.000000	0.024968  
1167.000000	0.024536  
1166.000000	0.024074  
1165.000000	0.023566  
1164.000000	0.023004  
1163.000000	0.022429  
1162.000000	0.021892  
1161.000000	0.021393  
1160.000000	0.020901  
1159.000000	0.020425  
1158.000000	0.020000  
1157.000000	0.019615  
1156.000000	0.019221  
1155.000000	0.018838  
1154.000000	0.018556  
1153.000000	0.018406  
1152.000000	0.018284  
1151.000000	0.018067  
1150.000000	0.017756  
1149.000000	0.017452  
1148.000000	0.017232  
1147.000000	0.017095  
1146.000000	0.017004  
1145.000000	0.016924  
1144.000000	0.016820  
1143.000000	0.016672  
1142.000000	0.016503  
1141.000000	0.016355  
1140.000000	0.016249  
1139.000000	0.016166  
1138.000000	0.016087  
1137.000000	0.016012  
1136.000000	0.015935  
1135.000000	0.015849  
1134.000000	0.015778  
1133.000000	0.015768  
1132.000000	0.015841  
1131.000000	0.015971  
1130.000000	0.016136  
1129.000000	0.016363  
1128.000000	0.016714  
1127.000000	0.017224  
1126.000000	0.017888  
1125.000000	0.018687  
1124.000000	0.019606  
1123.000000	0.020624  
1122.000000	0.021733  
1121.000000	0.022953  
1120.000000	0.024307  
1119.000000	0.025749  
1118.000000	0.027145  
1117.000000	0.028336  
1116.000000	0.029203  
1115.000000	0.029704  
1114.000000	0.029850  
1113.000000	0.029687  
1112.000000	0.029271  
1111.000000	0.028670  
1110.000000	0.027975  
1109.000000	0.027275  
1108.000000	0.026622  
1107.000000	0.026011  
1106.000000	0.025412  
1105.000000	0.024805  
1104.000000	0.024220  
1103.000000	0.023713  
1102.000000	0.023320  
1101.000000	0.023015  
1100.000000	0.022729  
1099.000000	0.022411  
1098.000000	0.022088  
1097.000000	0.021837  
1096.000000	0.021718  
1095.000000	0.021718  
1094.000000	0.021784  
1093.000000	0.021914  
1092.000000	0.022193  
1091.000000	0.022731  
1090.000000	0.023577  
1089.000000	0.024706  
1088.000000	0.026102  
1087.000000	0.027821  
1086.000000	0.029960  
1085.000000	0.032582  
1084.000000	0.035662  
1083.000000	0.039127  
1082.000000	0.042899  
1081.000000	0.046916  
1080.000000	0.051103  
1079.000000	0.055387  
1078.000000	0.059743  
1077.000000	0.064158  
1076.000000	0.068502  
1075.000000	0.072460  
1074.000000	0.075632  
1073.000000	0.077672  
1072.000000	0.078328  
1071.000000	0.077498  
1070.000000	0.075339  
1069.000000	0.072248  
1068.000000	0.068715  
1067.000000	0.065222  
1066.000000	0.062230  
1065.000000	0.060100  
1064.000000	0.058946  
1063.000000	0.058569  
1062.000000	0.058538  
1061.000000	0.058344  
1060.000000	0.057564  
1059.000000	0.056000  
1058.000000	0.053773  
1057.000000	0.051276  
1056.000000	0.049006  
1055.000000	0.047410  
1054.000000	0.046810  
1053.000000	0.047337  
1052.000000	0.048888  
1051.000000	0.051145  
1050.000000	0.053689  
1049.000000	0.056120  
1048.000000	0.058115  
1047.000000	0.059480  
1046.000000	0.060227  
1045.000000	0.060517  
1044.000000	0.060507  
1043.000000	0.060256  
1042.000000	0.059787  
1041.000000	0.059142  
1040.000000	0.058356  
1039.000000	0.057418  
1038.000000	0.056320  
1037.000000	0.055154  
1036.000000	0.054137  
1035.000000	0.053569  
1034.000000	0.053764  
1033.000000	0.054928  
1032.000000	0.056960  
1031.000000	0.059295  
1030.000000	0.061006  
1029.000000	0.061204  
1028.000000	0.059496  
1027.000000	0.056147  
1026.000000	0.051879  
1025.000000	0.047467  
1024.000000	0.043458  
1023.000000	0.040091  
1022.000000	0.037365  
1021.000000	0.035167  
1020.000000	0.033430  
1019.000000	0.032210  
1018.000000	0.031609  
1017.000000	0.031661  
1016.000000	0.032312  
1015.000000	0.033470  
1014.000000	0.034982  
1013.000000	0.036572  
1012.000000	0.037855  
1011.000000	0.038469  
1010.000000	0.038215  
1009.000000	0.037100  
1008.000000	0.035290  
1007.000000	0.033060  
1006.000000	0.030711  
1005.000000	0.028470  
1004.000000	0.026450  
1003.000000	0.024705  
1002.000000	0.023288  
1001.000000	0.022261  
1000.000000	0.021684  
999.000000	 0.021625  
998.000000	 0.022131  
997.000000	 0.023187  
996.000000	 0.024693  
995.000000	 0.026479  
994.000000	 0.028301  
993.000000	 0.029828  
992.000000	 0.030706  
991.000000	 0.030716  
990.000000	 0.029899  
989.000000	 0.028507  
988.000000	 0.026837  
987.000000	 0.025114  
986.000000	 0.023469  
985.000000	 0.021960  
984.000000	 0.020605  
983.000000	 0.019428  
982.000000	 0.018485  
981.000000	 0.017820  
980.000000	 0.017413  
979.000000	 0.017185  
978.000000	 0.017069  
977.000000	 0.017065  
976.000000	 0.017221  
975.000000	 0.017564  
974.000000	 0.018060  
973.000000	 0.018642  
972.000000	 0.019285  
971.000000	 0.020028  
970.000000	 0.020921  
969.000000	 0.021944  
968.000000	 0.022998  
967.000000	 0.023966  
966.000000	 0.024781  
965.000000	 0.025422  
964.000000	 0.025889  
963.000000	 0.026208  
962.000000	 0.026466  
961.000000	 0.026793  
960.000000	 0.027312  
959.000000	 0.028114  
958.000000	 0.029260  
957.000000	 0.030770  
956.000000	 0.032574  
955.000000	 0.034471  
954.000000	 0.036147  
953.000000	 0.037243  
952.000000	 0.037463  
951.000000	 0.036700  
950.000000	 0.035108  
949.000000	 0.033025  
948.000000	 0.030800  
947.000000	 0.028682  
946.000000	 0.026810  
945.000000	 0.025235  
944.000000	 0.023931  
943.000000	 0.022807  
942.000000	 0.021753  
941.000000	 0.020681  
940.000000	 0.019548  
939.000000	 0.018357  
938.000000	 0.017149  
937.000000	 0.015998  
936.000000	 0.014984  
935.000000	 0.014158  
934.000000	 0.013514  
933.000000	 0.012997  
932.000000	 0.012541  
931.000000	 0.012106  
930.000000	 0.011686  
929.000000	 0.011314  
928.000000	 0.011067  
927.000000	 0.011000  
926.000000	 0.011070  
925.000000	 0.011140  
924.000000	 0.011107  
923.000000	 0.011013  
922.000000	 0.010977  
921.000000	 0.011046  
920.000000	 0.011152  
919.000000	 0.011210  
918.000000	 0.011200  
917.000000	 0.011145  
916.000000	 0.011066  
915.000000	 0.011000  
914.000000	 0.011003  
913.000000	 0.011078  
912.000000	 0.011150  
911.000000	 0.011166  
910.000000	 0.011185  
909.000000	 0.011328  
908.000000	 0.011630  
907.000000	 0.012027  
906.000000	 0.012467  
905.000000	 0.012958  
904.000000	 0.013502  
903.000000	 0.014032  
902.000000	 0.014447  
901.000000	 0.014672  
900.000000	 0.014660  
899.000000	 0.014383  
898.000000	 0.013869  
897.000000	 0.013220  
896.000000	 0.012562  
895.000000	 0.011985  
894.000000	 0.011533  
893.000000	 0.011214  
892.000000	 0.010997  
891.000000	 0.010844  
890.000000	 0.010756  
889.000000	 0.010769  
888.000000	 0.010879  
887.000000	 0.010997  
886.000000	 0.011029  
885.000000	 0.010978  
884.000000	 0.010942  
883.000000	 0.011014  
882.000000	 0.011205  
881.000000	 0.011448  
880.000000	 0.011642  
879.000000	 0.011703  
878.000000	 0.011616  
877.000000	 0.011456  
876.000000	 0.011321  
875.000000	 0.011254  
874.000000	 0.011237  
873.000000	 0.011254  
872.000000	 0.011308  
871.000000	 0.011383  
870.000000	 0.011438  
869.000000	 0.011460  
868.000000	 0.011487  
867.000000	 0.011563  
866.000000	 0.011700  
865.000000	 0.011892  
864.000000	 0.012148  
863.000000	 0.012479  
862.000000	 0.012865  
861.000000	 0.013258  
860.000000	 0.013643  
859.000000	 0.014093  
858.000000	 0.014727  
857.000000	 0.015616  
856.000000	 0.016714  
855.000000	 0.017918  
854.000000	 0.019195  
853.000000	 0.020641  
852.000000	 0.022365  
851.000000	 0.024329  
850.000000	 0.026329  
849.000000	 0.028106  
848.000000	 0.029436  
847.000000	 0.030139  
846.000000	 0.030081  
845.000000	 0.029230  
844.000000	 0.027709  
843.000000	 0.025779  
842.000000	 0.023746  
841.000000	 0.021850  
840.000000	 0.020220  
839.000000	 0.018894  
838.000000	 0.017850  
837.000000	 0.017031  
836.000000	 0.016356  
835.000000	 0.015766  
834.000000	 0.015260  
833.000000	 0.014894  
832.000000	 0.014728  
831.000000	 0.014750  
830.000000	 0.014838  
829.000000	 0.014840  
828.000000	 0.014715  
827.000000	 0.014593  
826.000000	 0.014643  
825.000000	 0.014856  
824.000000	 0.015029  
823.000000	 0.015008  
822.000000	 0.014855  
821.000000	 0.014710  
820.000000	 0.014587  
819.000000	 0.014428  
818.000000	 0.014287  
817.000000	 0.014328  
816.000000	 0.014626  
815.000000	 0.015056  
814.000000	 0.015433  
813.000000	 0.015702  
812.000000	 0.015948  
811.000000	 0.016241  
810.000000	 0.016549  
809.000000	 0.016804  
808.000000	 0.016986  
807.000000	 0.017101  
806.000000	 0.017127  
805.000000	 0.017011  
804.000000	 0.016726  
803.000000	 0.016320  
802.000000	 0.015911  
801.000000	 0.015600  
800.000000	 0.015400  
799.000000	 0.015257  
798.000000	 0.015140  
797.000000	 0.015071  
796.000000	 0.015056  
795.000000	 0.015043  
794.000000	 0.015001  
793.000000	 0.015006  
792.000000	 0.015178  
791.000000	 0.015519  
790.000000	 0.015902  
789.000000	 0.016220  
788.000000	 0.016492  
787.000000	 0.016775  
786.000000	 0.017060  
785.000000	 0.017306  
784.000000	 0.017537  
783.000000	 0.017837  
782.000000	 0.018246  
781.000000	 0.018713  
780.000000	 0.019147  
779.000000	 0.019464  
778.000000	 0.019614  
777.000000	 0.019644  
776.000000	 0.019702  
775.000000	 0.019935  
774.000000	 0.020329  
773.000000	 0.020728  
772.000000	 0.021037  
771.000000	 0.021334  
770.000000	 0.021742  
769.000000	 0.022229  
768.000000	 0.022631  
767.000000	 0.022850  
766.000000	 0.022952  
765.000000	 0.023070  
764.000000	 0.023275  
763.000000	 0.023555  
762.000000	 0.023860  
761.000000	 0.024134  
760.000000	 0.024351  
759.000000	 0.024565  
758.000000	 0.024891  
757.000000	 0.025390  
756.000000	 0.026017  
755.000000	 0.026685  
754.000000	 0.027343  
753.000000	 0.027963  
752.000000	 0.028527  
751.000000	 0.029066  
750.000000	 0.029670  
749.000000	 0.030388  
748.000000	 0.031164  
747.000000	 0.031937  
746.000000	 0.032794  
745.000000	 0.033900  
744.000000	 0.035296  
743.000000	 0.036843  
742.000000	 0.038383  
741.000000	 0.039847  
740.000000	 0.041199  
739.000000	 0.042336  
738.000000	 0.043118  
737.000000	 0.043458  
736.000000	 0.043362  
735.000000	 0.042934  
734.000000	 0.042343  
733.000000	 0.041762  
732.000000	 0.041322  
731.000000	 0.041120  
730.000000	 0.041220  
729.000000	 0.041591  
728.000000	 0.042099  
727.000000	 0.042628  
726.000000	 0.043189  
725.000000	 0.043825  
724.000000	 0.044432  
723.000000	 0.044756  
722.000000	 0.044609  
721.000000	 0.044022  
720.000000	 0.043205  
719.000000	 0.042373  
718.000000	 0.041647  
717.000000	 0.041050  
716.000000	 0.040530  
715.000000	 0.040012  
714.000000	 0.039486  
713.000000	 0.039019  
712.000000	 0.038637  
711.000000	 0.038262  
710.000000	 0.037818  
709.000000	 0.037368  
708.000000	 0.037071  
707.000000	 0.037009  
706.000000	 0.037108  
705.000000	 0.037244  
704.000000	 0.037380  
703.000000	 0.037541  
702.000000	 0.037740  
701.000000	 0.037964  
700.000000	 0.038199  
699.000000	 0.038394  
698.000000	 0.038406  
697.000000	 0.038060  
696.000000	 0.037357  
695.000000	 0.036555  
694.000000	 0.035988  
693.000000	 0.035768  
692.000000	 0.035712  
691.000000	 0.035609  
690.000000	 0.035476  
689.000000	 0.035469  
688.000000	 0.035589  
687.000000	 0.035611  
686.000000	 0.035409  
685.000000	 0.035163  
684.000000	 0.035134  
683.000000	 0.035336  
682.000000	 0.035516  
681.000000	 0.035434  
680.000000	 0.035109  
679.000000	 0.034767  
678.000000	 0.034571  
677.000000	 0.034466  
676.000000	 0.034342  
675.000000	 0.034195  
674.000000	 0.034088  
673.000000	 0.034096  
672.000000	 0.034269  
671.000000	 0.034912  
670.000000	 0.036370  
669.000000	 0.038625  
668.000000	 0.039719  
667.000000	 0.038016  
666.000000	 0.035522  
665.000000	 0.034065  
664.000000	 0.033629  
663.000000	 0.033815  
662.000000	 0.034111  
661.000000	 0.034236  
660.000000	 0.034179  
659.000000	 0.034082  
658.000000	 0.034067  
657.000000	 0.034142  
656.000000	 0.034219  
655.000000	 0.034206  
654.000000	 0.034063  
653.000000	 0.033884  
652.000000	 0.033702  
651.000000	 0.033600  
650.000000	 0.033664  

