PE IR                   SPECTRUM    ASCII       PEDS        1.60        
  -1
NB412~1.ASC
17/05/24
07:45:32.00
17/05/24
07:45:32.00
Admin

650.000000
4









SPECTRUM ONE,CPU32 MAIN 00.02.6000 25-JUNE-2003 12:00:00
MIR TGS
MIR
OPTKBR
68128
0.200000

4.000000
STRONG
RATIO
SPECTRUM
MAGNITUDE
UNIVERSAL ATR
DOUBLE

COMBINED


0


#HDR
-1
-1
#GR
CM-1
A
0.00000011920928955078
0.0
4000.000000
-1.000000
3351
8
0.202447
-0.001269
#DATA
4000.000000	0.003247  
3999.000000	0.003198  
3998.000000	0.003163  
3997.000000	0.003104  
3996.000000	0.002982  
3995.000000	0.002791  
3994.000000	0.002575  
3993.000000	0.002395  
3992.000000	0.002306  
3991.000000	0.002330  
3990.000000	0.002441  
3989.000000	0.002585  
3988.000000	0.002715  
3987.000000	0.002829  
3986.000000	0.002949  
3985.000000	0.003076  
3984.000000	0.003171  
3983.000000	0.003182  
3982.000000	0.003095  
3981.000000	0.002944  
3980.000000	0.002780  
3979.000000	0.002634  
3978.000000	0.002522  
3977.000000	0.002454  
3976.000000	0.002439  
3975.000000	0.002461  
3974.000000	0.002490  
3973.000000	0.002511  
3972.000000	0.002549  
3971.000000	0.002634  
3970.000000	0.002756  
3969.000000	0.002854  
3968.000000	0.002871  
3967.000000	0.002816  
3966.000000	0.002751  
3965.000000	0.002732  
3964.000000	0.002754  
3963.000000	0.002769  
3962.000000	0.002741  
3961.000000	0.002683  
3960.000000	0.002628  
3959.000000	0.002593  
3958.000000	0.002579  
3957.000000	0.002595  
3956.000000	0.002659  
3955.000000	0.002758  
3954.000000	0.002840  
3953.000000	0.002842  
3952.000000	0.002740  
3951.000000	0.002574  
3950.000000	0.002407  
3949.000000	0.002279  
3948.000000	0.002187  
3947.000000	0.002110  
3946.000000	0.002041  
3945.000000	0.001999  
3944.000000	0.002015  
3943.000000	0.002116  
3942.000000	0.002294  
3941.000000	0.002497  
3940.000000	0.002658  
3939.000000	0.002726  
3938.000000	0.002703  
3937.000000	0.002635  
3936.000000	0.002579  
3935.000000	0.002563  
3934.000000	0.002566  
3933.000000	0.002545  
3932.000000	0.002483  
3931.000000	0.002411  
3930.000000	0.002359  
3929.000000	0.002323  
3928.000000	0.002294  
3927.000000	0.002276  
3926.000000	0.002270  
3925.000000	0.002260  
3924.000000	0.002221  
3923.000000	0.002137  
3922.000000	0.002022  
3921.000000	0.001919  
3920.000000	0.001883  
3919.000000	0.001940  
3918.000000	0.002059  
3917.000000	0.002193  
3916.000000	0.002338  
3915.000000	0.002521  
3914.000000	0.002741  
3913.000000	0.002950  
3912.000000	0.003088  
3911.000000	0.003116  
3910.000000	0.003025  
3909.000000	0.002826  
3908.000000	0.002559  
3907.000000	0.002307  
3906.000000	0.002182  
3905.000000	0.002235  
3904.000000	0.002374  
3903.000000	0.002440  
3902.000000	0.002377  
3901.000000	0.002274  
3900.000000	0.002255  
3899.000000	0.002361  
3898.000000	0.002528  
3897.000000	0.002657  
3896.000000	0.002692  
3895.000000	0.002654  
3894.000000	0.002614  
3893.000000	0.002616  
3892.000000	0.002613  
3891.000000	0.002532  
3890.000000	0.002381  
3889.000000	0.002226  
3888.000000	0.002127  
3887.000000	0.002093  
3886.000000	0.002086  
3885.000000	0.002078  
3884.000000	0.002095  
3883.000000	0.002163  
3882.000000	0.002271  
3881.000000	0.002364  
3880.000000	0.002396  
3879.000000	0.002388  
3878.000000	0.002381  
3877.000000	0.002372  
3876.000000	0.002324  
3875.000000	0.002199  
3874.000000	0.002016  
3873.000000	0.001857  
3872.000000	0.001786  
3871.000000	0.001787  
3870.000000	0.001803  
3869.000000	0.001828  
3868.000000	0.001892  
3867.000000	0.001989  
3866.000000	0.002085  
3865.000000	0.002178  
3864.000000	0.002289  
3863.000000	0.002394  
3862.000000	0.002425  
3861.000000	0.002350  
3860.000000	0.002187  
3859.000000	0.001960  
3858.000000	0.001690  
3857.000000	0.001422  
3856.000000	0.001249  
3855.000000	0.001226  
3854.000000	0.001285  
3853.000000	0.001419  
3852.000000	0.001652  
3851.000000	0.001925  
3850.000000	0.002151  
3849.000000	0.002294  
3848.000000	0.002352  
3847.000000	0.002328  
3846.000000	0.002230  
3845.000000	0.002122  
3844.000000	0.002116  
3843.000000	0.002296  
3842.000000	0.002623  
3841.000000	0.002930  
3840.000000	0.003023  
3839.000000	0.002857  
3838.000000	0.002592  
3837.000000	0.002410  
3836.000000	0.002343  
3835.000000	0.002322  
3834.000000	0.002283  
3833.000000	0.002223  
3832.000000	0.002183  
3831.000000	0.002211  
3830.000000	0.002315  
3829.000000	0.002457  
3828.000000	0.002563  
3827.000000	0.002565  
3826.000000	0.002454  
3825.000000	0.002294  
3824.000000	0.002171  
3823.000000	0.002123  
3822.000000	0.002098  
3821.000000	0.002042  
3820.000000	0.001993  
3819.000000	0.002016  
3818.000000	0.002116  
3817.000000	0.002219  
3816.000000	0.002250  
3815.000000	0.002235  
3814.000000	0.002251  
3813.000000	0.002295  
3812.000000	0.002315  
3811.000000	0.002298  
3810.000000	0.002285  
3809.000000	0.002307  
3808.000000	0.002323  
3807.000000	0.002284  
3806.000000	0.002239  
3805.000000	0.002274  
3804.000000	0.002386  
3803.000000	0.002439  
3802.000000	0.002266  
3801.000000	0.001925  
3800.000000	0.001658  
3799.000000	0.001607  
3798.000000	0.001743  
3797.000000	0.001955  
3796.000000	0.002135  
3795.000000	0.002250  
3794.000000	0.002323  
3793.000000	0.002362  
3792.000000	0.002355  
3791.000000	0.002289  
3790.000000	0.002177  
3789.000000	0.002072  
3788.000000	0.002047  
3787.000000	0.002155  
3786.000000	0.002367  
3785.000000	0.002581  
3784.000000	0.002707  
3783.000000	0.002734  
3782.000000	0.002692  
3781.000000	0.002596  
3780.000000	0.002448  
3779.000000	0.002275  
3778.000000	0.002118  
3777.000000	0.001993  
3776.000000	0.001893  
3775.000000	0.001807  
3774.000000	0.001745  
3773.000000	0.001715  
3772.000000	0.001698  
3771.000000	0.001663  
3770.000000	0.001612  
3769.000000	0.001599  
3768.000000	0.001655  
3767.000000	0.001756  
3766.000000	0.001854  
3765.000000	0.001926  
3764.000000	0.001993  
3763.000000	0.002086  
3762.000000	0.002206  
3761.000000	0.002324  
3760.000000	0.002404  
3759.000000	0.002429  
3758.000000	0.002409  
3757.000000	0.002373  
3756.000000	0.002340  
3755.000000	0.002310  
3754.000000	0.002249  
3753.000000	0.002103  
3752.000000	0.001880  
3751.000000	0.001713  
3750.000000	0.001661  
3749.000000	0.001637  
3748.000000	0.001582  
3747.000000	0.001517  
3746.000000	0.001458  
3745.000000	0.001335  
3744.000000	0.001180  
3743.000000	0.001155  
3742.000000	0.001256  
3741.000000	0.001343  
3740.000000	0.001344  
3739.000000	0.001328  
3738.000000	0.001427  
3737.000000	0.001681  
3736.000000	0.001947  
3735.000000	0.002025  
3734.000000	0.001893  
3733.000000	0.001692  
3732.000000	0.001543  
3731.000000	0.001479  
3730.000000	0.001471  
3729.000000	0.001468  
3728.000000	0.001426  
3727.000000	0.001333  
3726.000000	0.001224  
3725.000000	0.001164  
3724.000000	0.001205  
3723.000000	0.001349  
3722.000000	0.001540  
3721.000000	0.001682  
3720.000000	0.001704  
3719.000000	0.001602  
3718.000000	0.001443  
3717.000000	0.001315  
3716.000000	0.001287  
3715.000000	0.001371  
3714.000000	0.001497  
3713.000000	0.001555  
3712.000000	0.001534  
3711.000000	0.001559  
3710.000000	0.001659  
3709.000000	0.001738  
3708.000000	0.001730  
3707.000000	0.001647  
3706.000000	0.001550  
3705.000000	0.001522  
3704.000000	0.001620  
3703.000000	0.001820  
3702.000000	0.002010  
3701.000000	0.002102  
3700.000000	0.002119  
3699.000000	0.002136  
3698.000000	0.002182  
3697.000000	0.002233  
3696.000000	0.002269  
3695.000000	0.002328  
3694.000000	0.002470  
3693.000000	0.002706  
3692.000000	0.002930  
3691.000000	0.002947  
3690.000000	0.002658  
3689.000000	0.002237  
3688.000000	0.001947  
3687.000000	0.001887  
3686.000000	0.001981  
3685.000000	0.002095  
3684.000000	0.002139  
3683.000000	0.002088  
3682.000000	0.001977  
3681.000000	0.001865  
3680.000000	0.001817  
3679.000000	0.001918  
3678.000000	0.002216  
3677.000000	0.002573  
3676.000000	0.002659  
3675.000000	0.002387  
3674.000000	0.002042  
3673.000000	0.001871  
3672.000000	0.001934  
3671.000000	0.002160  
3670.000000	0.002363  
3669.000000	0.002392  
3668.000000	0.002270  
3667.000000	0.002085  
3666.000000	0.001906  
3665.000000	0.001794  
3664.000000	0.001795  
3663.000000	0.001905  
3662.000000	0.002052  
3661.000000	0.002146  
3660.000000	0.002142  
3659.000000	0.002066  
3658.000000	0.002000  
3657.000000	0.002037  
3656.000000	0.002218  
3655.000000	0.002479  
3654.000000	0.002685  
3653.000000	0.002724  
3652.000000	0.002582  
3651.000000	0.002407  
3650.000000	0.002523  
3649.000000	0.002966  
3648.000000	0.003242  
3647.000000	0.003123  
3646.000000	0.002823  
3645.000000	0.002566  
3644.000000	0.002430  
3643.000000	0.002401  
3642.000000	0.002448  
3641.000000	0.002542  
3640.000000	0.002627  
3639.000000	0.002623  
3638.000000	0.002478  
3637.000000	0.002231  
3636.000000	0.001981  
3635.000000	0.001800  
3634.000000	0.001681  
3633.000000	0.001587  
3632.000000	0.001538  
3631.000000	0.001623  
3630.000000	0.001853  
3629.000000	0.002081  
3628.000000	0.002217  
3627.000000	0.002317  
3626.000000	0.002416  
3625.000000	0.002493  
3624.000000	0.002544  
3623.000000	0.002594  
3622.000000	0.002674  
3621.000000	0.002768  
3620.000000	0.002801  
3619.000000	0.002712  
3618.000000	0.002535  
3617.000000	0.002339  
3616.000000	0.002156  
3615.000000	0.001991  
3614.000000	0.001838  
3613.000000	0.001686  
3612.000000	0.001540  
3611.000000	0.001439  
3610.000000	0.001448  
3609.000000	0.001610  
3608.000000	0.001897  
3607.000000	0.002227  
3606.000000	0.002550  
3605.000000	0.002866  
3604.000000	0.003167  
3603.000000	0.003395  
3602.000000	0.003461  
3601.000000	0.003350  
3600.000000	0.003163  
3599.000000	0.003032  
3598.000000	0.003012  
3597.000000	0.003078  
3596.000000	0.003169  
3595.000000	0.003234  
3594.000000	0.003253  
3593.000000	0.003230  
3592.000000	0.003175  
3591.000000	0.003095  
3590.000000	0.003000  
3589.000000	0.002893  
3588.000000	0.002809  
3587.000000	0.002851  
3586.000000	0.003059  
3585.000000	0.003333  
3584.000000	0.003521  
3583.000000	0.003537  
3582.000000	0.003422  
3581.000000	0.003320  
3580.000000	0.003365  
3579.000000	0.003572  
3578.000000	0.003830  
3577.000000	0.004011  
3576.000000	0.004079  
3575.000000	0.004092  
3574.000000	0.004115  
3573.000000	0.004148  
3572.000000	0.004128  
3571.000000	0.003994  
3570.000000	0.003742  
3569.000000	0.003453  
3568.000000	0.003291  
3567.000000	0.003376  
3566.000000	0.003614  
3565.000000	0.003806  
3564.000000	0.003880  
3563.000000	0.003895  
3562.000000	0.003945  
3561.000000	0.004061  
3560.000000	0.004205  
3559.000000	0.004327  
3558.000000	0.004408  
3557.000000	0.004472  
3556.000000	0.004555  
3555.000000	0.004675  
3554.000000	0.004790  
3553.000000	0.004802  
3552.000000	0.004649  
3551.000000	0.004384  
3550.000000	0.004128  
3549.000000	0.003983  
3548.000000	0.003981  
3547.000000	0.004084  
3546.000000	0.004228  
3545.000000	0.004376  
3544.000000	0.004533  
3543.000000	0.004704  
3542.000000	0.004876  
3541.000000	0.005019  
3540.000000	0.005103  
3539.000000	0.005121  
3538.000000	0.005092  
3537.000000	0.005052  
3536.000000	0.005034  
3535.000000	0.005046  
3534.000000	0.005073  
3533.000000	0.005080  
3532.000000	0.005031  
3531.000000	0.004916  
3530.000000	0.004775  
3529.000000	0.004680  
3528.000000	0.004687  
3527.000000	0.004787  
3526.000000	0.004910  
3525.000000	0.004985  
3524.000000	0.005004  
3523.000000	0.005038  
3522.000000	0.005160  
3521.000000	0.005354  
3520.000000	0.005527  
3519.000000	0.005587  
3518.000000	0.005538  
3517.000000	0.005468  
3516.000000	0.005460  
3515.000000	0.005521  
3514.000000	0.005592  
3513.000000	0.005613  
3512.000000	0.005585  
3511.000000	0.005557  
3510.000000	0.005581  
3509.000000	0.005670  
3508.000000	0.005797  
3507.000000	0.005932  
3506.000000	0.006054  
3505.000000	0.006148  
3504.000000	0.006192  
3503.000000	0.006173  
3502.000000	0.006117  
3501.000000	0.006071  
3500.000000	0.006065  
3499.000000	0.006091  
3498.000000	0.006129  
3497.000000	0.006172  
3496.000000	0.006218  
3495.000000	0.006252  
3494.000000	0.006267  
3493.000000	0.006314  
3492.000000	0.006476  
3491.000000	0.006774  
3490.000000	0.007101  
3489.000000	0.007292  
3488.000000	0.007291  
3487.000000	0.007206  
3486.000000	0.007194  
3485.000000	0.007292  
3484.000000	0.007392  
3483.000000	0.007358  
3482.000000	0.007153  
3481.000000	0.006875  
3480.000000	0.006664  
3479.000000	0.006606  
3478.000000	0.006709  
3477.000000	0.006932  
3476.000000	0.007208  
3475.000000	0.007455  
3474.000000	0.007594  
3473.000000	0.007593  
3472.000000	0.007501  
3471.000000	0.007424  
3470.000000	0.007446  
3469.000000	0.007564  
3468.000000	0.007702  
3467.000000	0.007785  
3466.000000	0.007796  
3465.000000	0.007758  
3464.000000	0.007687  
3463.000000	0.007590  
3462.000000	0.007498  
3461.000000	0.007474  
3460.000000	0.007568  
3459.000000	0.007758  
3458.000000	0.007956  
3457.000000	0.008064  
3456.000000	0.008044  
3455.000000	0.007934  
3454.000000	0.007824  
3453.000000	0.007808  
3452.000000	0.007936  
3451.000000	0.008183  
3450.000000	0.008459  
3449.000000	0.008666  
3448.000000	0.008765  
3447.000000	0.008782  
3446.000000	0.008742  
3445.000000	0.008628  
3444.000000	0.008429  
3443.000000	0.008216  
3442.000000	0.008108  
3441.000000	0.008168  
3440.000000	0.008347  
3439.000000	0.008537  
3438.000000	0.008644  
3437.000000	0.008630  
3436.000000	0.008511  
3435.000000	0.008341  
3434.000000	0.008206  
3433.000000	0.008185  
3432.000000	0.008305  
3431.000000	0.008527  
3430.000000	0.008769  
3429.000000	0.008948  
3428.000000	0.009019  
3427.000000	0.008995  
3426.000000	0.008932  
3425.000000	0.008890  
3424.000000	0.008892  
3423.000000	0.008926  
3422.000000	0.008964  
3421.000000	0.008988  
3420.000000	0.008984  
3419.000000	0.008941  
3418.000000	0.008859  
3417.000000	0.008780  
3416.000000	0.008780  
3415.000000	0.008917  
3414.000000	0.009172  
3413.000000	0.009443  
3412.000000	0.009625  
3411.000000	0.009677  
3410.000000	0.009639  
3409.000000	0.009593  
3408.000000	0.009610  
3407.000000	0.009710  
3406.000000	0.009849  
3405.000000	0.009951  
3404.000000	0.009955  
3403.000000	0.009853  
3402.000000	0.009677  
3401.000000	0.009493  
3400.000000	0.009370  
3399.000000	0.009342  
3398.000000	0.009383  
3397.000000	0.009421  
3396.000000	0.009403  
3395.000000	0.009345  
3394.000000	0.009301  
3393.000000	0.009311  
3392.000000	0.009389  
3391.000000	0.009519  
3390.000000	0.009659  
3389.000000	0.009752  
3388.000000	0.009770  
3387.000000	0.009755  
3386.000000	0.009787  
3385.000000	0.009908  
3384.000000	0.010076  
3383.000000	0.010214  
3382.000000	0.010279  
3381.000000	0.010285  
3380.000000	0.010273  
3379.000000	0.010275  
3378.000000	0.010290  
3377.000000	0.010298  
3376.000000	0.010277  
3375.000000	0.010215  
3374.000000	0.010108  
3373.000000	0.009975  
3372.000000	0.009878  
3371.000000	0.009897  
3370.000000	0.010053  
3369.000000	0.010274  
3368.000000	0.010440  
3367.000000	0.010485  
3366.000000	0.010430  
3365.000000	0.010342  
3364.000000	0.010270  
3363.000000	0.010240  
3362.000000	0.010259  
3361.000000	0.010310  
3360.000000	0.010365  
3359.000000	0.010404  
3358.000000	0.010428  
3357.000000	0.010439  
3356.000000	0.010424  
3355.000000	0.010370  
3354.000000	0.010293  
3353.000000	0.010242  
3352.000000	0.010253  
3351.000000	0.010304  
3350.000000	0.010323  
3349.000000	0.010249  
3348.000000	0.010118  
3347.000000	0.010042  
3346.000000	0.010110  
3345.000000	0.010301  
3344.000000	0.010509  
3343.000000	0.010650  
3342.000000	0.010699  
3341.000000	0.010661  
3340.000000	0.010550  
3339.000000	0.010406  
3338.000000	0.010291  
3337.000000	0.010243  
3336.000000	0.010245  
3335.000000	0.010273  
3334.000000	0.010336  
3333.000000	0.010451  
3332.000000	0.010597  
3331.000000	0.010715  
3330.000000	0.010759  
3329.000000	0.010723  
3328.000000	0.010643  
3327.000000	0.010563  
3326.000000	0.010524  
3325.000000	0.010546  
3324.000000	0.010644  
3323.000000	0.010816  
3322.000000	0.011028  
3321.000000	0.011208  
3320.000000	0.011300  
3319.000000	0.011313  
3318.000000	0.011314  
3317.000000	0.011342  
3316.000000	0.011371  
3315.000000	0.011363  
3314.000000	0.011319  
3313.000000	0.011262  
3312.000000	0.011194  
3311.000000	0.011103  
3310.000000	0.011010  
3309.000000	0.010964  
3308.000000	0.010994  
3307.000000	0.011076  
3306.000000	0.011163  
3305.000000	0.011220  
3304.000000	0.011246  
3303.000000	0.011260  
3302.000000	0.011279  
3301.000000	0.011286  
3300.000000	0.011241  
3299.000000	0.011129  
3298.000000	0.010993  
3297.000000	0.010913  
3296.000000	0.010931  
3295.000000	0.011027  
3294.000000	0.011149  
3293.000000	0.011264  
3292.000000	0.011358  
3291.000000	0.011411  
3290.000000	0.011381  
3289.000000	0.011250  
3288.000000	0.011069  
3287.000000	0.010958  
3286.000000	0.011006  
3285.000000	0.011171  
3284.000000	0.011305  
3283.000000	0.011301  
3282.000000	0.011192  
3281.000000	0.011090  
3280.000000	0.011052  
3279.000000	0.011034  
3278.000000	0.010966  
3277.000000	0.010838  
3276.000000	0.010700  
3275.000000	0.010612  
3274.000000	0.010599  
3273.000000	0.010648  
3272.000000	0.010724  
3271.000000	0.010799  
3270.000000	0.010866  
3269.000000	0.010914  
3268.000000	0.010917  
3267.000000	0.010851  
3266.000000	0.010731  
3265.000000	0.010606  
3264.000000	0.010521  
3263.000000	0.010496  
3262.000000	0.010525  
3261.000000	0.010585  
3260.000000	0.010636  
3259.000000	0.010647  
3258.000000	0.010643  
3257.000000	0.010684  
3256.000000	0.010796  
3255.000000	0.010928  
3254.000000	0.010999  
3253.000000	0.010984  
3252.000000	0.010915  
3251.000000	0.010837  
3250.000000	0.010767  
3249.000000	0.010704  
3248.000000	0.010645  
3247.000000	0.010603  
3246.000000	0.010611  
3245.000000	0.010706  
3244.000000	0.010890  
3243.000000	0.011091  
3242.000000	0.011197  
3241.000000	0.011129  
3240.000000	0.010908  
3239.000000	0.010648  
3238.000000	0.010475  
3237.000000	0.010441  
3236.000000	0.010508  
3235.000000	0.010595  
3234.000000	0.010640  
3233.000000	0.010635  
3232.000000	0.010610  
3231.000000	0.010590  
3230.000000	0.010575  
3229.000000	0.010557  
3228.000000	0.010548  
3227.000000	0.010571  
3226.000000	0.010640  
3225.000000	0.010739  
3224.000000	0.010838  
3223.000000	0.010901  
3222.000000	0.010883  
3221.000000	0.010745  
3220.000000	0.010512  
3219.000000	0.010293  
3218.000000	0.010210  
3217.000000	0.010280  
3216.000000	0.010392  
3215.000000	0.010421  
3214.000000	0.010352  
3213.000000	0.010270  
3212.000000	0.010264  
3211.000000	0.010339  
3210.000000	0.010422  
3209.000000	0.010430  
3208.000000	0.010322  
3207.000000	0.010131  
3206.000000	0.009950  
3205.000000	0.009868  
3204.000000	0.009910  
3203.000000	0.010031  
3202.000000	0.010160  
3201.000000	0.010236  
3200.000000	0.010226  
3199.000000	0.010142  
3198.000000	0.010035  
3197.000000	0.009962  
3196.000000	0.009934  
3195.000000	0.009916  
3194.000000	0.009872  
3193.000000	0.009801  
3192.000000	0.009730  
3191.000000	0.009678  
3190.000000	0.009634  
3189.000000	0.009566  
3188.000000	0.009464  
3187.000000	0.009365  
3186.000000	0.009343  
3185.000000	0.009435  
3184.000000	0.009593  
3183.000000	0.009722  
3182.000000	0.009764  
3181.000000	0.009733  
3180.000000	0.009671  
3179.000000	0.009608  
3178.000000	0.009560  
3177.000000	0.009536  
3176.000000	0.009527  
3175.000000	0.009506  
3174.000000	0.009451  
3173.000000	0.009376  
3172.000000	0.009317  
3171.000000	0.009290  
3170.000000	0.009282  
3169.000000	0.009274  
3168.000000	0.009267  
3167.000000	0.009286  
3166.000000	0.009353  
3165.000000	0.009454  
3164.000000	0.009520  
3163.000000	0.009478  
3162.000000	0.009313  
3161.000000	0.009102  
3160.000000	0.008954  
3159.000000	0.008919  
3158.000000	0.008957  
3157.000000	0.008979  
3156.000000	0.008942  
3155.000000	0.008881  
3154.000000	0.008868  
3153.000000	0.008930  
3152.000000	0.009014  
3151.000000	0.009043  
3150.000000	0.008988  
3149.000000	0.008891  
3148.000000	0.008797  
3147.000000	0.008708  
3146.000000	0.008598  
3145.000000	0.008466  
3144.000000	0.008348  
3143.000000	0.008286  
3142.000000	0.008285  
3141.000000	0.008318  
3140.000000	0.008347  
3139.000000	0.008361  
3138.000000	0.008385  
3137.000000	0.008453  
3136.000000	0.008579  
3135.000000	0.008724  
3134.000000	0.008810  
3133.000000	0.008769  
3132.000000	0.008595  
3131.000000	0.008365  
3130.000000	0.008188  
3129.000000	0.008133  
3128.000000	0.008190  
3127.000000	0.008300  
3126.000000	0.008417  
3125.000000	0.008514  
3124.000000	0.008578  
3123.000000	0.008600  
3122.000000	0.008600  
3121.000000	0.008610  
3120.000000	0.008641  
3119.000000	0.008660  
3118.000000	0.008629  
3117.000000	0.008548  
3116.000000	0.008451  
3115.000000	0.008371  
3114.000000	0.008324  
3113.000000	0.008305  
3112.000000	0.008288  
3111.000000	0.008245  
3110.000000	0.008173  
3109.000000	0.008113  
3108.000000	0.008108  
3107.000000	0.008160  
3106.000000	0.008219  
3105.000000	0.008245  
3104.000000	0.008245  
3103.000000	0.008257  
3102.000000	0.008294  
3101.000000	0.008325  
3100.000000	0.008307  
3099.000000	0.008235  
3098.000000	0.008143  
3097.000000	0.008076  
3096.000000	0.008057  
3095.000000	0.008086  
3094.000000	0.008147  
3093.000000	0.008212  
3092.000000	0.008245  
3091.000000	0.008224  
3090.000000	0.008163  
3089.000000	0.008107  
3088.000000	0.008092  
3087.000000	0.008113  
3086.000000	0.008131  
3085.000000	0.008111  
3084.000000	0.008052  
3083.000000	0.007985  
3082.000000	0.007940  
3081.000000	0.007915  
3080.000000	0.007876  
3079.000000	0.007806  
3078.000000	0.007743  
3077.000000	0.007749  
3076.000000	0.007843  
3075.000000	0.007978  
3074.000000	0.008088  
3073.000000	0.008140  
3072.000000	0.008137  
3071.000000	0.008086  
3070.000000	0.007998  
3069.000000	0.007917  
3068.000000	0.007897  
3067.000000	0.007945  
3066.000000	0.007997  
3065.000000	0.007981  
3064.000000	0.007900  
3063.000000	0.007836  
3062.000000	0.007865  
3061.000000	0.007989  
3060.000000	0.008145  
3059.000000	0.008254  
3058.000000	0.008268  
3057.000000	0.008181  
3056.000000	0.008036  
3055.000000	0.007907  
3054.000000	0.007866  
3053.000000	0.007946  
3052.000000	0.008111  
3051.000000	0.008275  
3050.000000	0.008357  
3049.000000	0.008329  
3048.000000	0.008238  
3047.000000	0.008171  
3046.000000	0.008187  
3045.000000	0.008272  
3044.000000	0.008369  
3043.000000	0.008429  
3042.000000	0.008445  
3041.000000	0.008425  
3040.000000	0.008374  
3039.000000	0.008316  
3038.000000	0.008312  
3037.000000	0.008424  
3036.000000	0.008644  
3035.000000	0.008888  
3034.000000	0.009068  
3033.000000	0.009172  
3032.000000	0.009251  
3031.000000	0.009344  
3030.000000	0.009442  
3029.000000	0.009530  
3028.000000	0.009631  
3027.000000	0.009787  
3026.000000	0.010004  
3025.000000	0.010232  
3024.000000	0.010415  
3023.000000	0.010563  
3022.000000	0.010759  
3021.000000	0.011103  
3020.000000	0.011622  
3019.000000	0.012256  
3018.000000	0.012906  
3017.000000	0.013505  
3016.000000	0.014042  
3015.000000	0.014535  
3014.000000	0.014996  
3013.000000	0.015418  
3012.000000	0.015774  
3011.000000	0.016023  
3010.000000	0.016139  
3009.000000	0.016136  
3008.000000	0.016055  
3007.000000	0.015913  
3006.000000	0.015688  
3005.000000	0.015370  
3004.000000	0.015015  
3003.000000	0.014719  
3002.000000	0.014525  
3001.000000	0.014392  
3000.000000	0.014256  
2999.000000	0.014115  
2998.000000	0.014021  
2997.000000	0.014015  
2996.000000	0.014091  
2995.000000	0.014224  
2994.000000	0.014398  
2993.000000	0.014599  
2992.000000	0.014815  
2991.000000	0.015052  
2990.000000	0.015358  
2989.000000	0.015797  
2988.000000	0.016400  
2987.000000	0.017135  
2986.000000	0.017946  
2985.000000	0.018806  
2984.000000	0.019733  
2983.000000	0.020752  
2982.000000	0.021873  
2981.000000	0.023099  
2980.000000	0.024474  
2979.000000	0.026072  
2978.000000	0.027927  
2977.000000	0.029989  
2976.000000	0.032190  
2975.000000	0.034550  
2974.000000	0.037199  
2973.000000	0.040271  
2972.000000	0.043800  
2971.000000	0.047713  
2970.000000	0.051921  
2969.000000	0.056395  
2968.000000	0.061144  
2967.000000	0.066143  
2966.000000	0.071284  
2965.000000	0.076408  
2964.000000	0.081375  
2963.000000	0.086097  
2962.000000	0.090525  
2961.000000	0.094631  
2960.000000	0.098389  
2959.000000	0.101744  
2958.000000	0.104594  
2957.000000	0.106807  
2956.000000	0.108273  
2955.000000	0.108941  
2954.000000	0.108820  
2953.000000	0.107977  
2952.000000	0.106545  
2951.000000	0.104714  
2950.000000	0.102711  
2949.000000	0.100787  
2948.000000	0.099181  
2947.000000	0.098071  
2946.000000	0.097540  
2945.000000	0.097625  
2944.000000	0.098390  
2943.000000	0.099933  
2942.000000	0.102324  
2941.000000	0.105538  
2940.000000	0.109477  
2939.000000	0.114033  
2938.000000	0.119115  
2937.000000	0.124643  
2936.000000	0.130558  
2935.000000	0.136828  
2934.000000	0.143408  
2933.000000	0.150206  
2932.000000	0.157090  
2931.000000	0.163927  
2930.000000	0.170612  
2929.000000	0.177072  
2928.000000	0.183253  
2927.000000	0.189044  
2926.000000	0.194198  
2925.000000	0.198352  
2924.000000	0.201165  
2923.000000	0.202447  
2922.000000	0.202198  
2921.000000	0.200568  
2920.000000	0.197793  
2919.000000	0.194098  
2918.000000	0.189661  
2917.000000	0.184647  
2916.000000	0.179261  
2915.000000	0.173721  
2914.000000	0.168197  
2913.000000	0.162802  
2912.000000	0.157618  
2911.000000	0.152683  
2910.000000	0.147980  
2909.000000	0.143476  
2908.000000	0.139179  
2907.000000	0.135124  
2906.000000	0.131308  
2905.000000	0.127653  
2904.000000	0.124059  
2903.000000	0.120487  
2902.000000	0.116972  
2901.000000	0.113580  
2900.000000	0.110334  
2899.000000	0.107203  
2898.000000	0.104128  
2897.000000	0.101070  
2896.000000	0.098040  
2895.000000	0.095074  
2894.000000	0.092196  
2893.000000	0.089396  
2892.000000	0.086637  
2891.000000	0.083898  
2890.000000	0.081210  
2889.000000	0.078652  
2888.000000	0.076312  
2887.000000	0.074250  
2886.000000	0.072509  
2885.000000	0.071135  
2884.000000	0.070188  
2883.000000	0.069718  
2882.000000	0.069757  
2881.000000	0.070342  
2880.000000	0.071513  
2879.000000	0.073289  
2878.000000	0.075634  
2877.000000	0.078430  
2876.000000	0.081468  
2875.000000	0.084455  
2874.000000	0.087078  
2873.000000	0.089108  
2872.000000	0.090495  
2871.000000	0.091361  
2870.000000	0.091900  
2869.000000	0.092294  
2868.000000	0.092687  
2867.000000	0.093215  
2866.000000	0.094047  
2865.000000	0.095400  
2864.000000	0.097494  
2863.000000	0.100446  
2862.000000	0.104196  
2861.000000	0.108530  
2860.000000	0.113176  
2859.000000	0.117880  
2858.000000	0.122400  
2857.000000	0.126468  
2856.000000	0.129778  
2855.000000	0.131969  
2854.000000	0.132667  
2853.000000	0.131609  
2852.000000	0.128790  
2851.000000	0.124465  
2850.000000	0.118994  
2849.000000	0.112705  
2848.000000	0.105889  
2847.000000	0.098860  
2846.000000	0.091935  
2845.000000	0.085333  
2844.000000	0.079111  
2843.000000	0.073222  
2842.000000	0.067630  
2841.000000	0.062376  
2840.000000	0.057540  
2839.000000	0.053177  
2838.000000	0.049284  
2837.000000	0.045818  
2836.000000	0.042739  
2835.000000	0.040030  
2834.000000	0.037672  
2833.000000	0.035616  
2832.000000	0.033785  
2831.000000	0.032119  
2830.000000	0.030608  
2829.000000	0.029268  
2828.000000	0.028083  
2827.000000	0.026997  
2826.000000	0.025950  
2825.000000	0.024922  
2824.000000	0.023927  
2823.000000	0.023004  
2822.000000	0.022181  
2821.000000	0.021465  
2820.000000	0.020825  
2819.000000	0.020215  
2818.000000	0.019608  
2817.000000	0.019016  
2816.000000	0.018465  
2815.000000	0.017964  
2814.000000	0.017490  
2813.000000	0.017015  
2812.000000	0.016535  
2811.000000	0.016076  
2810.000000	0.015668  
2809.000000	0.015318  
2808.000000	0.015013  
2807.000000	0.014746  
2806.000000	0.014523  
2805.000000	0.014352  
2804.000000	0.014222  
2803.000000	0.014108  
2802.000000	0.013981  
2801.000000	0.013814  
2800.000000	0.013597  
2799.000000	0.013358  
2798.000000	0.013146  
2797.000000	0.012998  
2796.000000	0.012906  
2795.000000	0.012857  
2794.000000	0.012861  
2793.000000	0.012932  
2792.000000	0.013033  
2791.000000	0.013075  
2790.000000	0.012981  
2789.000000	0.012749  
2788.000000	0.012449  
2787.000000	0.012169  
2786.000000	0.011966  
2785.000000	0.011842  
2784.000000	0.011761  
2783.000000	0.011682  
2782.000000	0.011581  
2781.000000	0.011455  
2780.000000	0.011313  
2779.000000	0.011174  
2778.000000	0.011050  
2777.000000	0.010926  
2776.000000	0.010759  
2775.000000	0.010519  
2774.000000	0.010234  
2773.000000	0.009978  
2772.000000	0.009801  
2771.000000	0.009702  
2770.000000	0.009641  
2769.000000	0.009579  
2768.000000	0.009490  
2767.000000	0.009367  
2766.000000	0.009221  
2765.000000	0.009083  
2764.000000	0.008975  
2763.000000	0.008895  
2762.000000	0.008824  
2761.000000	0.008743  
2760.000000	0.008631  
2759.000000	0.008487  
2758.000000	0.008342  
2757.000000	0.008242  
2756.000000	0.008196  
2755.000000	0.008151  
2754.000000	0.008040  
2753.000000	0.007854  
2752.000000	0.007648  
2751.000000	0.007489  
2750.000000	0.007395  
2749.000000	0.007342  
2748.000000	0.007301  
2747.000000	0.007257  
2746.000000	0.007203  
2745.000000	0.007143  
2744.000000	0.007092  
2743.000000	0.007071  
2742.000000	0.007089  
2741.000000	0.007135  
2740.000000	0.007192  
2739.000000	0.007257  
2738.000000	0.007338  
2737.000000	0.007433  
2736.000000	0.007523  
2735.000000	0.007582  
2734.000000	0.007598  
2733.000000	0.007576  
2732.000000	0.007533  
2731.000000	0.007482  
2730.000000	0.007432  
2729.000000	0.007391  
2728.000000	0.007372  
2727.000000	0.007378  
2726.000000	0.007382  
2725.000000	0.007341  
2724.000000	0.007242  
2723.000000	0.007134  
2722.000000	0.007084  
2721.000000	0.007103  
2720.000000	0.007140  
2719.000000	0.007143  
2718.000000	0.007107  
2717.000000	0.007046  
2716.000000	0.006965  
2715.000000	0.006860  
2714.000000	0.006745  
2713.000000	0.006637  
2712.000000	0.006533  
2711.000000	0.006417  
2710.000000	0.006294  
2709.000000	0.006183  
2708.000000	0.006094  
2707.000000	0.006028  
2706.000000	0.005999  
2705.000000	0.006019  
2704.000000	0.006068  
2703.000000	0.006100  
2702.000000	0.006097  
2701.000000	0.006086  
2700.000000	0.006085  
2699.000000	0.006064  
2698.000000	0.005985  
2697.000000	0.005872  
2696.000000	0.005800  
2695.000000	0.005823  
2694.000000	0.005920  
2693.000000	0.006017  
2692.000000	0.006056  
2691.000000	0.006022  
2690.000000	0.005943  
2689.000000	0.005861  
2688.000000	0.005817  
2687.000000	0.005819  
2686.000000	0.005841  
2685.000000	0.005846  
2684.000000	0.005829  
2683.000000	0.005827  
2682.000000	0.005870  
2681.000000	0.005940  
2680.000000	0.005978  
2679.000000	0.005949  
2678.000000	0.005874  
2677.000000	0.005795  
2676.000000	0.005738  
2675.000000	0.005717  
2674.000000	0.005750  
2673.000000	0.005848  
2672.000000	0.005976  
2671.000000	0.006058  
2670.000000	0.006040  
2669.000000	0.005944  
2668.000000	0.005844  
2667.000000	0.005787  
2666.000000	0.005757  
2665.000000	0.005710  
2664.000000	0.005639  
2663.000000	0.005579  
2662.000000	0.005542  
2661.000000	0.005494  
2660.000000	0.005406  
2659.000000	0.005311  
2658.000000	0.005284  
2657.000000	0.005350  
2656.000000	0.005449  
2655.000000	0.005495  
2654.000000	0.005443  
2653.000000	0.005306  
2652.000000	0.005139  
2651.000000	0.005013  
2650.000000	0.004970  
2649.000000	0.004978  
2648.000000	0.004950  
2647.000000	0.004848  
2646.000000	0.004730  
2645.000000	0.004675  
2644.000000	0.004685  
2643.000000	0.004709  
2642.000000	0.004727  
2641.000000	0.004758  
2640.000000	0.004785  
2639.000000	0.004744  
2638.000000	0.004613  
2637.000000	0.004456  
2636.000000	0.004360  
2635.000000	0.004354  
2634.000000	0.004410  
2633.000000	0.004478  
2632.000000	0.004515  
2631.000000	0.004494  
2630.000000	0.004437  
2629.000000	0.004411  
2628.000000	0.004458  
2627.000000	0.004541  
2626.000000	0.004580  
2625.000000	0.004525  
2624.000000	0.004402  
2623.000000	0.004281  
2622.000000	0.004226  
2621.000000	0.004253  
2620.000000	0.004313  
2619.000000	0.004336  
2618.000000	0.004286  
2617.000000	0.004184  
2616.000000	0.004070  
2615.000000	0.003982  
2614.000000	0.003954  
2613.000000	0.003991  
2612.000000	0.004044  
2611.000000	0.004037  
2610.000000	0.003962  
2609.000000	0.003904  
2608.000000	0.003945  
2607.000000	0.004059  
2606.000000	0.004140  
2605.000000	0.004117  
2604.000000	0.003989  
2603.000000	0.003793  
2602.000000	0.003575  
2601.000000	0.003398  
2600.000000	0.003330  
2599.000000	0.003383  
2598.000000	0.003492  
2597.000000	0.003572  
2596.000000	0.003579  
2595.000000	0.003515  
2594.000000	0.003407  
2593.000000	0.003293  
2592.000000	0.003224  
2591.000000	0.003237  
2590.000000	0.003327  
2589.000000	0.003438  
2588.000000	0.003497  
2587.000000	0.003467  
2586.000000	0.003383  
2585.000000	0.003321  
2584.000000	0.003324  
2583.000000	0.003359  
2582.000000	0.003357  
2581.000000	0.003297  
2580.000000	0.003211  
2579.000000	0.003136  
2578.000000	0.003075  
2577.000000	0.003027  
2576.000000	0.003012  
2575.000000	0.003049  
2574.000000	0.003113  
2573.000000	0.003149  
2572.000000	0.003118  
2571.000000	0.003016  
2570.000000	0.002881  
2569.000000	0.002778  
2568.000000	0.002779  
2567.000000	0.002890  
2566.000000	0.003016  
2565.000000	0.003013  
2564.000000	0.002823  
2563.000000	0.002527  
2562.000000	0.002270  
2561.000000	0.002149  
2560.000000	0.002188  
2559.000000	0.002371  
2558.000000	0.002633  
2557.000000	0.002850  
2556.000000	0.002905  
2555.000000	0.002792  
2554.000000	0.002621  
2553.000000	0.002513  
2552.000000	0.002500  
2551.000000	0.002550  
2550.000000	0.002625  
2549.000000	0.002685  
2548.000000	0.002691  
2547.000000	0.002647  
2546.000000	0.002621  
2545.000000	0.002677  
2544.000000	0.002783  
2543.000000	0.002830  
2542.000000	0.002747  
2541.000000	0.002571  
2540.000000	0.002410  
2539.000000	0.002363  
2538.000000	0.002450  
2537.000000	0.002599  
2536.000000	0.002682  
2535.000000	0.002622  
2534.000000	0.002462  
2533.000000	0.002313  
2532.000000	0.002240  
2531.000000	0.002235  
2530.000000	0.002278  
2529.000000	0.002386  
2528.000000	0.002549  
2527.000000	0.002689  
2526.000000	0.002719  
2525.000000	0.002633  
2524.000000	0.002500  
2523.000000	0.002391  
2522.000000	0.002327  
2521.000000	0.002286  
2520.000000	0.002233  
2519.000000	0.002151  
2518.000000	0.002071  
2517.000000	0.002068  
2516.000000	0.002184  
2515.000000	0.002363  
2514.000000	0.002485  
2513.000000	0.002478  
2512.000000	0.002362  
2511.000000	0.002197  
2510.000000	0.002037  
2509.000000	0.001945  
2508.000000	0.001987  
2507.000000	0.002149  
2506.000000	0.002301  
2505.000000	0.002313  
2504.000000	0.002197  
2503.000000	0.002089  
2502.000000	0.002080  
2501.000000	0.002144  
2500.000000	0.002216  
2499.000000	0.002291  
2498.000000	0.002391  
2497.000000	0.002489  
2496.000000	0.002532  
2495.000000	0.002508  
2494.000000	0.002434  
2493.000000	0.002308  
2492.000000	0.002138  
2491.000000	0.002003  
2490.000000	0.002007  
2489.000000	0.002154  
2488.000000	0.002332  
2487.000000	0.002425  
2486.000000	0.002409  
2485.000000	0.002313  
2484.000000	0.002155  
2483.000000	0.001966  
2482.000000	0.001822  
2481.000000	0.001784  
2480.000000	0.001818  
2479.000000	0.001833  
2478.000000	0.001801  
2477.000000	0.001780  
2476.000000	0.001825  
2475.000000	0.001906  
2474.000000	0.001941  
2473.000000	0.001885  
2472.000000	0.001770  
2471.000000	0.001673  
2470.000000	0.001651  
2469.000000	0.001714  
2468.000000	0.001820  
2467.000000	0.001889  
2466.000000	0.001844  
2465.000000	0.001677  
2464.000000	0.001477  
2463.000000	0.001367  
2462.000000	0.001381  
2461.000000	0.001439  
2460.000000	0.001448  
2459.000000	0.001419  
2458.000000	0.001424  
2457.000000	0.001472  
2456.000000	0.001479  
2455.000000	0.001395  
2454.000000	0.001278  
2453.000000	0.001238  
2452.000000	0.001330  
2451.000000	0.001535  
2450.000000	0.001783  
2449.000000	0.001972  
2448.000000	0.002004  
2447.000000	0.001857  
2446.000000	0.001608  
2445.000000	0.001366  
2444.000000	0.001189  
2443.000000	0.001089  
2442.000000	0.001069  
2441.000000	0.001103  
2440.000000	0.001142  
2439.000000	0.001164  
2438.000000	0.001217  
2437.000000	0.001346  
2436.000000	0.001516  
2435.000000	0.001625  
2434.000000	0.001618  
2433.000000	0.001527  
2432.000000	0.001426  
2431.000000	0.001395  
2430.000000	0.001488  
2429.000000	0.001690  
2428.000000	0.001891  
2427.000000	0.001966  
2426.000000	0.001900  
2425.000000	0.001794  
2424.000000	0.001737  
2423.000000	0.001725  
2422.000000	0.001708  
2421.000000	0.001674  
2420.000000	0.001644  
2419.000000	0.001622  
2418.000000	0.001596  
2417.000000	0.001570  
2416.000000	0.001568  
2415.000000	0.001596  
2414.000000	0.001623  
2413.000000	0.001613  
2412.000000	0.001564  
2411.000000	0.001509  
2410.000000	0.001493  
2409.000000	0.001534  
2408.000000	0.001616  
2407.000000	0.001692  
2406.000000	0.001707  
2405.000000	0.001619  
2404.000000	0.001440  
2403.000000	0.001249  
2402.000000	0.001146  
2401.000000	0.001169  
2400.000000	0.001281  
2399.000000	0.001417  
2398.000000	0.001545  
2397.000000	0.001662  
2396.000000	0.001753  
2395.000000	0.001798  
2394.000000	0.001787  
2393.000000	0.001739  
2392.000000	0.001693  
2391.000000	0.001680  
2390.000000	0.001686  
2389.000000	0.001651  
2388.000000	0.001524  
2387.000000	0.001327  
2386.000000	0.001145  
2385.000000	0.001038  
2384.000000	0.001010  
2383.000000	0.001053  
2382.000000	0.001190  
2381.000000	0.001416  
2380.000000	0.001643  
2379.000000	0.001754  
2378.000000	0.001700  
2377.000000	0.001508  
2376.000000	0.001204  
2375.000000	0.000825  
2374.000000	0.000488  
2373.000000	0.000362  
2372.000000	0.000501  
2371.000000	0.000800  
2370.000000	0.001143  
2369.000000	0.001485  
2368.000000	0.001747  
2367.000000	0.001817  
2366.000000	0.001730  
2365.000000	0.001633  
2364.000000	0.001498  
2363.000000	0.001127  
2362.000000	0.000542  
2361.000000	0.000143  
2360.000000	0.000249  
2359.000000	0.000687  
2358.000000	0.001074  
2357.000000	0.001240  
2356.000000	0.001264  
2355.000000	0.001306  
2354.000000	0.001480  
2353.000000	0.001729  
2352.000000	0.001827  
2351.000000	0.001669  
2350.000000	0.001420  
2349.000000	0.001292  
2348.000000	0.001345  
2347.000000	0.001457  
2346.000000	0.001481  
2345.000000	0.001372  
2344.000000	0.001127  
2343.000000	0.000804  
2342.000000	0.000599  
2341.000000	0.000735  
2340.000000	0.001142  
2339.000000	0.001505  
2338.000000	0.001625  
2337.000000	0.001550  
2336.000000	0.001387  
2335.000000	0.001202  
2334.000000	0.001085  
2333.000000	0.001132  
2332.000000	0.001283  
2331.000000	0.001380  
2330.000000	0.001372  
2329.000000	0.001331  
2328.000000	0.001320  
2327.000000	0.001299  
2326.000000	0.001249  
2325.000000	0.001193  
2324.000000	0.001144  
2323.000000	0.001086  
2322.000000	0.001007  
2321.000000	0.000923  
2320.000000	0.000807  
2319.000000	0.000624  
2318.000000	0.000419  
2317.000000	0.000333  
2316.000000	0.000474  
2315.000000	0.000776  
2314.000000	0.001038  
2313.000000	0.001090  
2312.000000	0.000949  
2311.000000	0.000772  
2310.000000	0.000691  
2309.000000	0.000691  
2308.000000	0.000678  
2307.000000	0.000622  
2306.000000	0.000576  
2305.000000	0.000586  
2304.000000	0.000630  
2303.000000	0.000671  
2302.000000	0.000718  
2301.000000	0.000784  
2300.000000	0.000832  
2299.000000	0.000794  
2298.000000	0.000660  
2297.000000	0.000503  
2296.000000	0.000431  
2295.000000	0.000507  
2294.000000	0.000703  
2293.000000	0.000895  
2292.000000	0.000950  
2291.000000	0.000838  
2290.000000	0.000670  
2289.000000	0.000584  
2288.000000	0.000622  
2287.000000	0.000727  
2286.000000	0.000830  
2285.000000	0.000884  
2284.000000	0.000869  
2283.000000	0.000821  
2282.000000	0.000835  
2281.000000	0.000982  
2280.000000	0.001202  
2279.000000	0.001355  
2278.000000	0.001371  
2277.000000	0.001308  
2276.000000	0.001253  
2275.000000	0.001225  
2274.000000	0.001190  
2273.000000	0.001126  
2272.000000	0.001042  
2271.000000	0.000973  
2270.000000	0.000977  
2269.000000	0.001073  
2268.000000	0.001203  
2267.000000	0.001276  
2266.000000	0.001245  
2265.000000	0.001113  
2264.000000	0.000876  
2263.000000	0.000542  
2262.000000	0.000221  
2261.000000	0.000102  
2260.000000	0.000295  
2259.000000	0.000698  
2258.000000	0.001056  
2257.000000	0.001147  
2256.000000	0.000939  
2255.000000	0.000611  
2254.000000	0.000417  
2253.000000	0.000490  
2252.000000	0.000752  
2251.000000	0.001013  
2250.000000	0.001132  
2249.000000	0.001081  
2248.000000	0.000940  
2247.000000	0.000846  
2246.000000	0.000913  
2245.000000	0.001120  
2244.000000	0.001295  
2243.000000	0.001293  
2242.000000	0.001148  
2241.000000	0.001009  
2240.000000	0.000949  
2239.000000	0.000940  
2238.000000	0.000968  
2237.000000	0.001053  
2236.000000	0.001142  
2235.000000	0.001118  
2234.000000	0.000943  
2233.000000	0.000746  
2232.000000	0.000712  
2231.000000	0.000919  
2230.000000	0.001283  
2229.000000	0.001597  
2228.000000	0.001644  
2227.000000	0.001362  
2226.000000	0.000923  
2225.000000	0.000615  
2224.000000	0.000608  
2223.000000	0.000847  
2222.000000	0.001124  
2221.000000	0.001206  
2220.000000	0.000957  
2219.000000	0.000462  
2218.000000	0.000014  
2217.000000	-0.000119 
2216.000000	0.000066  
2215.000000	0.000384  
2214.000000	0.000701  
2213.000000	0.000999  
2212.000000	0.001232  
2211.000000	0.001302  
2210.000000	0.001237  
2209.000000	0.001242  
2208.000000	0.001478  
2207.000000	0.001852  
2206.000000	0.002121  
2205.000000	0.002141  
2204.000000	0.001967  
2203.000000	0.001755  
2202.000000	0.001612  
2201.000000	0.001505  
2200.000000	0.001290  
2199.000000	0.000869  
2198.000000	0.000326  
2197.000000	-0.000142 
2196.000000	-0.000404 
2195.000000	-0.000444 
2194.000000	-0.000260 
2193.000000	0.000154  
2192.000000	0.000691  
2191.000000	0.001115  
2190.000000	0.001244  
2189.000000	0.001082  
2188.000000	0.000761  
2187.000000	0.000412  
2186.000000	0.000152  
2185.000000	0.000094  
2184.000000	0.000246  
2183.000000	0.000445  
2182.000000	0.000482  
2181.000000	0.000344  
2180.000000	0.000259  
2179.000000	0.000471  
2178.000000	0.000947  
2177.000000	0.001337  
2176.000000	0.001307  
2175.000000	0.000923  
2174.000000	0.000612  
2173.000000	0.000700  
2172.000000	0.001068  
2171.000000	0.001335  
2170.000000	0.001286  
2169.000000	0.001036  
2168.000000	0.000813  
2167.000000	0.000717  
2166.000000	0.000703  
2165.000000	0.000709  
2164.000000	0.000754  
2163.000000	0.000921  
2162.000000	0.001241  
2161.000000	0.001555  
2160.000000	0.001596  
2159.000000	0.001285  
2158.000000	0.000843  
2157.000000	0.000526  
2156.000000	0.000381  
2155.000000	0.000341  
2154.000000	0.000361  
2153.000000	0.000361  
2152.000000	0.000208  
2151.000000	-0.000118 
2150.000000	-0.000449 
2149.000000	-0.000592 
2148.000000	-0.000519 
2147.000000	-0.000279 
2146.000000	0.000128  
2145.000000	0.000665  
2144.000000	0.001151  
2143.000000	0.001419  
2142.000000	0.001488  
2141.000000	0.001454  
2140.000000	0.001319  
2139.000000	0.001058  
2138.000000	0.000777  
2137.000000	0.000620  
2136.000000	0.000559  
2135.000000	0.000451  
2134.000000	0.000288  
2133.000000	0.000204  
2132.000000	0.000248  
2131.000000	0.000308  
2130.000000	0.000281  
2129.000000	0.000195  
2128.000000	0.000130  
2127.000000	0.000131  
2126.000000	0.000203  
2125.000000	0.000333  
2124.000000	0.000488  
2123.000000	0.000655  
2122.000000	0.000859  
2121.000000	0.001097  
2120.000000	0.001283  
2119.000000	0.001332  
2118.000000	0.001273  
2117.000000	0.001188  
2116.000000	0.001086  
2115.000000	0.000936  
2114.000000	0.000794  
2113.000000	0.000764  
2112.000000	0.000822  
2111.000000	0.000823  
2110.000000	0.000693  
2109.000000	0.000526  
2108.000000	0.000449  
2107.000000	0.000480  
2106.000000	0.000561  
2105.000000	0.000616  
2104.000000	0.000565  
2103.000000	0.000377  
2102.000000	0.000143  
2101.000000	0.000013  
2100.000000	0.000023  
2099.000000	0.000071  
2098.000000	0.000085  
2097.000000	0.000132  
2096.000000	0.000319  
2095.000000	0.000663  
2094.000000	0.001068  
2093.000000	0.001374  
2092.000000	0.001442  
2091.000000	0.001267  
2090.000000	0.001029  
2089.000000	0.000920  
2088.000000	0.000941  
2087.000000	0.000944  
2086.000000	0.000880  
2085.000000	0.000842  
2084.000000	0.000861  
2083.000000	0.000820  
2082.000000	0.000642  
2081.000000	0.000431  
2080.000000	0.000338  
2079.000000	0.000382  
2078.000000	0.000469  
2077.000000	0.000516  
2076.000000	0.000478  
2075.000000	0.000352  
2074.000000	0.000222  
2073.000000	0.000224  
2072.000000	0.000378  
2071.000000	0.000516  
2070.000000	0.000455  
2069.000000	0.000203  
2068.000000	-0.000073 
2067.000000	-0.000220 
2066.000000	-0.000185 
2065.000000	-0.000022 
2064.000000	0.000143  
2063.000000	0.000209  
2062.000000	0.000180  
2061.000000	0.000151  
2060.000000	0.000170  
2059.000000	0.000198  
2058.000000	0.000202  
2057.000000	0.000213  
2056.000000	0.000269  
2055.000000	0.000355  
2054.000000	0.000435  
2053.000000	0.000480  
2052.000000	0.000467  
2051.000000	0.000420  
2050.000000	0.000429  
2049.000000	0.000524  
2048.000000	0.000560  
2047.000000	0.000381  
2046.000000	0.000097  
2045.000000	0.000007  
2044.000000	0.000221  
2043.000000	0.000561  
2042.000000	0.000842  
2041.000000	0.001039  
2040.000000	0.001141  
2039.000000	0.001075  
2038.000000	0.000892  
2037.000000	0.000814  
2036.000000	0.000926  
2035.000000	0.001013  
2034.000000	0.000848  
2033.000000	0.000500  
2032.000000	0.000217  
2031.000000	0.000134  
2030.000000	0.000257  
2029.000000	0.000562  
2028.000000	0.000952  
2027.000000	0.001246  
2026.000000	0.001346  
2025.000000	0.001310  
2024.000000	0.001214  
2023.000000	0.001070  
2022.000000	0.000947  
2021.000000	0.000978  
2020.000000	0.001141  
2019.000000	0.001189  
2018.000000	0.000919  
2017.000000	0.000422  
2016.000000	-0.000053 
2015.000000	-0.000380 
2014.000000	-0.000564 
2013.000000	-0.000663 
2012.000000	-0.000772 
2011.000000	-0.000928 
2010.000000	-0.000958 
2009.000000	-0.000644 
2008.000000	-0.000104 
2007.000000	0.000250  
2006.000000	0.000232  
2005.000000	0.000090  
2004.000000	0.000057  
2003.000000	0.000019  
2002.000000	-0.000204 
2001.000000	-0.000476 
2000.000000	-0.000477 
1999.000000	-0.000134 
1998.000000	0.000326  
1997.000000	0.000669  
1996.000000	0.000820  
1995.000000	0.000791  
1994.000000	0.000646  
1993.000000	0.000545  
1992.000000	0.000656  
1991.000000	0.000937  
1990.000000	0.001177  
1989.000000	0.001229  
1988.000000	0.001077  
1987.000000	0.000764  
1986.000000	0.000354  
1985.000000	-0.000034 
1984.000000	-0.000247 
1983.000000	-0.000177 
1982.000000	0.000169  
1981.000000	0.000667  
1980.000000	0.001086  
1979.000000	0.001198  
1978.000000	0.000907  
1977.000000	0.000307  
1976.000000	-0.000404 
1975.000000	-0.001002 
1974.000000	-0.001269 
1973.000000	-0.001122 
1972.000000	-0.000754 
1971.000000	-0.000453 
1970.000000	-0.000285 
1969.000000	-0.000072 
1968.000000	0.000275  
1967.000000	0.000587  
1966.000000	0.000715  
1965.000000	0.000784  
1964.000000	0.000977  
1963.000000	0.001269  
1962.000000	0.001476  
1961.000000	0.001472  
1960.000000	0.001273  
1959.000000	0.000987  
1958.000000	0.000760  
1957.000000	0.000687  
1956.000000	0.000705  
1955.000000	0.000650  
1954.000000	0.000485  
1953.000000	0.000356  
1952.000000	0.000371  
1951.000000	0.000431  
1950.000000	0.000388  
1949.000000	0.000265  
1948.000000	0.000219  
1947.000000	0.000328  
1946.000000	0.000523  
1945.000000	0.000699  
1944.000000	0.000803  
1943.000000	0.000832  
1942.000000	0.000811  
1941.000000	0.000780  
1940.000000	0.000782  
1939.000000	0.000853  
1938.000000	0.001013  
1937.000000	0.001209  
1936.000000	0.001292  
1935.000000	0.001141  
1934.000000	0.000819  
1933.000000	0.000546  
1932.000000	0.000472  
1931.000000	0.000574  
1930.000000	0.000767  
1929.000000	0.000986  
1928.000000	0.001132  
1927.000000	0.001088  
1926.000000	0.000863  
1925.000000	0.000628  
1924.000000	0.000546  
1923.000000	0.000576  
1922.000000	0.000547  
1921.000000	0.000399  
1920.000000	0.000226  
1919.000000	0.000154  
1918.000000	0.000276  
1917.000000	0.000572  
1916.000000	0.000898  
1915.000000	0.001085  
1914.000000	0.001068  
1913.000000	0.000939  
1912.000000	0.000861  
1911.000000	0.000901  
1910.000000	0.000988  
1909.000000	0.001029  
1908.000000	0.001010  
1907.000000	0.000966  
1906.000000	0.000917  
1905.000000	0.000849  
1904.000000	0.000746  
1903.000000	0.000615  
1902.000000	0.000489  
1901.000000	0.000416  
1900.000000	0.000424  
1899.000000	0.000515  
1898.000000	0.000662  
1897.000000	0.000796  
1896.000000	0.000825  
1895.000000	0.000735  
1894.000000	0.000641  
1893.000000	0.000672  
1892.000000	0.000820  
1891.000000	0.000942  
1890.000000	0.000910  
1889.000000	0.000746  
1888.000000	0.000586  
1887.000000	0.000525  
1886.000000	0.000575  
1885.000000	0.000681  
1884.000000	0.000755  
1883.000000	0.000756  
1882.000000	0.000728  
1881.000000	0.000724  
1880.000000	0.000721  
1879.000000	0.000683  
1878.000000	0.000676  
1877.000000	0.000805  
1876.000000	0.001040  
1875.000000	0.001224  
1874.000000	0.001252  
1873.000000	0.001158  
1872.000000	0.001003  
1871.000000	0.000784  
1870.000000	0.000535  
1869.000000	0.000428  
1868.000000	0.000543  
1867.000000	0.000708  
1866.000000	0.000784  
1865.000000	0.000806  
1864.000000	0.000837  
1863.000000	0.000870  
1862.000000	0.000875  
1861.000000	0.000869  
1860.000000	0.000862  
1859.000000	0.000809  
1858.000000	0.000681  
1857.000000	0.000546  
1856.000000	0.000500  
1855.000000	0.000567  
1854.000000	0.000702  
1853.000000	0.000859  
1852.000000	0.001002  
1851.000000	0.001098  
1850.000000	0.001141  
1849.000000	0.001172  
1848.000000	0.001208  
1847.000000	0.001198  
1846.000000	0.001091  
1845.000000	0.000936  
1844.000000	0.000835  
1843.000000	0.000791  
1842.000000	0.000762  
1841.000000	0.000758  
1840.000000	0.000801  
1839.000000	0.000867  
1838.000000	0.000906  
1837.000000	0.000896  
1836.000000	0.000860  
1835.000000	0.000829  
1834.000000	0.000807  
1833.000000	0.000785  
1832.000000	0.000747  
1831.000000	0.000700  
1830.000000	0.000710  
1829.000000	0.000800  
1828.000000	0.000876  
1827.000000	0.000846  
1826.000000	0.000734  
1825.000000	0.000671  
1824.000000	0.000725  
1823.000000	0.000818  
1822.000000	0.000874  
1821.000000	0.000897  
1820.000000	0.000903  
1819.000000	0.000884  
1818.000000	0.000865  
1817.000000	0.000914  
1816.000000	0.001032  
1815.000000	0.001129  
1814.000000	0.001133  
1813.000000	0.001070  
1812.000000	0.001009  
1811.000000	0.000974  
1810.000000	0.000954  
1809.000000	0.000949  
1808.000000	0.000947  
1807.000000	0.000917  
1806.000000	0.000894  
1805.000000	0.000969  
1804.000000	0.001168  
1803.000000	0.001383  
1802.000000	0.001483  
1801.000000	0.001473  
1800.000000	0.001432  
1799.000000	0.001379  
1798.000000	0.001317  
1797.000000	0.001320  
1796.000000	0.001444  
1795.000000	0.001632  
1794.000000	0.001769  
1793.000000	0.001820  
1792.000000	0.001819  
1791.000000	0.001776  
1790.000000	0.001709  
1789.000000	0.001687  
1788.000000	0.001739  
1787.000000	0.001826  
1786.000000	0.001916  
1785.000000	0.002036  
1784.000000	0.002193  
1783.000000	0.002296  
1782.000000	0.002253  
1781.000000	0.002131  
1780.000000	0.002092  
1779.000000	0.002186  
1778.000000	0.002340  
1777.000000	0.002507  
1776.000000	0.002654  
1775.000000	0.002701  
1774.000000	0.002580  
1773.000000	0.002431  
1772.000000	0.002494  
1771.000000	0.002703  
1770.000000	0.002877  
1769.000000	0.003048  
1768.000000	0.003286  
1767.000000	0.003540  
1766.000000	0.003754  
1765.000000	0.003977  
1764.000000	0.004269  
1763.000000	0.004597  
1762.000000	0.004904  
1761.000000	0.005249  
1760.000000	0.005711  
1759.000000	0.006252  
1758.000000	0.006835  
1757.000000	0.007556  
1756.000000	0.008461  
1755.000000	0.009428  
1754.000000	0.010452  
1753.000000	0.011825  
1752.000000	0.013986  
1751.000000	0.017139  
1750.000000	0.021292  
1749.000000	0.026663  
1748.000000	0.033105  
1747.000000	0.039822  
1746.000000	0.046544  
1745.000000	0.053762  
1744.000000	0.061323  
1743.000000	0.067824  
1742.000000	0.072008  
1741.000000	0.073629  
1740.000000	0.072668  
1739.000000	0.069589  
1738.000000	0.065829  
1737.000000	0.062059  
1736.000000	0.057421  
1735.000000	0.049933  
1734.000000	0.040436  
1733.000000	0.033226  
1732.000000	0.028997  
1731.000000	0.025719  
1730.000000	0.022671  
1729.000000	0.019943  
1728.000000	0.017727  
1727.000000	0.015952  
1726.000000	0.014522  
1725.000000	0.013337  
1724.000000	0.012307  
1723.000000	0.011456  
1722.000000	0.010856  
1721.000000	0.010441  
1720.000000	0.009990  
1719.000000	0.009248  
1718.000000	0.008247  
1717.000000	0.007452  
1716.000000	0.007034  
1715.000000	0.006762  
1714.000000	0.006546  
1713.000000	0.006354  
1712.000000	0.006124  
1711.000000	0.005852  
1710.000000	0.005607  
1709.000000	0.005459  
1708.000000	0.005380  
1707.000000	0.005291  
1706.000000	0.005192  
1705.000000	0.005154  
1704.000000	0.005196  
1703.000000	0.005260  
1702.000000	0.005257  
1701.000000	0.005101  
1700.000000	0.004781  
1699.000000	0.004494  
1698.000000	0.004385  
1697.000000	0.004407  
1696.000000	0.004470  
1695.000000	0.004491  
1694.000000	0.004511  
1693.000000	0.004559  
1692.000000	0.004576  
1691.000000	0.004537  
1690.000000	0.004471  
1689.000000	0.004452  
1688.000000	0.004523  
1687.000000	0.004679  
1686.000000	0.004871  
1685.000000	0.005045  
1684.000000	0.005084  
1683.000000	0.004969  
1682.000000	0.004914  
1681.000000	0.004975  
1680.000000	0.005053  
1679.000000	0.005109  
1678.000000	0.005174  
1677.000000	0.005271  
1676.000000	0.005385  
1675.000000	0.005491  
1674.000000	0.005593  
1673.000000	0.005684  
1672.000000	0.005711  
1671.000000	0.005679  
1670.000000	0.005776  
1669.000000	0.006104  
1668.000000	0.006487  
1667.000000	0.006798  
1666.000000	0.007060  
1665.000000	0.007298  
1664.000000	0.007555  
1663.000000	0.007906  
1662.000000	0.008353  
1661.000000	0.008777  
1660.000000	0.009110  
1659.000000	0.009371  
1658.000000	0.009668  
1657.000000	0.010030  
1656.000000	0.010407  
1655.000000	0.010577  
1654.000000	0.010569  
1653.000000	0.010778  
1652.000000	0.011089  
1651.000000	0.011341  
1650.000000	0.011567  
1649.000000	0.011742  
1648.000000	0.011869  
1647.000000	0.012063  
1646.000000	0.012366  
1645.000000	0.012625  
1644.000000	0.012803  
1643.000000	0.012929  
1642.000000	0.013027  
1641.000000	0.013145  
1640.000000	0.013272  
1639.000000	0.013374  
1638.000000	0.013426  
1637.000000	0.013457  
1636.000000	0.013483  
1635.000000	0.013414  
1634.000000	0.013308  
1633.000000	0.013297  
1632.000000	0.013325  
1631.000000	0.013287  
1630.000000	0.013138  
1629.000000	0.012901  
1628.000000	0.012640  
1627.000000	0.012397  
1626.000000	0.012173  
1625.000000	0.011930  
1624.000000	0.011634  
1623.000000	0.011328  
1622.000000	0.011089  
1621.000000	0.010920  
1620.000000	0.010753  
1619.000000	0.010493  
1618.000000	0.010072  
1617.000000	0.009570  
1616.000000	0.009165  
1615.000000	0.008911  
1614.000000	0.008756  
1613.000000	0.008624  
1612.000000	0.008440  
1611.000000	0.008184  
1610.000000	0.007918  
1609.000000	0.007721  
1608.000000	0.007603  
1607.000000	0.007525  
1606.000000	0.007461  
1605.000000	0.007390  
1604.000000	0.007303  
1603.000000	0.007223  
1602.000000	0.007197  
1601.000000	0.007215  
1600.000000	0.007209  
1599.000000	0.007143  
1598.000000	0.007064  
1597.000000	0.007032  
1596.000000	0.007071  
1595.000000	0.007181  
1594.000000	0.007351  
1593.000000	0.007551  
1592.000000	0.007746  
1591.000000	0.007953  
1590.000000	0.008218  
1589.000000	0.008532  
1588.000000	0.008822  
1587.000000	0.009049  
1586.000000	0.009258  
1585.000000	0.009506  
1584.000000	0.009793  
1583.000000	0.010080  
1582.000000	0.010345  
1581.000000	0.010592  
1580.000000	0.010800  
1579.000000	0.010944  
1578.000000	0.011033  
1577.000000	0.011199  
1576.000000	0.011531  
1575.000000	0.011854  
1574.000000	0.012057  
1573.000000	0.012201  
1572.000000	0.012293  
1571.000000	0.012320  
1570.000000	0.012354  
1569.000000	0.012464  
1568.000000	0.012558  
1567.000000	0.012551  
1566.000000	0.012451  
1565.000000	0.012330  
1564.000000	0.012228  
1563.000000	0.012185  
1562.000000	0.012178  
1561.000000	0.012192  
1560.000000	0.011932  
1559.000000	0.011065  
1558.000000	0.010259  
1557.000000	0.009925  
1556.000000	0.009763  
1555.000000	0.009577  
1554.000000	0.009333  
1553.000000	0.009170  
1552.000000	0.009077  
1551.000000	0.008947  
1550.000000	0.008720  
1549.000000	0.008446  
1548.000000	0.008188  
1547.000000	0.007959  
1546.000000	0.007753  
1545.000000	0.007606  
1544.000000	0.007465  
1543.000000	0.007243  
1542.000000	0.006950  
1541.000000	0.006956  
1540.000000	0.007299  
1539.000000	0.007273  
1538.000000	0.006930  
1537.000000	0.006692  
1536.000000	0.006536  
1535.000000	0.006356  
1534.000000	0.006200  
1533.000000	0.006252  
1532.000000	0.006405  
1531.000000	0.006462  
1530.000000	0.006421  
1529.000000	0.006346  
1528.000000	0.006263  
1527.000000	0.006142  
1526.000000	0.006026  
1525.000000	0.006002  
1524.000000	0.006030  
1523.000000	0.005967  
1522.000000	0.005901  
1521.000000	0.006074  
1520.000000	0.006333  
1519.000000	0.006448  
1518.000000	0.006452  
1517.000000	0.006473  
1516.000000	0.006536  
1515.000000	0.006568  
1514.000000	0.006626  
1513.000000	0.006797  
1512.000000	0.007068  
1511.000000	0.007339  
1510.000000	0.007560  
1509.000000	0.007719  
1508.000000	0.007764  
1507.000000	0.007787  
1506.000000	0.007813  
1505.000000	0.007846  
1504.000000	0.007995  
1503.000000	0.008188  
1502.000000	0.008384  
1501.000000	0.008626  
1500.000000	0.008852  
1499.000000	0.008971  
1498.000000	0.009047  
1497.000000	0.009318  
1496.000000	0.009710  
1495.000000	0.009948  
1494.000000	0.010065  
1493.000000	0.010220  
1492.000000	0.010436  
1491.000000	0.010687  
1490.000000	0.011109  
1489.000000	0.011754  
1488.000000	0.012309  
1487.000000	0.012648  
1486.000000	0.013000  
1485.000000	0.013519  
1484.000000	0.014173  
1483.000000	0.014953  
1482.000000	0.016007  
1481.000000	0.017369  
1480.000000	0.018793  
1479.000000	0.020127  
1478.000000	0.021598  
1477.000000	0.023421  
1476.000000	0.025441  
1475.000000	0.027613  
1474.000000	0.031125  
1473.000000	0.037676  
1472.000000	0.045889  
1471.000000	0.052903  
1470.000000	0.058660  
1469.000000	0.064005  
1468.000000	0.068928  
1467.000000	0.073165  
1466.000000	0.076663  
1465.000000	0.079411  
1464.000000	0.081113  
1463.000000	0.081901  
1462.000000	0.082348  
1461.000000	0.082757  
1460.000000	0.083160  
1459.000000	0.083608  
1458.000000	0.084298  
1457.000000	0.084371  
1456.000000	0.082761  
1455.000000	0.080278  
1454.000000	0.077683  
1453.000000	0.074897  
1452.000000	0.071975  
1451.000000	0.069219  
1450.000000	0.066788  
1449.000000	0.064379  
1448.000000	0.061741  
1447.000000	0.059042  
1446.000000	0.056440  
1445.000000	0.053797  
1444.000000	0.051006  
1443.000000	0.048218  
1442.000000	0.045639  
1441.000000	0.043346  
1440.000000	0.041318  
1439.000000	0.039469  
1438.000000	0.037547  
1437.000000	0.035306  
1436.000000	0.033089  
1435.000000	0.031383  
1434.000000	0.030003  
1433.000000	0.028557  
1432.000000	0.026964  
1431.000000	0.025398  
1430.000000	0.023995  
1429.000000	0.022759  
1428.000000	0.021766  
1427.000000	0.021093  
1426.000000	0.020631  
1425.000000	0.020217  
1424.000000	0.019869  
1423.000000	0.019706  
1422.000000	0.019673  
1421.000000	0.019594  
1420.000000	0.019381  
1419.000000	0.019061  
1418.000000	0.018649  
1417.000000	0.018152  
1416.000000	0.017666  
1415.000000	0.017262  
1414.000000	0.016893  
1413.000000	0.016503  
1412.000000	0.016163  
1411.000000	0.016006  
1410.000000	0.016028  
1409.000000	0.016125  
1408.000000	0.016275  
1407.000000	0.016526  
1406.000000	0.016837  
1405.000000	0.017107  
1404.000000	0.017334  
1403.000000	0.017595  
1402.000000	0.017903  
1401.000000	0.018244  
1400.000000	0.018675  
1399.000000	0.019220  
1398.000000	0.019725  
1397.000000	0.020048  
1396.000000	0.020262  
1395.000000	0.020516  
1394.000000	0.020803  
1393.000000	0.021051  
1392.000000	0.021306  
1391.000000	0.021644  
1390.000000	0.022112  
1389.000000	0.022829  
1388.000000	0.024034  
1387.000000	0.025781  
1386.000000	0.027722  
1385.000000	0.029620  
1384.000000	0.031636  
1383.000000	0.034019  
1382.000000	0.036847  
1381.000000	0.040003  
1380.000000	0.043167  
1379.000000	0.045738  
1378.000000	0.047089  
1377.000000	0.046973  
1376.000000	0.045454  
1375.000000	0.042699  
1374.000000	0.039281  
1373.000000	0.036138  
1372.000000	0.033781  
1371.000000	0.032145  
1370.000000	0.031076  
1369.000000	0.030491  
1368.000000	0.030260  
1367.000000	0.030121  
1366.000000	0.029811  
1365.000000	0.029157  
1364.000000	0.028079  
1363.000000	0.026711  
1362.000000	0.025422  
1361.000000	0.024481  
1360.000000	0.023866  
1359.000000	0.023468  
1358.000000	0.023200  
1357.000000	0.023002  
1356.000000	0.022843  
1355.000000	0.022726  
1354.000000	0.022648  
1353.000000	0.022591  
1352.000000	0.022535  
1351.000000	0.022466  
1350.000000	0.022356  
1349.000000	0.022173  
1348.000000	0.021925  
1347.000000	0.021647  
1346.000000	0.021350  
1345.000000	0.021016  
1344.000000	0.020666  
1343.000000	0.020358  
1342.000000	0.020104  
1341.000000	0.019824  
1340.000000	0.019419  
1339.000000	0.018891  
1338.000000	0.018325  
1337.000000	0.017775  
1336.000000	0.017262  
1335.000000	0.016807  
1334.000000	0.016427  
1333.000000	0.016135  
1332.000000	0.015949  
1331.000000	0.015876  
1330.000000	0.015883  
1329.000000	0.015918  
1328.000000	0.015975  
1327.000000	0.016084  
1326.000000	0.016244  
1325.000000	0.016411  
1324.000000	0.016566  
1323.000000	0.016737  
1322.000000	0.016934  
1321.000000	0.017119  
1320.000000	0.017257  
1319.000000	0.017366  
1318.000000	0.017487  
1317.000000	0.017633  
1316.000000	0.017816  
1315.000000	0.018056  
1314.000000	0.018336  
1313.000000	0.018576  
1312.000000	0.018718  
1311.000000	0.018792  
1310.000000	0.018870  
1309.000000	0.018980  
1308.000000	0.019095  
1307.000000	0.019184  
1306.000000	0.019242  
1305.000000	0.019283  
1304.000000	0.019327  
1303.000000	0.019376  
1302.000000	0.019394  
1301.000000	0.019322  
1300.000000	0.019133  
1299.000000	0.018861  
1298.000000	0.018565  
1297.000000	0.018273  
1296.000000	0.017984  
1295.000000	0.017701  
1294.000000	0.017433  
1293.000000	0.017186  
1292.000000	0.016967  
1291.000000	0.016797  
1290.000000	0.016708  
1289.000000	0.016724  
1288.000000	0.016846  
1287.000000	0.017048  
1286.000000	0.017293  
1285.000000	0.017564  
1284.000000	0.017869  
1283.000000	0.018198  
1282.000000	0.018506  
1281.000000	0.018764  
1280.000000	0.019010  
1279.000000	0.019303  
1278.000000	0.019642  
1277.000000	0.019961  
1276.000000	0.020220  
1275.000000	0.020442  
1274.000000	0.020670  
1273.000000	0.020917  
1272.000000	0.021174  
1271.000000	0.021428  
1270.000000	0.021644  
1269.000000	0.021781  
1268.000000	0.021850  
1267.000000	0.021931  
1266.000000	0.022089  
1265.000000	0.022305  
1264.000000	0.022512  
1263.000000	0.022684  
1262.000000	0.022858  
1261.000000	0.023056  
1260.000000	0.023241  
1259.000000	0.023350  
1258.000000	0.023362  
1257.000000	0.023321  
1256.000000	0.023307  
1255.000000	0.023384  
1254.000000	0.023559  
1253.000000	0.023793  
1252.000000	0.024054  
1251.000000	0.024366  
1250.000000	0.024771  
1249.000000	0.025268  
1248.000000	0.025801  
1247.000000	0.026301  
1246.000000	0.026734  
1245.000000	0.027102  
1244.000000	0.027397  
1243.000000	0.027594  
1242.000000	0.027660  
1241.000000	0.027578  
1240.000000	0.027349  
1239.000000	0.026990  
1238.000000	0.026541  
1237.000000	0.026051  
1236.000000	0.025563  
1235.000000	0.025081  
1234.000000	0.024591  
1233.000000	0.024098  
1232.000000	0.023640  
1231.000000	0.023242  
1230.000000	0.022875  
1229.000000	0.022485  
1228.000000	0.022072  
1227.000000	0.021677  
1226.000000	0.021328  
1225.000000	0.021014  
1224.000000	0.020733  
1223.000000	0.020516  
1222.000000	0.020383  
1221.000000	0.020313  
1220.000000	0.020288  
1219.000000	0.020308  
1218.000000	0.020356  
1217.000000	0.020386  
1216.000000	0.020386  
1215.000000	0.020410  
1214.000000	0.020514  
1213.000000	0.020685  
1212.000000	0.020867  
1211.000000	0.021027  
1210.000000	0.021185  
1209.000000	0.021376  
1208.000000	0.021621  
1207.000000	0.021917  
1206.000000	0.022243  
1205.000000	0.022575  
1204.000000	0.022914  
1203.000000	0.023293  
1202.000000	0.023743  
1201.000000	0.024258  
1200.000000	0.024815  
1199.000000	0.025403  
1198.000000	0.026032  
1197.000000	0.026726  
1196.000000	0.027496  
1195.000000	0.028342  
1194.000000	0.029245  
1193.000000	0.030194  
1192.000000	0.031187  
1191.000000	0.032216  
1190.000000	0.033250  
1189.000000	0.034261  
1188.000000	0.035256  
1187.000000	0.036270  
1186.000000	0.037322  
1185.000000	0.038399  
1184.000000	0.039482  
1183.000000	0.040558  
1182.000000	0.041604  
1181.000000	0.042572  
1180.000000	0.043414  
1179.000000	0.044125  
1178.000000	0.044725  
1177.000000	0.045211  
1176.000000	0.045545  
1175.000000	0.045702  
1174.000000	0.045712  
1173.000000	0.045619  
1172.000000	0.045429  
1171.000000	0.045110  
1170.000000	0.044638  
1169.000000	0.044025  
1168.000000	0.043301  
1167.000000	0.042503  
1166.000000	0.041642  
1165.000000	0.040700  
1164.000000	0.039655  
1163.000000	0.038520  
1162.000000	0.037337  
1161.000000	0.036138  
1160.000000	0.034953  
1159.000000	0.033823  
1158.000000	0.032774  
1157.000000	0.031774  
1156.000000	0.030777  
1155.000000	0.029813  
1154.000000	0.028959  
1153.000000	0.028226  
1152.000000	0.027521  
1151.000000	0.026761  
1150.000000	0.025963  
1149.000000	0.025203  
1148.000000	0.024525  
1147.000000	0.023909  
1146.000000	0.023320  
1145.000000	0.022728  
1144.000000	0.022115  
1143.000000	0.021471  
1142.000000	0.020806  
1141.000000	0.020152  
1140.000000	0.019559  
1139.000000	0.019071  
1138.000000	0.018686  
1137.000000	0.018353  
1136.000000	0.018010  
1135.000000	0.017652  
1134.000000	0.017326  
1133.000000	0.017074  
1132.000000	0.016911  
1131.000000	0.016834  
1130.000000	0.016851  
1129.000000	0.016987  
1128.000000	0.017272  
1127.000000	0.017719  
1126.000000	0.018299  
1125.000000	0.018953  
1124.000000	0.019617  
1123.000000	0.020245  
1122.000000	0.020808  
1121.000000	0.021273  
1120.000000	0.021618  
1119.000000	0.021829  
1118.000000	0.021887  
1117.000000	0.021764  
1116.000000	0.021455  
1115.000000	0.021005  
1114.000000	0.020500  
1113.000000	0.020017  
1112.000000	0.019602  
1111.000000	0.019273  
1110.000000	0.019029  
1109.000000	0.018849  
1108.000000	0.018714  
1107.000000	0.018624  
1106.000000	0.018591  
1105.000000	0.018615  
1104.000000	0.018687  
1103.000000	0.018799  
1102.000000	0.018936  
1101.000000	0.019060  
1100.000000	0.019128  
1099.000000	0.019124  
1098.000000	0.019073  
1097.000000	0.019011  
1096.000000	0.018946  
1095.000000	0.018851  
1094.000000	0.018702  
1093.000000	0.018514  
1092.000000	0.018355  
1091.000000	0.018290  
1090.000000	0.018315  
1089.000000	0.018341  
1088.000000	0.018277  
1087.000000	0.018109  
1086.000000	0.017902  
1085.000000	0.017744  
1084.000000	0.017682  
1083.000000	0.017688  
1082.000000	0.017682  
1081.000000	0.017602  
1080.000000	0.017475  
1079.000000	0.017405  
1078.000000	0.017485  
1077.000000	0.017722  
1076.000000	0.018074  
1075.000000	0.018499  
1074.000000	0.018950  
1073.000000	0.019370  
1072.000000	0.019742  
1071.000000	0.020128  
1070.000000	0.020600  
1069.000000	0.021142  
1068.000000	0.021660  
1067.000000	0.022095  
1066.000000	0.022472  
1065.000000	0.022818  
1064.000000	0.023091  
1063.000000	0.023212  
1062.000000	0.023144  
1061.000000	0.022900  
1060.000000	0.022514  
1059.000000	0.022037  
1058.000000	0.021569  
1057.000000	0.021218  
1056.000000	0.021026  
1055.000000	0.020943  
1054.000000	0.020889  
1053.000000	0.020825  
1052.000000	0.020769  
1051.000000	0.020747  
1050.000000	0.020740  
1049.000000	0.020691  
1048.000000	0.020574  
1047.000000	0.020446  
1046.000000	0.020423  
1045.000000	0.020579  
1044.000000	0.020872  
1043.000000	0.021168  
1042.000000	0.021356  
1041.000000	0.021430  
1040.000000	0.021442  
1039.000000	0.021405  
1038.000000	0.021287  
1037.000000	0.021080  
1036.000000	0.020848  
1035.000000	0.020662  
1034.000000	0.020515  
1033.000000	0.020341  
1032.000000	0.020096  
1031.000000	0.019804  
1030.000000	0.019513  
1029.000000	0.019242  
1028.000000	0.018986  
1027.000000	0.018752  
1026.000000	0.018548  
1025.000000	0.018374  
1024.000000	0.018203  
1023.000000	0.017995  
1022.000000	0.017703  
1021.000000	0.017308  
1020.000000	0.016830  
1019.000000	0.016328  
1018.000000	0.015862  
1017.000000	0.015473  
1016.000000	0.015174  
1015.000000	0.014953  
1014.000000	0.014774  
1013.000000	0.014608  
1012.000000	0.014447  
1011.000000	0.014290  
1010.000000	0.014116  
1009.000000	0.013917  
1008.000000	0.013745  
1007.000000	0.013663  
1006.000000	0.013658  
1005.000000	0.013651  
1004.000000	0.013590  
1003.000000	0.013506  
1002.000000	0.013434  
1001.000000	0.013357  
1000.000000	0.013254  
999.000000	 0.013158  
998.000000	 0.013119  
997.000000	 0.013131  
996.000000	 0.013145  
995.000000	 0.013138  
994.000000	 0.013119  
993.000000	 0.013073  
992.000000	 0.012967  
991.000000	 0.012807  
990.000000	 0.012657  
989.000000	 0.012569  
988.000000	 0.012531  
987.000000	 0.012502  
986.000000	 0.012467  
985.000000	 0.012443  
984.000000	 0.012451  
983.000000	 0.012501  
982.000000	 0.012607  
981.000000	 0.012783  
980.000000	 0.013022  
979.000000	 0.013297  
978.000000	 0.013573  
977.000000	 0.013842  
976.000000	 0.014117  
975.000000	 0.014408  
974.000000	 0.014689  
973.000000	 0.014916  
972.000000	 0.015076  
971.000000	 0.015197  
970.000000	 0.015310  
969.000000	 0.015400  
968.000000	 0.015413  
967.000000	 0.015311  
966.000000	 0.015103  
965.000000	 0.014834  
964.000000	 0.014551  
963.000000	 0.014291  
962.000000	 0.014074  
961.000000	 0.013901  
960.000000	 0.013758  
959.000000	 0.013623  
958.000000	 0.013483  
957.000000	 0.013343  
956.000000	 0.013226  
955.000000	 0.013148  
954.000000	 0.013105  
953.000000	 0.013082  
952.000000	 0.013066  
951.000000	 0.013058  
950.000000	 0.013061  
949.000000	 0.013074  
948.000000	 0.013094  
947.000000	 0.013105  
946.000000	 0.013072  
945.000000	 0.012970  
944.000000	 0.012825  
943.000000	 0.012704  
942.000000	 0.012645  
941.000000	 0.012610  
940.000000	 0.012518  
939.000000	 0.012326  
938.000000	 0.012050  
937.000000	 0.011744  
936.000000	 0.011467  
935.000000	 0.011257  
934.000000	 0.011126  
933.000000	 0.011065  
932.000000	 0.011051  
931.000000	 0.011048  
930.000000	 0.011012  
929.000000	 0.010941  
928.000000	 0.010913  
927.000000	 0.011009  
926.000000	 0.011205  
925.000000	 0.011373  
924.000000	 0.011429  
923.000000	 0.011433  
922.000000	 0.011494  
921.000000	 0.011631  
920.000000	 0.011780  
919.000000	 0.011898  
918.000000	 0.011985  
917.000000	 0.012017  
916.000000	 0.011948  
915.000000	 0.011793  
914.000000	 0.011639  
913.000000	 0.011543  
912.000000	 0.011463  
911.000000	 0.011336  
910.000000	 0.011161  
909.000000	 0.010985  
908.000000	 0.010823  
907.000000	 0.010658  
906.000000	 0.010488  
905.000000	 0.010325  
904.000000	 0.010179  
903.000000	 0.010073  
902.000000	 0.010062  
901.000000	 0.010173  
900.000000	 0.010341  
899.000000	 0.010448  
898.000000	 0.010448  
897.000000	 0.010405  
896.000000	 0.010406  
895.000000	 0.010460  
894.000000	 0.010522  
893.000000	 0.010573  
892.000000	 0.010636  
891.000000	 0.010720  
890.000000	 0.010807  
889.000000	 0.010877  
888.000000	 0.010917  
887.000000	 0.010914  
886.000000	 0.010861  
885.000000	 0.010791  
884.000000	 0.010774  
883.000000	 0.010846  
882.000000	 0.010966  
881.000000	 0.011048  
880.000000	 0.011044  
879.000000	 0.010984  
878.000000	 0.010955  
877.000000	 0.011021  
876.000000	 0.011172  
875.000000	 0.011322  
874.000000	 0.011395  
873.000000	 0.011391  
872.000000	 0.011371  
871.000000	 0.011374  
870.000000	 0.011398  
869.000000	 0.011450  
868.000000	 0.011558  
867.000000	 0.011707  
866.000000	 0.011797  
865.000000	 0.011736  
864.000000	 0.011555  
863.000000	 0.011384  
862.000000	 0.011319  
861.000000	 0.011328  
860.000000	 0.011325  
859.000000	 0.011286  
858.000000	 0.011288  
857.000000	 0.011427  
856.000000	 0.011711  
855.000000	 0.012038  
854.000000	 0.012303  
853.000000	 0.012505  
852.000000	 0.012744  
851.000000	 0.013078  
850.000000	 0.013438  
849.000000	 0.013716  
848.000000	 0.013890  
847.000000	 0.014027  
846.000000	 0.014170  
845.000000	 0.014287  
844.000000	 0.014338  
843.000000	 0.014338  
842.000000	 0.014321  
841.000000	 0.014277  
840.000000	 0.014157  
839.000000	 0.013942  
838.000000	 0.013668  
837.000000	 0.013402  
836.000000	 0.013175  
835.000000	 0.012960  
834.000000	 0.012706  
833.000000	 0.012428  
832.000000	 0.012226  
831.000000	 0.012187  
830.000000	 0.012254  
829.000000	 0.012254  
828.000000	 0.012098  
827.000000	 0.011902  
826.000000	 0.011858  
825.000000	 0.012012  
824.000000	 0.012237  
823.000000	 0.012416  
822.000000	 0.012536  
821.000000	 0.012606  
820.000000	 0.012589  
819.000000	 0.012462  
818.000000	 0.012313  
817.000000	 0.012303  
816.000000	 0.012512  
815.000000	 0.012830  
814.000000	 0.013036  
813.000000	 0.013009  
812.000000	 0.012835  
811.000000	 0.012694  
810.000000	 0.012674  
809.000000	 0.012746  
808.000000	 0.012888  
807.000000	 0.013153  
806.000000	 0.013540  
805.000000	 0.013890  
804.000000	 0.013975  
803.000000	 0.013699  
802.000000	 0.013191  
801.000000	 0.012664  
800.000000	 0.012245  
799.000000	 0.011929  
798.000000	 0.011673  
797.000000	 0.011481  
796.000000	 0.011374  
795.000000	 0.011323  
794.000000	 0.011253  
793.000000	 0.011151  
792.000000	 0.011110  
791.000000	 0.011235  
790.000000	 0.011509  
789.000000	 0.011811  
788.000000	 0.012066  
787.000000	 0.012310  
786.000000	 0.012610  
785.000000	 0.012975  
784.000000	 0.013373  
783.000000	 0.013786  
782.000000	 0.014197  
781.000000	 0.014556  
780.000000	 0.014821  
779.000000	 0.014995  
778.000000	 0.015129  
777.000000	 0.015292  
776.000000	 0.015561  
775.000000	 0.015983  
774.000000	 0.016510  
773.000000	 0.017003  
772.000000	 0.017362  
771.000000	 0.017629  
770.000000	 0.017918  
769.000000	 0.018271  
768.000000	 0.018633  
767.000000	 0.018960  
766.000000	 0.019258  
765.000000	 0.019519  
764.000000	 0.019677  
763.000000	 0.019675  
762.000000	 0.019546  
761.000000	 0.019379  
760.000000	 0.019254  
759.000000	 0.019217  
758.000000	 0.019296  
757.000000	 0.019512  
756.000000	 0.019867  
755.000000	 0.020329  
754.000000	 0.020813  
753.000000	 0.021201  
752.000000	 0.021439  
751.000000	 0.021617  
750.000000	 0.021900  
749.000000	 0.022363  
748.000000	 0.022957  
747.000000	 0.023656  
746.000000	 0.024565  
745.000000	 0.025797  
744.000000	 0.027282  
743.000000	 0.028764  
742.000000	 0.030004  
741.000000	 0.030936  
740.000000	 0.031631  
739.000000	 0.032184  
738.000000	 0.032656  
737.000000	 0.033079  
736.000000	 0.033466  
735.000000	 0.033840  
734.000000	 0.034234  
733.000000	 0.034682  
732.000000	 0.035211  
731.000000	 0.035864  
730.000000	 0.036690  
729.000000	 0.037690  
728.000000	 0.038803  
727.000000	 0.039989  
726.000000	 0.041241  
725.000000	 0.042480  
724.000000	 0.043469  
723.000000	 0.043921  
722.000000	 0.043692  
721.000000	 0.042853  
720.000000	 0.041592  
719.000000	 0.040073  
718.000000	 0.038397  
717.000000	 0.036679  
716.000000	 0.035089  
715.000000	 0.033779  
714.000000	 0.032806  
713.000000	 0.032096  
712.000000	 0.031501  
711.000000	 0.030879  
710.000000	 0.030184  
709.000000	 0.029505  
708.000000	 0.028991  
707.000000	 0.028698  
706.000000	 0.028530  
705.000000	 0.028377  
704.000000	 0.028272  
703.000000	 0.028329  
702.000000	 0.028530  
701.000000	 0.028688  
700.000000	 0.028622  
699.000000	 0.028298  
698.000000	 0.027763  
697.000000	 0.027030  
696.000000	 0.026130  
695.000000	 0.025192  
694.000000	 0.024408  
693.000000	 0.023869  
692.000000	 0.023503  
691.000000	 0.023178  
690.000000	 0.022824  
689.000000	 0.022441  
688.000000	 0.022049  
687.000000	 0.021615  
686.000000	 0.021089  
685.000000	 0.020486  
684.000000	 0.019896  
683.000000	 0.019400  
682.000000	 0.018987  
681.000000	 0.018594  
680.000000	 0.018232  
679.000000	 0.018009  
678.000000	 0.017960  
677.000000	 0.017928  
676.000000	 0.017741  
675.000000	 0.017359  
674.000000	 0.016878  
673.000000	 0.016466  
672.000000	 0.016321  
671.000000	 0.016646  
670.000000	 0.017579  
669.000000	 0.018895  
668.000000	 0.019134  
667.000000	 0.017358  
666.000000	 0.015632  
665.000000	 0.014976  
664.000000	 0.014819  
663.000000	 0.014598  
662.000000	 0.014154  
661.000000	 0.013755  
660.000000	 0.013573  
659.000000	 0.013767  
658.000000	 0.013782  
657.000000	 0.014035  
656.000000	 0.013212  
655.000000	 0.009532  
654.000000	 0.009515  
653.000000	 0.008902  
652.000000	 0.008774  
651.000000	 0.008844  
650.000000	 0.009117  

