PE IR                   SPECTRUM    ASCII       PEDS        1.60        
  -1
NB420~1.ASC
17/05/24
07:47:47.00
17/05/24
07:47:47.00
Admin

650.000000
4









SPECTRUM ONE,CPU32 MAIN 00.02.6000 25-JUNE-2003 12:00:00
MIR TGS
MIR
OPTKBR
68128
0.200000

4.000000
STRONG
RATIO
SPECTRUM
MAGNITUDE
UNIVERSAL ATR
DOUBLE

COMBINED


0


#HDR
-1
-1
#GR
CM-1
A
0.00000011920928955078
0.0
4000.000000
-1.000000
3351
8
0.196869
-0.002178
#DATA
4000.000000	0.002694  
3999.000000	0.002689  
3998.000000	0.002673  
3997.000000	0.002615  
3996.000000	0.002496  
3995.000000	0.002326  
3994.000000	0.002137  
3993.000000	0.001969  
3992.000000	0.001859  
3991.000000	0.001830  
3990.000000	0.001896  
3989.000000	0.002044  
3988.000000	0.002229  
3987.000000	0.002389  
3986.000000	0.002479  
3985.000000	0.002486  
3984.000000	0.002429  
3983.000000	0.002342  
3982.000000	0.002247  
3981.000000	0.002144  
3980.000000	0.002023  
3979.000000	0.001880  
3978.000000	0.001738  
3977.000000	0.001632  
3976.000000	0.001592  
3975.000000	0.001624  
3974.000000	0.001729  
3973.000000	0.001895  
3972.000000	0.002081  
3971.000000	0.002219  
3970.000000	0.002260  
3969.000000	0.002214  
3968.000000	0.002142  
3967.000000	0.002096  
3966.000000	0.002088  
3965.000000	0.002098  
3964.000000	0.002103  
3963.000000	0.002093  
3962.000000	0.002077  
3961.000000	0.002064  
3960.000000	0.002049  
3959.000000	0.002018  
3958.000000	0.001970  
3957.000000	0.001940  
3956.000000	0.001964  
3955.000000	0.002031  
3954.000000	0.002074  
3953.000000	0.002015  
3952.000000	0.001839  
3951.000000	0.001616  
3950.000000	0.001462  
3949.000000	0.001448  
3948.000000	0.001540  
3947.000000	0.001652  
3946.000000	0.001717  
3945.000000	0.001719  
3944.000000	0.001678  
3943.000000	0.001646  
3942.000000	0.001685  
3941.000000	0.001811  
3940.000000	0.001968  
3939.000000	0.002070  
3938.000000	0.002070  
3937.000000	0.002003  
3936.000000	0.001943  
3935.000000	0.001926  
3934.000000	0.001926  
3933.000000	0.001906  
3932.000000	0.001884  
3931.000000	0.001912  
3930.000000	0.001995  
3929.000000	0.002095  
3928.000000	0.002178  
3927.000000	0.002212  
3926.000000	0.002149  
3925.000000	0.001983  
3924.000000	0.001779  
3923.000000	0.001600  
3922.000000	0.001454  
3921.000000	0.001337  
3920.000000	0.001297  
3919.000000	0.001386  
3918.000000	0.001571  
3917.000000	0.001759  
3916.000000	0.001917  
3915.000000	0.002082  
3914.000000	0.002273  
3913.000000	0.002450  
3912.000000	0.002553  
3911.000000	0.002544  
3910.000000	0.002413  
3909.000000	0.002178  
3908.000000	0.001895  
3907.000000	0.001654  
3906.000000	0.001529  
3905.000000	0.001512  
3904.000000	0.001523  
3903.000000	0.001497  
3902.000000	0.001458  
3901.000000	0.001475  
3900.000000	0.001585  
3899.000000	0.001762  
3898.000000	0.001933  
3897.000000	0.002016  
3896.000000	0.001979  
3895.000000	0.001884  
3894.000000	0.001831  
3893.000000	0.001843  
3892.000000	0.001809  
3891.000000	0.001663  
3890.000000	0.001507  
3889.000000	0.001482  
3888.000000	0.001579  
3887.000000	0.001610  
3886.000000	0.001427  
3885.000000	0.001170  
3884.000000	0.001103  
3883.000000	0.001310  
3882.000000	0.001643  
3881.000000	0.001879  
3880.000000	0.001938  
3879.000000	0.001932  
3878.000000	0.001986  
3877.000000	0.002099  
3876.000000	0.002154  
3875.000000	0.002043  
3874.000000	0.001832  
3873.000000	0.001719  
3872.000000	0.001769  
3871.000000	0.001800  
3870.000000	0.001667  
3869.000000	0.001519  
3868.000000	0.001566  
3867.000000	0.001769  
3866.000000	0.001903  
3865.000000	0.001859  
3864.000000	0.001741  
3863.000000	0.001662  
3862.000000	0.001601  
3861.000000	0.001519  
3860.000000	0.001398  
3859.000000	0.001230  
3858.000000	0.001027  
3857.000000	0.000891  
3856.000000	0.000966  
3855.000000	0.001177  
3854.000000	0.001225  
3853.000000	0.001200  
3852.000000	0.001384  
3851.000000	0.001754  
3850.000000	0.002099  
3849.000000	0.002281  
3848.000000	0.002296  
3847.000000	0.002200  
3846.000000	0.002040  
3845.000000	0.001877  
3844.000000	0.001803  
3843.000000	0.001934  
3842.000000	0.002307  
3841.000000	0.002767  
3840.000000	0.003006  
3839.000000	0.002854  
3838.000000	0.002497  
3837.000000	0.002244  
3836.000000	0.002203  
3835.000000	0.002266  
3834.000000	0.002262  
3833.000000	0.002099  
3832.000000	0.001841  
3831.000000	0.001665  
3830.000000	0.001705  
3829.000000	0.001948  
3828.000000	0.002203  
3827.000000	0.002258  
3826.000000	0.002094  
3825.000000	0.001924  
3824.000000	0.001953  
3823.000000	0.002126  
3822.000000	0.002132  
3821.000000	0.001894  
3820.000000	0.001727  
3819.000000	0.001887  
3818.000000	0.002276  
3817.000000	0.002545  
3816.000000	0.002497  
3815.000000	0.002313  
3814.000000	0.002208  
3813.000000	0.002139  
3812.000000	0.001982  
3811.000000	0.001777  
3810.000000	0.001702  
3809.000000	0.001811  
3808.000000	0.001898  
3807.000000	0.001813  
3806.000000	0.001748  
3805.000000	0.002000  
3804.000000	0.002565  
3803.000000	0.003011  
3802.000000	0.002858  
3801.000000	0.002271  
3800.000000	0.001836  
3799.000000	0.001809  
3798.000000	0.002002  
3797.000000	0.002109  
3796.000000	0.002014  
3795.000000	0.001837  
3794.000000	0.001711  
3793.000000	0.001653  
3792.000000	0.001625  
3791.000000	0.001603  
3790.000000	0.001586  
3789.000000	0.001603  
3788.000000	0.001709  
3787.000000	0.001917  
3786.000000	0.002129  
3785.000000	0.002202  
3784.000000	0.002116  
3783.000000	0.002010  
3782.000000	0.002006  
3781.000000	0.002055  
3780.000000	0.002015  
3779.000000	0.001865  
3778.000000	0.001730  
3777.000000	0.001690  
3776.000000	0.001676  
3775.000000	0.001592  
3774.000000	0.001468  
3773.000000	0.001421  
3772.000000	0.001456  
3771.000000	0.001429  
3770.000000	0.001266  
3769.000000	0.001118  
3768.000000	0.001165  
3767.000000	0.001381  
3766.000000	0.001566  
3765.000000	0.001595  
3764.000000	0.001550  
3763.000000	0.001567  
3762.000000	0.001661  
3761.000000	0.001769  
3760.000000	0.001886  
3759.000000	0.002033  
3758.000000	0.002151  
3757.000000	0.002182  
3756.000000	0.002166  
3755.000000	0.002190  
3754.000000	0.002252  
3753.000000	0.002238  
3752.000000	0.002077  
3751.000000	0.001902  
3750.000000	0.001819  
3749.000000	0.001757  
3748.000000	0.001703  
3747.000000	0.001679  
3746.000000	0.001562  
3745.000000	0.001180  
3744.000000	0.000776  
3743.000000	0.000714  
3742.000000	0.000888  
3741.000000	0.000981  
3740.000000	0.000901  
3739.000000	0.000849  
3738.000000	0.001023  
3737.000000	0.001316  
3736.000000	0.001450  
3735.000000	0.001397  
3734.000000	0.001364  
3733.000000	0.001360  
3732.000000	0.001244  
3731.000000	0.001010  
3730.000000	0.000784  
3729.000000	0.000642  
3728.000000	0.000538  
3727.000000	0.000393  
3726.000000	0.000239  
3725.000000	0.000190  
3724.000000	0.000306  
3723.000000	0.000553  
3722.000000	0.000844  
3721.000000	0.001086  
3720.000000	0.001199  
3719.000000	0.001138  
3718.000000	0.000922  
3717.000000	0.000675  
3716.000000	0.000568  
3715.000000	0.000675  
3714.000000	0.000884  
3713.000000	0.000990  
3712.000000	0.000968  
3711.000000	0.001015  
3710.000000	0.001178  
3709.000000	0.001316  
3708.000000	0.001350  
3707.000000	0.001317  
3706.000000	0.001314  
3705.000000	0.001409  
3704.000000	0.001585  
3703.000000	0.001746  
3702.000000	0.001789  
3701.000000	0.001696  
3700.000000	0.001533  
3699.000000	0.001379  
3698.000000	0.001266  
3697.000000	0.001217  
3696.000000	0.001279  
3695.000000	0.001477  
3694.000000	0.001778  
3693.000000	0.002124  
3692.000000	0.002441  
3691.000000	0.002593  
3690.000000	0.002438  
3689.000000	0.002042  
3688.000000	0.001691  
3687.000000	0.001603  
3686.000000	0.001732  
3685.000000	0.001852  
3684.000000	0.001800  
3683.000000	0.001598  
3682.000000	0.001374  
3681.000000	0.001202  
3680.000000	0.001139  
3679.000000	0.001341  
3678.000000	0.001953  
3677.000000	0.002703  
3676.000000	0.002944  
3675.000000	0.002542  
3674.000000	0.002065  
3673.000000	0.001959  
3672.000000	0.002198  
3671.000000	0.002485  
3670.000000	0.002561  
3669.000000	0.002422  
3668.000000	0.002205  
3667.000000	0.001989  
3666.000000	0.001794  
3665.000000	0.001665  
3664.000000	0.001646  
3663.000000	0.001710  
3662.000000	0.001747  
3661.000000	0.001664  
3660.000000	0.001482  
3659.000000	0.001289  
3658.000000	0.001150  
3657.000000	0.001067  
3656.000000	0.001065  
3655.000000	0.001180  
3654.000000	0.001395  
3653.000000	0.001639  
3652.000000	0.001830  
3651.000000	0.001976  
3650.000000	0.002315  
3649.000000	0.002918  
3648.000000	0.003335  
3647.000000	0.003332  
3646.000000	0.003105  
3645.000000	0.002858  
3644.000000	0.002635  
3643.000000	0.002418  
3642.000000	0.002238  
3641.000000	0.002162  
3640.000000	0.002180  
3639.000000	0.002168  
3638.000000	0.002024  
3637.000000	0.001782  
3636.000000	0.001533  
3635.000000	0.001293  
3634.000000	0.001033  
3633.000000	0.000805  
3632.000000	0.000769  
3631.000000	0.001061  
3630.000000	0.001544  
3629.000000	0.001892  
3628.000000	0.002013  
3627.000000	0.002047  
3626.000000	0.002049  
3625.000000	0.002004  
3624.000000	0.001970  
3623.000000	0.002062  
3622.000000	0.002323  
3621.000000	0.002612  
3620.000000	0.002698  
3619.000000	0.002517  
3618.000000	0.002232  
3617.000000	0.001993  
3616.000000	0.001804  
3615.000000	0.001596  
3614.000000	0.001339  
3613.000000	0.001098  
3612.000000	0.000988  
3611.000000	0.001085  
3610.000000	0.001370  
3609.000000	0.001761  
3608.000000	0.002161  
3607.000000	0.002511  
3606.000000	0.002785  
3605.000000	0.002978  
3604.000000	0.003098  
3603.000000	0.003151  
3602.000000	0.003130  
3601.000000	0.003022  
3600.000000	0.002862  
3599.000000	0.002702  
3598.000000	0.002589  
3597.000000	0.002542  
3596.000000	0.002555  
3595.000000	0.002594  
3594.000000	0.002623  
3593.000000	0.002613  
3592.000000	0.002548  
3591.000000	0.002443  
3590.000000	0.002354  
3589.000000	0.002352  
3588.000000	0.002511  
3587.000000	0.002863  
3586.000000	0.003309  
3585.000000	0.003682  
3584.000000	0.003866  
3583.000000	0.003855  
3582.000000	0.003755  
3581.000000	0.003713  
3580.000000	0.003807  
3579.000000	0.003984  
3578.000000	0.004112  
3577.000000	0.004109  
3576.000000	0.004017  
3575.000000	0.003939  
3574.000000	0.003924  
3573.000000	0.003922  
3572.000000	0.003858  
3571.000000	0.003724  
3570.000000	0.003594  
3569.000000	0.003559  
3568.000000	0.003688  
3567.000000	0.003999  
3566.000000	0.004383  
3565.000000	0.004655  
3564.000000	0.004718  
3563.000000	0.004610  
3562.000000	0.004467  
3561.000000	0.004435  
3560.000000	0.004555  
3559.000000	0.004746  
3558.000000	0.004880  
3557.000000	0.004893  
3556.000000	0.004830  
3555.000000	0.004796  
3554.000000	0.004846  
3553.000000	0.004929  
3552.000000	0.004945  
3551.000000	0.004862  
3550.000000	0.004738  
3549.000000	0.004673  
3548.000000	0.004743  
3547.000000	0.004947  
3546.000000	0.005175  
3545.000000	0.005294  
3544.000000	0.005266  
3543.000000	0.005179  
3542.000000	0.005148  
3541.000000	0.005226  
3540.000000	0.005371  
3539.000000	0.005495  
3538.000000	0.005533  
3537.000000	0.005495  
3536.000000	0.005443  
3535.000000	0.005423  
3534.000000	0.005422  
3533.000000	0.005388  
3532.000000	0.005306  
3531.000000	0.005223  
3530.000000	0.005211  
3529.000000	0.005291  
3528.000000	0.005408  
3527.000000	0.005480  
3526.000000	0.005470  
3525.000000	0.005407  
3524.000000	0.005364  
3523.000000	0.005417  
3522.000000	0.005583  
3521.000000	0.005799  
3520.000000	0.005960  
3519.000000	0.005992  
3518.000000	0.005914  
3517.000000	0.005820  
3516.000000	0.005799  
3515.000000	0.005864  
3514.000000	0.005969  
3513.000000	0.006090  
3512.000000	0.006261  
3511.000000	0.006514  
3510.000000	0.006797  
3509.000000	0.006979  
3508.000000	0.006976  
3507.000000	0.006831  
3506.000000	0.006657  
3505.000000	0.006541  
3504.000000	0.006486  
3503.000000	0.006443  
3502.000000	0.006395  
3501.000000	0.006392  
3500.000000	0.006494  
3499.000000	0.006695  
3498.000000	0.006934  
3497.000000	0.007138  
3496.000000	0.007272  
3495.000000	0.007344  
3494.000000	0.007391  
3493.000000	0.007476  
3492.000000	0.007661  
3491.000000	0.007929  
3490.000000	0.008145  
3489.000000	0.008151  
3488.000000	0.007939  
3487.000000	0.007690  
3486.000000	0.007599  
3485.000000	0.007691  
3484.000000	0.007830  
3483.000000	0.007868  
3482.000000	0.007767  
3481.000000	0.007601  
3480.000000	0.007477  
3479.000000	0.007470  
3478.000000	0.007608  
3477.000000	0.007880  
3476.000000	0.008241  
3475.000000	0.008609  
3474.000000	0.008869  
3473.000000	0.008931  
3472.000000	0.008804  
3471.000000	0.008614  
3470.000000	0.008500  
3469.000000	0.008495  
3468.000000	0.008525  
3467.000000	0.008530  
3466.000000	0.008534  
3465.000000	0.008594  
3464.000000	0.008707  
3463.000000	0.008816  
3462.000000	0.008878  
3461.000000	0.008891  
3460.000000	0.008882  
3459.000000	0.008872  
3458.000000	0.008885  
3457.000000	0.008931  
3456.000000	0.008994  
3455.000000	0.009036  
3454.000000	0.009028  
3453.000000	0.008982  
3452.000000	0.008962  
3451.000000	0.009040  
3450.000000	0.009242  
3449.000000	0.009509  
3448.000000	0.009727  
3447.000000	0.009812  
3446.000000	0.009768  
3445.000000	0.009651  
3444.000000	0.009530  
3443.000000	0.009471  
3442.000000	0.009517  
3441.000000	0.009660  
3440.000000	0.009837  
3439.000000	0.009977  
3438.000000	0.010047  
3437.000000	0.010043  
3436.000000	0.009967  
3435.000000	0.009839  
3434.000000	0.009714  
3433.000000	0.009664  
3432.000000	0.009733  
3431.000000	0.009906  
3430.000000	0.010112  
3429.000000	0.010269  
3428.000000	0.010326  
3427.000000	0.010298  
3426.000000	0.010252  
3425.000000	0.010262  
3424.000000	0.010358  
3423.000000	0.010500  
3422.000000	0.010609  
3421.000000	0.010620  
3420.000000	0.010535  
3419.000000	0.010407  
3418.000000	0.010301  
3417.000000	0.010263  
3416.000000	0.010318  
3415.000000	0.010464  
3414.000000	0.010654  
3413.000000	0.010800  
3412.000000	0.010830  
3411.000000	0.010745  
3410.000000	0.010609  
3409.000000	0.010504  
3408.000000	0.010497  
3407.000000	0.010626  
3406.000000	0.010874  
3405.000000	0.011156  
3404.000000	0.011351  
3403.000000	0.011376  
3402.000000	0.011236  
3401.000000	0.011013  
3400.000000	0.010815  
3399.000000	0.010722  
3398.000000	0.010738  
3397.000000	0.010790  
3396.000000	0.010791  
3395.000000	0.010732  
3394.000000	0.010689  
3393.000000	0.010749  
3392.000000	0.010927  
3391.000000	0.011143  
3390.000000	0.011288  
3389.000000	0.011292  
3388.000000	0.011188  
3387.000000	0.011100  
3386.000000	0.011150  
3385.000000	0.011339  
3384.000000	0.011542  
3383.000000	0.011644  
3382.000000	0.011650  
3381.000000	0.011645  
3380.000000	0.011669  
3379.000000	0.011679  
3378.000000	0.011622  
3377.000000	0.011512  
3376.000000	0.011401  
3375.000000	0.011319  
3374.000000	0.011251  
3373.000000	0.011185  
3372.000000	0.011159  
3371.000000	0.011235  
3370.000000	0.011427  
3369.000000	0.011661  
3368.000000	0.011813  
3367.000000	0.011808  
3366.000000	0.011676  
3365.000000	0.011507  
3364.000000	0.011387  
3363.000000	0.011350  
3362.000000	0.011392  
3361.000000	0.011474  
3360.000000	0.011549  
3359.000000	0.011590  
3358.000000	0.011612  
3357.000000	0.011645  
3356.000000	0.011690  
3355.000000	0.011711  
3354.000000	0.011664  
3353.000000	0.011547  
3352.000000	0.011408  
3351.000000	0.011326  
3350.000000	0.011351  
3349.000000	0.011462  
3348.000000	0.011575  
3347.000000	0.011624  
3346.000000	0.011612  
3345.000000	0.011603  
3344.000000	0.011645  
3343.000000	0.011734  
3342.000000	0.011832  
3341.000000	0.011902  
3340.000000	0.011923  
3339.000000	0.011887  
3338.000000	0.011803  
3337.000000	0.011699  
3336.000000	0.011618  
3335.000000	0.011592  
3334.000000	0.011622  
3333.000000	0.011673  
3332.000000	0.011694  
3331.000000	0.011645  
3330.000000	0.011517  
3329.000000	0.011344  
3328.000000	0.011194  
3327.000000	0.011144  
3326.000000	0.011235  
3325.000000	0.011439  
3324.000000	0.011677  
3323.000000	0.011860  
3322.000000	0.011936  
3321.000000	0.011907  
3320.000000	0.011830  
3319.000000	0.011779  
3318.000000	0.011783  
3317.000000	0.011793  
3316.000000	0.011743  
3315.000000	0.011630  
3314.000000	0.011518  
3313.000000	0.011459  
3312.000000	0.011446  
3311.000000	0.011458  
3310.000000	0.011503  
3309.000000	0.011587  
3308.000000	0.011668  
3307.000000	0.011678  
3306.000000	0.011586  
3305.000000	0.011424  
3304.000000	0.011245  
3303.000000	0.011100  
3302.000000	0.011022  
3301.000000	0.011013  
3300.000000	0.011027  
3299.000000	0.010999  
3298.000000	0.010904  
3297.000000	0.010776  
3296.000000	0.010664  
3295.000000	0.010596  
3294.000000	0.010568  
3293.000000	0.010574  
3292.000000	0.010614  
3291.000000	0.010681  
3290.000000	0.010747  
3289.000000	0.010760  
3288.000000	0.010693  
3287.000000	0.010583  
3286.000000	0.010516  
3285.000000	0.010536  
3284.000000	0.010596  
3283.000000	0.010605  
3282.000000	0.010524  
3281.000000	0.010399  
3280.000000	0.010299  
3279.000000	0.010247  
3278.000000	0.010215  
3277.000000	0.010169  
3276.000000	0.010111  
3275.000000	0.010086  
3274.000000	0.010149  
3273.000000	0.010291  
3272.000000	0.010424  
3271.000000	0.010445  
3270.000000	0.010331  
3269.000000	0.010153  
3268.000000	0.009999  
3267.000000	0.009897  
3266.000000	0.009816  
3265.000000	0.009720  
3264.000000	0.009600  
3263.000000	0.009478  
3262.000000	0.009397  
3261.000000	0.009392  
3260.000000	0.009449  
3259.000000	0.009513  
3258.000000	0.009538  
3257.000000	0.009521  
3256.000000	0.009475  
3255.000000	0.009388  
3254.000000	0.009256  
3253.000000	0.009119  
3252.000000	0.009046  
3251.000000	0.009074  
3250.000000	0.009176  
3249.000000	0.009297  
3248.000000	0.009399  
3247.000000	0.009455  
3246.000000	0.009450  
3245.000000	0.009388  
3244.000000	0.009289  
3243.000000	0.009166  
3242.000000	0.009001  
3241.000000	0.008776  
3240.000000	0.008525  
3239.000000	0.008329  
3238.000000	0.008264  
3237.000000	0.008317  
3236.000000	0.008397  
3235.000000	0.008416  
3234.000000	0.008371  
3233.000000	0.008326  
3232.000000	0.008331  
3231.000000	0.008372  
3230.000000	0.008402  
3229.000000	0.008418  
3228.000000	0.008459  
3227.000000	0.008550  
3226.000000	0.008645  
3225.000000	0.008670  
3224.000000	0.008595  
3223.000000	0.008460  
3222.000000	0.008321  
3221.000000	0.008203  
3220.000000	0.008113  
3219.000000	0.008070  
3218.000000	0.008080  
3217.000000	0.008088  
3216.000000	0.008001  
3215.000000	0.007808  
3214.000000	0.007619  
3213.000000	0.007554  
3212.000000	0.007605  
3211.000000	0.007649  
3210.000000	0.007598  
3209.000000	0.007483  
3208.000000	0.007399  
3207.000000	0.007397  
3206.000000	0.007458  
3205.000000	0.007540  
3204.000000	0.007608  
3203.000000	0.007646  
3202.000000	0.007651  
3201.000000	0.007631  
3200.000000	0.007585  
3199.000000	0.007513  
3198.000000	0.007433  
3197.000000	0.007376  
3196.000000	0.007346  
3195.000000	0.007303  
3194.000000	0.007222  
3193.000000	0.007138  
3192.000000	0.007108  
3191.000000	0.007140  
3190.000000	0.007178  
3189.000000	0.007164  
3188.000000	0.007077  
3187.000000	0.006939  
3186.000000	0.006792  
3185.000000	0.006689  
3184.000000	0.006676  
3183.000000	0.006760  
3182.000000	0.006896  
3181.000000	0.007004  
3180.000000	0.007013  
3179.000000	0.006892  
3178.000000	0.006671  
3177.000000	0.006430  
3176.000000	0.006245  
3175.000000	0.006150  
3174.000000	0.006124  
3173.000000	0.006129  
3172.000000	0.006142  
3171.000000	0.006146  
3170.000000	0.006121  
3169.000000	0.006059  
3168.000000	0.005999  
3167.000000	0.006011  
3166.000000	0.006128  
3165.000000	0.006294  
3164.000000	0.006386  
3163.000000	0.006312  
3162.000000	0.006091  
3161.000000	0.005838  
3160.000000	0.005676  
3159.000000	0.005646  
3158.000000	0.005697  
3157.000000	0.005736  
3156.000000	0.005718  
3155.000000	0.005682  
3154.000000	0.005697  
3153.000000	0.005776  
3152.000000	0.005844  
3151.000000	0.005813  
3150.000000	0.005685  
3149.000000	0.005564  
3148.000000	0.005554  
3147.000000	0.005651  
3146.000000	0.005750  
3145.000000	0.005738  
3144.000000	0.005585  
3143.000000	0.005348  
3142.000000	0.005118  
3141.000000	0.004968  
3140.000000	0.004925  
3139.000000	0.004970  
3138.000000	0.005058  
3137.000000	0.005155  
3136.000000	0.005257  
3135.000000	0.005362  
3134.000000	0.005444  
3133.000000	0.005450  
3132.000000	0.005360  
3131.000000	0.005222  
3130.000000	0.005121  
3129.000000	0.005100  
3128.000000	0.005134  
3127.000000	0.005166  
3126.000000	0.005165  
3125.000000	0.005134  
3124.000000	0.005089  
3123.000000	0.005041  
3122.000000	0.004997  
3121.000000	0.004958  
3120.000000	0.004924  
3119.000000	0.004905  
3118.000000	0.004911  
3117.000000	0.004930  
3116.000000	0.004920  
3115.000000	0.004856  
3114.000000	0.004773  
3113.000000	0.004739  
3112.000000	0.004768  
3111.000000	0.004801  
3110.000000	0.004766  
3109.000000	0.004656  
3108.000000	0.004531  
3107.000000	0.004456  
3106.000000	0.004452  
3105.000000	0.004489  
3104.000000	0.004530  
3103.000000	0.004555  
3102.000000	0.004573  
3101.000000	0.004601  
3100.000000	0.004641  
3099.000000	0.004672  
3098.000000	0.004672  
3097.000000	0.004637  
3096.000000	0.004588  
3095.000000	0.004553  
3094.000000	0.004539  
3093.000000	0.004535  
3092.000000	0.004525  
3091.000000	0.004503  
3090.000000	0.004478  
3089.000000	0.004466  
3088.000000	0.004472  
3087.000000	0.004484  
3086.000000	0.004489  
3085.000000	0.004484  
3084.000000	0.004476  
3083.000000	0.004473  
3082.000000	0.004469  
3081.000000	0.004454  
3080.000000	0.004425  
3079.000000	0.004394  
3078.000000	0.004387  
3077.000000	0.004425  
3076.000000	0.004515  
3075.000000	0.004631  
3074.000000	0.004720  
3073.000000	0.004736  
3072.000000	0.004679  
3071.000000	0.004603  
3070.000000	0.004573  
3069.000000	0.004626  
3068.000000	0.004759  
3067.000000	0.004922  
3066.000000	0.005035  
3065.000000	0.005025  
3064.000000	0.004895  
3063.000000	0.004732  
3062.000000	0.004637  
3061.000000	0.004629  
3060.000000	0.004651  
3059.000000	0.004644  
3058.000000	0.004610  
3057.000000	0.004584  
3056.000000	0.004591  
3055.000000	0.004628  
3054.000000	0.004684  
3053.000000	0.004751  
3052.000000	0.004821  
3051.000000	0.004890  
3050.000000	0.004951  
3049.000000	0.004983  
3048.000000	0.004969  
3047.000000	0.004928  
3046.000000	0.004915  
3045.000000	0.004973  
3044.000000	0.005092  
3043.000000	0.005219  
3042.000000	0.005307  
3041.000000	0.005328  
3040.000000	0.005282  
3039.000000	0.005211  
3038.000000	0.005199  
3037.000000	0.005313  
3036.000000	0.005531  
3035.000000	0.005755  
3034.000000	0.005903  
3033.000000	0.005976  
3032.000000	0.006036  
3031.000000	0.006122  
3030.000000	0.006227  
3029.000000	0.006332  
3028.000000	0.006439  
3027.000000	0.006571  
3026.000000	0.006739  
3025.000000	0.006929  
3024.000000	0.007122  
3023.000000	0.007327  
3022.000000	0.007593  
3021.000000	0.007962  
3020.000000	0.008429  
3019.000000	0.008942  
3018.000000	0.009448  
3017.000000	0.009922  
3016.000000	0.010356  
3015.000000	0.010739  
3014.000000	0.011063  
3013.000000	0.011343  
3012.000000	0.011601  
3011.000000	0.011834  
3010.000000	0.012014  
3009.000000	0.012115  
3008.000000	0.012148  
3007.000000	0.012132  
3006.000000	0.012065  
3005.000000	0.011921  
3004.000000	0.011696  
3003.000000	0.011432  
3002.000000	0.011193  
3001.000000	0.011011  
3000.000000	0.010882  
2999.000000	0.010785  
2998.000000	0.010718  
2997.000000	0.010692  
2996.000000	0.010717  
2995.000000	0.010791  
2994.000000	0.010911  
2993.000000	0.011079  
2992.000000	0.011300  
2991.000000	0.011589  
2990.000000	0.011977  
2989.000000	0.012494  
2988.000000	0.013139  
2987.000000	0.013864  
2986.000000	0.014620  
2985.000000	0.015410  
2984.000000	0.016291  
2983.000000	0.017317  
2982.000000	0.018495  
2981.000000	0.019813  
2980.000000	0.021308  
2979.000000	0.023050  
2978.000000	0.025056  
2977.000000	0.027263  
2976.000000	0.029608  
2975.000000	0.032152  
2974.000000	0.035059  
2973.000000	0.038458  
2972.000000	0.042329  
2971.000000	0.046549  
2970.000000	0.051024  
2969.000000	0.055759  
2968.000000	0.060794  
2967.000000	0.066100  
2966.000000	0.071547  
2965.000000	0.076975  
2964.000000	0.082283  
2963.000000	0.087410  
2962.000000	0.092256  
2961.000000	0.096663  
2960.000000	0.100499  
2959.000000	0.103717  
2958.000000	0.106313  
2957.000000	0.108240  
2956.000000	0.109394  
2955.000000	0.109677  
2954.000000	0.109077  
2953.000000	0.107700  
2952.000000	0.105753  
2951.000000	0.103498  
2950.000000	0.101194  
2949.000000	0.099068  
2948.000000	0.097304  
2947.000000	0.096037  
2946.000000	0.095356  
2945.000000	0.095327  
2944.000000	0.096032  
2943.000000	0.097566  
2942.000000	0.099978  
2941.000000	0.103217  
2940.000000	0.107173  
2939.000000	0.111751  
2938.000000	0.116897  
2937.000000	0.122535  
2936.000000	0.128528  
2935.000000	0.134741  
2934.000000	0.141113  
2933.000000	0.147653  
2932.000000	0.154354  
2931.000000	0.161112  
2930.000000	0.167740  
2929.000000	0.174054  
2928.000000	0.179926  
2927.000000	0.185246  
2926.000000	0.189835  
2925.000000	0.193446  
2924.000000	0.195844  
2923.000000	0.196869  
2922.000000	0.196455  
2921.000000	0.194656  
2920.000000	0.191669  
2919.000000	0.187789  
2918.000000	0.183297  
2917.000000	0.178395  
2916.000000	0.173213  
2915.000000	0.167858  
2914.000000	0.162450  
2913.000000	0.157130  
2912.000000	0.152027  
2911.000000	0.147210  
2910.000000	0.142671  
2909.000000	0.138367  
2908.000000	0.134272  
2907.000000	0.130384  
2906.000000	0.126688  
2905.000000	0.123136  
2904.000000	0.119670  
2903.000000	0.116275  
2902.000000	0.112994  
2901.000000	0.109867  
2900.000000	0.106864  
2899.000000	0.103881  
2898.000000	0.100833  
2897.000000	0.097729  
2896.000000	0.094639  
2895.000000	0.091624  
2894.000000	0.088705  
2893.000000	0.085888  
2892.000000	0.083184  
2891.000000	0.080591  
2890.000000	0.078105  
2889.000000	0.075741  
2888.000000	0.073555  
2887.000000	0.071618  
2886.000000	0.070014  
2885.000000	0.068824  
2884.000000	0.068111  
2883.000000	0.067906  
2882.000000	0.068228  
2881.000000	0.069122  
2880.000000	0.070642  
2879.000000	0.072783  
2878.000000	0.075439  
2877.000000	0.078426  
2876.000000	0.081527  
2875.000000	0.084499  
2874.000000	0.087083  
2873.000000	0.089071  
2872.000000	0.090394  
2871.000000	0.091142  
2870.000000	0.091503  
2869.000000	0.091680  
2868.000000	0.091858  
2867.000000	0.092217  
2866.000000	0.092946  
2865.000000	0.094234  
2864.000000	0.096214  
2863.000000	0.098900  
2862.000000	0.102193  
2861.000000	0.105931  
2860.000000	0.109934  
2859.000000	0.114003  
2858.000000	0.117907  
2857.000000	0.121388  
2856.000000	0.124146  
2855.000000	0.125810  
2854.000000	0.126008  
2853.000000	0.124532  
2852.000000	0.121456  
2851.000000	0.117049  
2850.000000	0.111615  
2849.000000	0.105440  
2848.000000	0.098854  
2847.000000	0.092213  
2846.000000	0.085803  
2845.000000	0.079744  
2844.000000	0.074009  
2843.000000	0.068506  
2842.000000	0.063173  
2841.000000	0.058039  
2840.000000	0.053208  
2839.000000	0.048792  
2838.000000	0.044834  
2837.000000	0.041309  
2836.000000	0.038179  
2835.000000	0.035425  
2834.000000	0.033020  
2833.000000	0.030890  
2832.000000	0.028942  
2831.000000	0.027134  
2830.000000	0.025489  
2829.000000	0.024049  
2828.000000	0.022799  
2827.000000	0.021676  
2826.000000	0.020615  
2825.000000	0.019595  
2824.000000	0.018628  
2823.000000	0.017745  
2822.000000	0.016972  
2821.000000	0.016320  
2820.000000	0.015770  
2819.000000	0.015279  
2818.000000	0.014797  
2817.000000	0.014297  
2816.000000	0.013792  
2815.000000	0.013313  
2814.000000	0.012886  
2813.000000	0.012514  
2812.000000	0.012184  
2811.000000	0.011877  
2810.000000	0.011573  
2809.000000	0.011253  
2808.000000	0.010924  
2807.000000	0.010616  
2806.000000	0.010360  
2805.000000	0.010147  
2804.000000	0.009941  
2803.000000	0.009715  
2802.000000	0.009482  
2801.000000	0.009269  
2800.000000	0.009081  
2799.000000	0.008907  
2798.000000	0.008752  
2797.000000	0.008640  
2796.000000	0.008572  
2795.000000	0.008519  
2794.000000	0.008441  
2793.000000	0.008328  
2792.000000	0.008194  
2791.000000	0.008051  
2790.000000	0.007897  
2789.000000	0.007721  
2788.000000	0.007519  
2787.000000	0.007306  
2786.000000	0.007104  
2785.000000	0.006940  
2784.000000	0.006820  
2783.000000	0.006720  
2782.000000	0.006596  
2781.000000	0.006423  
2780.000000	0.006229  
2779.000000	0.006075  
2778.000000	0.005997  
2777.000000	0.005976  
2776.000000	0.005953  
2775.000000	0.005888  
2774.000000	0.005790  
2773.000000	0.005694  
2772.000000	0.005615  
2771.000000	0.005535  
2770.000000	0.005431  
2769.000000	0.005304  
2768.000000	0.005186  
2767.000000	0.005104  
2766.000000	0.005055  
2765.000000	0.005018  
2764.000000	0.004982  
2763.000000	0.004960  
2762.000000	0.004955  
2761.000000	0.004937  
2760.000000	0.004869  
2759.000000	0.004753  
2758.000000	0.004635  
2757.000000	0.004560  
2756.000000	0.004541  
2755.000000	0.004551  
2754.000000	0.004552  
2753.000000	0.004515  
2752.000000	0.004443  
2751.000000	0.004362  
2750.000000	0.004301  
2749.000000	0.004266  
2748.000000	0.004243  
2747.000000	0.004216  
2746.000000	0.004183  
2745.000000	0.004154  
2744.000000	0.004146  
2743.000000	0.004169  
2742.000000	0.004208  
2741.000000	0.004239  
2740.000000	0.004256  
2739.000000	0.004286  
2738.000000	0.004340  
2737.000000	0.004396  
2736.000000	0.004433  
2735.000000	0.004482  
2734.000000	0.004596  
2733.000000	0.004766  
2732.000000	0.004908  
2731.000000	0.004953  
2730.000000	0.004908  
2729.000000	0.004824  
2728.000000	0.004738  
2727.000000	0.004658  
2726.000000	0.004594  
2725.000000	0.004555  
2724.000000	0.004542  
2723.000000	0.004552  
2722.000000	0.004573  
2721.000000	0.004577  
2720.000000	0.004528  
2719.000000	0.004434  
2718.000000	0.004348  
2717.000000	0.004320  
2716.000000	0.004341  
2715.000000	0.004362  
2714.000000	0.004347  
2713.000000	0.004281  
2712.000000	0.004153  
2711.000000	0.003977  
2710.000000	0.003805  
2709.000000	0.003696  
2708.000000	0.003662  
2707.000000	0.003661  
2706.000000	0.003651  
2705.000000	0.003616  
2704.000000	0.003561  
2703.000000	0.003496  
2702.000000	0.003440  
2701.000000	0.003412  
2700.000000	0.003409  
2699.000000	0.003405  
2698.000000	0.003377  
2697.000000	0.003334  
2696.000000	0.003311  
2695.000000	0.003346  
2694.000000	0.003454  
2693.000000	0.003602  
2692.000000	0.003714  
2691.000000	0.003723  
2690.000000	0.003631  
2689.000000	0.003522  
2688.000000	0.003479  
2687.000000	0.003520  
2686.000000	0.003594  
2685.000000	0.003637  
2684.000000	0.003633  
2683.000000	0.003608  
2682.000000	0.003595  
2681.000000	0.003596  
2680.000000	0.003595  
2679.000000	0.003589  
2678.000000	0.003599  
2677.000000	0.003636  
2676.000000	0.003672  
2675.000000	0.003673  
2674.000000	0.003648  
2673.000000	0.003643  
2672.000000	0.003679  
2671.000000	0.003724  
2670.000000	0.003726  
2669.000000	0.003664  
2668.000000	0.003574  
2667.000000	0.003504  
2666.000000	0.003481  
2665.000000	0.003491  
2664.000000	0.003494  
2663.000000	0.003459  
2662.000000	0.003391  
2661.000000	0.003312  
2660.000000	0.003250  
2659.000000	0.003221  
2658.000000	0.003235  
2657.000000	0.003279  
2656.000000	0.003316  
2655.000000	0.003301  
2654.000000	0.003213  
2653.000000	0.003079  
2652.000000	0.002955  
2651.000000	0.002885  
2650.000000	0.002874  
2649.000000	0.002889  
2648.000000	0.002884  
2647.000000	0.002838  
2646.000000	0.002771  
2645.000000	0.002711  
2644.000000	0.002674  
2643.000000	0.002673  
2642.000000	0.002722  
2641.000000	0.002810  
2640.000000	0.002877  
2639.000000	0.002844  
2638.000000	0.002698  
2637.000000	0.002507  
2636.000000	0.002356  
2635.000000	0.002287  
2634.000000	0.002299  
2633.000000	0.002384  
2632.000000	0.002511  
2631.000000	0.002615  
2630.000000	0.002628  
2629.000000	0.002551  
2628.000000	0.002460  
2627.000000	0.002429  
2626.000000	0.002455  
2625.000000	0.002476  
2624.000000	0.002448  
2623.000000	0.002391  
2622.000000	0.002354  
2621.000000	0.002356  
2620.000000	0.002379  
2619.000000	0.002392  
2618.000000	0.002378  
2617.000000	0.002322  
2616.000000	0.002213  
2615.000000	0.002072  
2614.000000	0.001966  
2613.000000	0.001964  
2612.000000	0.002071  
2611.000000	0.002206  
2610.000000	0.002278  
2609.000000	0.002272  
2608.000000	0.002249  
2607.000000	0.002261  
2606.000000	0.002292  
2605.000000	0.002277  
2604.000000	0.002187  
2603.000000	0.002055  
2602.000000	0.001945  
2601.000000	0.001886  
2600.000000	0.001869  
2599.000000	0.001873  
2598.000000	0.001879  
2597.000000	0.001867  
2596.000000	0.001826  
2595.000000	0.001764  
2594.000000	0.001704  
2593.000000	0.001654  
2592.000000	0.001617  
2591.000000	0.001611  
2590.000000	0.001669  
2589.000000	0.001792  
2588.000000	0.001929  
2587.000000	0.002023  
2586.000000	0.002069  
2585.000000	0.002108  
2584.000000	0.002159  
2583.000000	0.002169  
2582.000000	0.002056  
2581.000000	0.001804  
2580.000000	0.001511  
2579.000000	0.001317  
2578.000000	0.001277  
2577.000000	0.001318  
2576.000000	0.001319  
2575.000000	0.001239  
2574.000000	0.001133  
2573.000000	0.001068  
2572.000000	0.001047  
2571.000000	0.001034  
2570.000000	0.001012  
2569.000000	0.001013  
2568.000000	0.001076  
2567.000000	0.001196  
2566.000000	0.001308  
2565.000000	0.001349  
2564.000000	0.001313  
2563.000000	0.001249  
2562.000000	0.001187  
2561.000000	0.001118  
2560.000000	0.001054  
2559.000000	0.001054  
2558.000000	0.001138  
2557.000000	0.001220  
2556.000000	0.001187  
2555.000000	0.001035  
2554.000000	0.000874  
2553.000000	0.000782  
2552.000000	0.000744  
2551.000000	0.000727  
2550.000000	0.000741  
2549.000000	0.000792  
2548.000000	0.000845  
2547.000000	0.000878  
2546.000000	0.000932  
2545.000000	0.001050  
2544.000000	0.001201  
2543.000000	0.001309  
2542.000000	0.001317  
2541.000000	0.001225  
2540.000000	0.001076  
2539.000000	0.000944  
2538.000000	0.000881  
2537.000000	0.000854  
2536.000000	0.000768  
2535.000000	0.000600  
2534.000000	0.000439  
2533.000000	0.000363  
2532.000000	0.000345  
2531.000000	0.000332  
2530.000000	0.000370  
2529.000000	0.000544  
2528.000000	0.000825  
2527.000000	0.001062  
2526.000000	0.001134  
2525.000000	0.001042  
2524.000000	0.000860  
2523.000000	0.000670  
2522.000000	0.000550  
2521.000000	0.000554  
2520.000000	0.000650  
2519.000000	0.000727  
2518.000000	0.000704  
2517.000000	0.000621  
2516.000000	0.000582  
2515.000000	0.000642  
2514.000000	0.000759  
2513.000000	0.000852  
2512.000000	0.000876  
2511.000000	0.000846  
2510.000000	0.000812  
2509.000000	0.000824  
2508.000000	0.000899  
2507.000000	0.001000  
2506.000000	0.001039  
2505.000000	0.000943  
2504.000000	0.000734  
2503.000000	0.000545  
2502.000000	0.000511  
2501.000000	0.000641  
2500.000000	0.000817  
2499.000000	0.000904  
2498.000000	0.000867  
2497.000000	0.000771  
2496.000000	0.000714  
2495.000000	0.000748  
2494.000000	0.000822  
2493.000000	0.000812  
2492.000000	0.000664  
2491.000000	0.000490  
2490.000000	0.000461  
2489.000000	0.000607  
2488.000000	0.000785  
2487.000000	0.000858  
2486.000000	0.000826  
2485.000000	0.000753  
2484.000000	0.000656  
2483.000000	0.000525  
2482.000000	0.000397  
2481.000000	0.000327  
2480.000000	0.000327  
2479.000000	0.000373  
2478.000000	0.000449  
2477.000000	0.000521  
2476.000000	0.000520  
2475.000000	0.000407  
2474.000000	0.000229  
2473.000000	0.000066  
2472.000000	-0.000053 
2471.000000	-0.000127 
2470.000000	-0.000117 
2469.000000	-0.000003 
2468.000000	0.000141  
2467.000000	0.000203  
2466.000000	0.000157  
2465.000000	0.000076  
2464.000000	0.000022  
2463.000000	-0.000007 
2462.000000	-0.000027 
2461.000000	-0.000025 
2460.000000	0.000009  
2459.000000	0.000071  
2458.000000	0.000145  
2457.000000	0.000195  
2456.000000	0.000161  
2455.000000	0.000034  
2454.000000	-0.000082 
2453.000000	-0.000060 
2452.000000	0.000114  
2451.000000	0.000329  
2450.000000	0.000478  
2449.000000	0.000539  
2448.000000	0.000523  
2447.000000	0.000431  
2446.000000	0.000288  
2445.000000	0.000153  
2444.000000	0.000082  
2443.000000	0.000090  
2442.000000	0.000174  
2441.000000	0.000307  
2440.000000	0.000395  
2439.000000	0.000336  
2438.000000	0.000146  
2437.000000	-0.000024 
2436.000000	-0.000038 
2435.000000	0.000083  
2434.000000	0.000208  
2433.000000	0.000252  
2432.000000	0.000246  
2431.000000	0.000285  
2430.000000	0.000416  
2429.000000	0.000593  
2428.000000	0.000703  
2427.000000	0.000655  
2426.000000	0.000469  
2425.000000	0.000269  
2424.000000	0.000183  
2423.000000	0.000241  
2422.000000	0.000364  
2421.000000	0.000432  
2420.000000	0.000385  
2419.000000	0.000263  
2418.000000	0.000171  
2417.000000	0.000171  
2416.000000	0.000238  
2415.000000	0.000303  
2414.000000	0.000336  
2413.000000	0.000355  
2412.000000	0.000362  
2411.000000	0.000326  
2410.000000	0.000238  
2409.000000	0.000154  
2408.000000	0.000149  
2407.000000	0.000229  
2406.000000	0.000304  
2405.000000	0.000265  
2404.000000	0.000103  
2403.000000	-0.000059 
2402.000000	-0.000085 
2401.000000	0.000036  
2400.000000	0.000180  
2399.000000	0.000223  
2398.000000	0.000168  
2397.000000	0.000101  
2396.000000	0.000088  
2395.000000	0.000131  
2394.000000	0.000196  
2393.000000	0.000251  
2392.000000	0.000286  
2391.000000	0.000316  
2390.000000	0.000354  
2389.000000	0.000357  
2388.000000	0.000240  
2387.000000	-0.000011 
2386.000000	-0.000287 
2385.000000	-0.000442 
2384.000000	-0.000433 
2383.000000	-0.000323 
2382.000000	-0.000173 
2381.000000	-0.000007 
2380.000000	0.000140  
2379.000000	0.000212  
2378.000000	0.000196  
2377.000000	0.000122  
2376.000000	-0.000031 
2375.000000	-0.000307 
2374.000000	-0.000610 
2373.000000	-0.000693 
2372.000000	-0.000431 
2371.000000	0.000000  
2370.000000	0.000341  
2369.000000	0.000510  
2368.000000	0.000551  
2367.000000	0.000478  
2366.000000	0.000358  
2365.000000	0.000350  
2364.000000	0.000421  
2363.000000	0.000240  
2362.000000	-0.000327 
2361.000000	-0.000899 
2360.000000	-0.001050 
2359.000000	-0.000829 
2358.000000	-0.000531 
2357.000000	-0.000225 
2356.000000	0.000149  
2355.000000	0.000484  
2354.000000	0.000628  
2353.000000	0.000569  
2352.000000	0.000407  
2351.000000	0.000229  
2350.000000	0.000081  
2349.000000	0.000015  
2348.000000	0.000014  
2347.000000	0.000024  
2346.000000	-0.000006 
2345.000000	-0.000047 
2344.000000	-0.000089 
2343.000000	-0.000199 
2342.000000	-0.000289 
2341.000000	-0.000177 
2340.000000	0.000153  
2339.000000	0.000457  
2338.000000	0.000504  
2337.000000	0.000293  
2336.000000	0.000006  
2335.000000	-0.000190 
2334.000000	-0.000224 
2333.000000	-0.000149 
2332.000000	-0.000081 
2331.000000	-0.000112 
2330.000000	-0.000233 
2329.000000	-0.000358 
2328.000000	-0.000471 
2327.000000	-0.000565 
2326.000000	-0.000619 
2325.000000	-0.000565 
2324.000000	-0.000379 
2323.000000	-0.000156 
2322.000000	-0.000046 
2321.000000	-0.000168 
2320.000000	-0.000495 
2319.000000	-0.000890 
2318.000000	-0.001174 
2317.000000	-0.001230 
2316.000000	-0.001040 
2315.000000	-0.000705 
2314.000000	-0.000421 
2313.000000	-0.000377 
2312.000000	-0.000588 
2311.000000	-0.000857 
2310.000000	-0.000988 
2309.000000	-0.000990 
2308.000000	-0.001009 
2307.000000	-0.001098 
2306.000000	-0.001166 
2305.000000	-0.001161 
2304.000000	-0.001156 
2303.000000	-0.001220 
2302.000000	-0.001287 
2301.000000	-0.001258 
2300.000000	-0.001154 
2299.000000	-0.001080 
2298.000000	-0.001090 
2297.000000	-0.001141 
2296.000000	-0.001179 
2295.000000	-0.001171 
2294.000000	-0.001091 
2293.000000	-0.000951 
2292.000000	-0.000836 
2291.000000	-0.000821 
2290.000000	-0.000864 
2289.000000	-0.000842 
2288.000000	-0.000709 
2287.000000	-0.000547 
2286.000000	-0.000460 
2285.000000	-0.000479 
2284.000000	-0.000552 
2283.000000	-0.000599 
2282.000000	-0.000555 
2281.000000	-0.000435 
2280.000000	-0.000350 
2279.000000	-0.000389 
2278.000000	-0.000492 
2277.000000	-0.000514 
2276.000000	-0.000417 
2275.000000	-0.000308 
2274.000000	-0.000287 
2273.000000	-0.000344 
2272.000000	-0.000416 
2271.000000	-0.000454 
2270.000000	-0.000403 
2269.000000	-0.000222 
2268.000000	0.000022  
2267.000000	0.000162  
2266.000000	0.000089  
2265.000000	-0.000139 
2264.000000	-0.000414 
2263.000000	-0.000693 
2262.000000	-0.000964 
2261.000000	-0.001143 
2260.000000	-0.001108 
2259.000000	-0.000845 
2258.000000	-0.000495 
2257.000000	-0.000248 
2256.000000	-0.000185 
2255.000000	-0.000225 
2254.000000	-0.000219 
2253.000000	-0.000114 
2252.000000	-0.000009 
2251.000000	-0.000034 
2250.000000	-0.000192 
2249.000000	-0.000366 
2248.000000	-0.000459 
2247.000000	-0.000469 
2246.000000	-0.000453 
2245.000000	-0.000476 
2244.000000	-0.000583 
2243.000000	-0.000759 
2242.000000	-0.000932 
2241.000000	-0.001056 
2240.000000	-0.001140 
2239.000000	-0.001149 
2238.000000	-0.000955 
2237.000000	-0.000521 
2236.000000	-0.000084 
2235.000000	0.000021  
2234.000000	-0.000235 
2233.000000	-0.000512 
2232.000000	-0.000477 
2231.000000	-0.000151 
2230.000000	0.000163  
2229.000000	0.000200  
2228.000000	-0.000099 
2227.000000	-0.000603 
2226.000000	-0.001070 
2225.000000	-0.001278 
2224.000000	-0.001166 
2223.000000	-0.000853 
2222.000000	-0.000499 
2221.000000	-0.000233 
2220.000000	-0.000164 
2219.000000	-0.000348 
2218.000000	-0.000686 
2217.000000	-0.000930 
2216.000000	-0.000903 
2215.000000	-0.000650 
2214.000000	-0.000337 
2213.000000	-0.000089 
2212.000000	0.000063  
2211.000000	0.000147  
2210.000000	0.000231  
2209.000000	0.000379  
2208.000000	0.000570  
2207.000000	0.000692  
2206.000000	0.000669  
2205.000000	0.000526  
2204.000000	0.000344  
2203.000000	0.000183  
2202.000000	0.000062  
2201.000000	-0.000046 
2200.000000	-0.000225 
2199.000000	-0.000511 
2198.000000	-0.000787 
2197.000000	-0.000883 
2196.000000	-0.000784 
2195.000000	-0.000622 
2194.000000	-0.000435 
2193.000000	-0.000109 
2192.000000	0.000352  
2191.000000	0.000675  
2190.000000	0.000574  
2189.000000	0.000079  
2188.000000	-0.000492 
2187.000000	-0.000856 
2186.000000	-0.000917 
2185.000000	-0.000739 
2184.000000	-0.000498 
2183.000000	-0.000417 
2182.000000	-0.000594 
2181.000000	-0.000880 
2180.000000	-0.001015 
2179.000000	-0.000868 
2178.000000	-0.000518 
2177.000000	-0.000156 
2176.000000	0.000021  
2175.000000	-0.000094 
2174.000000	-0.000443 
2173.000000	-0.000806 
2172.000000	-0.001014 
2171.000000	-0.001124 
2170.000000	-0.001308 
2169.000000	-0.001583 
2168.000000	-0.001740 
2167.000000	-0.001575 
2166.000000	-0.001127 
2165.000000	-0.000625 
2164.000000	-0.000258 
2163.000000	-0.000047 
2162.000000	0.000041  
2161.000000	-0.000018 
2160.000000	-0.000243 
2159.000000	-0.000509 
2158.000000	-0.000659 
2157.000000	-0.000735 
2156.000000	-0.000931 
2155.000000	-0.001285 
2154.000000	-0.001567 
2153.000000	-0.001538 
2152.000000	-0.001253 
2151.000000	-0.001018 
2150.000000	-0.001075 
2149.000000	-0.001359 
2148.000000	-0.001561 
2147.000000	-0.001383 
2146.000000	-0.000788 
2145.000000	-0.000068 
2144.000000	0.000385  
2143.000000	0.000413  
2142.000000	0.000165  
2141.000000	-0.000114 
2140.000000	-0.000305 
2139.000000	-0.000399 
2138.000000	-0.000416 
2137.000000	-0.000432 
2136.000000	-0.000573 
2135.000000	-0.000855 
2134.000000	-0.001101 
2133.000000	-0.001131 
2132.000000	-0.000995 
2131.000000	-0.000887 
2130.000000	-0.000902 
2129.000000	-0.000989 
2128.000000	-0.001082 
2127.000000	-0.001160 
2126.000000	-0.001165 
2125.000000	-0.001005 
2124.000000	-0.000681 
2123.000000	-0.000332 
2122.000000	-0.000116 
2121.000000	-0.000102 
2120.000000	-0.000270 
2119.000000	-0.000541 
2118.000000	-0.000793 
2117.000000	-0.000913 
2116.000000	-0.000878 
2115.000000	-0.000749 
2114.000000	-0.000582 
2113.000000	-0.000413 
2112.000000	-0.000305 
2111.000000	-0.000332 
2110.000000	-0.000482 
2109.000000	-0.000656 
2108.000000	-0.000767 
2107.000000	-0.000807 
2106.000000	-0.000792 
2105.000000	-0.000730 
2104.000000	-0.000655 
2103.000000	-0.000630 
2102.000000	-0.000672 
2101.000000	-0.000733 
2100.000000	-0.000783 
2099.000000	-0.000851 
2098.000000	-0.000946 
2097.000000	-0.000999 
2096.000000	-0.000904 
2095.000000	-0.000613 
2094.000000	-0.000192 
2093.000000	0.000188  
2092.000000	0.000346  
2091.000000	0.000242  
2090.000000	0.000039  
2089.000000	-0.000072 
2088.000000	-0.000088 
2087.000000	-0.000149 
2086.000000	-0.000306 
2085.000000	-0.000450 
2084.000000	-0.000493 
2083.000000	-0.000492 
2082.000000	-0.000544 
2081.000000	-0.000654 
2080.000000	-0.000768 
2079.000000	-0.000851 
2078.000000	-0.000863 
2077.000000	-0.000752 
2076.000000	-0.000546 
2075.000000	-0.000387 
2074.000000	-0.000388 
2073.000000	-0.000506 
2072.000000	-0.000627 
2071.000000	-0.000729 
2070.000000	-0.000872 
2069.000000	-0.001058 
2068.000000	-0.001183 
2067.000000	-0.001147 
2066.000000	-0.000966 
2065.000000	-0.000764 
2064.000000	-0.000652 
2063.000000	-0.000627 
2062.000000	-0.000602 
2061.000000	-0.000544 
2060.000000	-0.000520 
2059.000000	-0.000585 
2058.000000	-0.000674 
2057.000000	-0.000669 
2056.000000	-0.000558 
2055.000000	-0.000459 
2054.000000	-0.000475 
2053.000000	-0.000613 
2052.000000	-0.000814 
2051.000000	-0.000974 
2050.000000	-0.000969 
2049.000000	-0.000751 
2048.000000	-0.000453 
2047.000000	-0.000247 
2046.000000	-0.000126 
2045.000000	0.000013  
2044.000000	0.000139  
2043.000000	0.000097  
2042.000000	-0.000116 
2041.000000	-0.000315 
2040.000000	-0.000415 
2039.000000	-0.000550 
2038.000000	-0.000811 
2037.000000	-0.001055 
2036.000000	-0.001106 
2035.000000	-0.000980 
2034.000000	-0.000800 
2033.000000	-0.000618 
2032.000000	-0.000468 
2031.000000	-0.000468 
2030.000000	-0.000699 
2029.000000	-0.001059 
2028.000000	-0.001303 
2027.000000	-0.001208 
2026.000000	-0.000698 
2025.000000	0.000041  
2024.000000	0.000587  
2023.000000	0.000595  
2022.000000	0.000156  
2021.000000	-0.000272 
2020.000000	-0.000345 
2019.000000	-0.000108 
2018.000000	0.000174  
2017.000000	0.000296  
2016.000000	0.000187  
2015.000000	-0.000100 
2014.000000	-0.000390 
2013.000000	-0.000518 
2012.000000	-0.000559 
2011.000000	-0.000739 
2010.000000	-0.001042 
2009.000000	-0.001117 
2008.000000	-0.000741 
2007.000000	-0.000183 
2006.000000	0.000111  
2005.000000	-0.000003 
2004.000000	-0.000415 
2003.000000	-0.001023 
2002.000000	-0.001712 
2001.000000	-0.002178 
2000.000000	-0.002109 
1999.000000	-0.001550 
1998.000000	-0.000920 
1997.000000	-0.000609 
1996.000000	-0.000694 
1995.000000	-0.001022 
1994.000000	-0.001387 
1993.000000	-0.001547 
1992.000000	-0.001317 
1991.000000	-0.000812 
1990.000000	-0.000422 
1989.000000	-0.000447 
1988.000000	-0.000819 
1987.000000	-0.001205 
1986.000000	-0.001372 
1985.000000	-0.001367 
1984.000000	-0.001350 
1983.000000	-0.001365 
1982.000000	-0.001344 
1981.000000	-0.001278 
1980.000000	-0.001267 
1979.000000	-0.001371 
1978.000000	-0.001529 
1977.000000	-0.001670 
1976.000000	-0.001816 
1975.000000	-0.001962 
1974.000000	-0.002006 
1973.000000	-0.001890 
1972.000000	-0.001722 
1971.000000	-0.001625 
1970.000000	-0.001548 
1969.000000	-0.001367 
1968.000000	-0.001099 
1967.000000	-0.000878 
1966.000000	-0.000749 
1965.000000	-0.000656 
1964.000000	-0.000594 
1963.000000	-0.000578 
1962.000000	-0.000494 
1961.000000	-0.000218 
1960.000000	0.000132  
1959.000000	0.000258  
1958.000000	0.000047  
1957.000000	-0.000310 
1956.000000	-0.000591 
1955.000000	-0.000767 
1954.000000	-0.000880 
1953.000000	-0.000880 
1952.000000	-0.000730 
1951.000000	-0.000563 
1950.000000	-0.000572 
1949.000000	-0.000747 
1948.000000	-0.000856 
1947.000000	-0.000692 
1946.000000	-0.000315 
1945.000000	-0.000008 
1944.000000	-0.000032 
1943.000000	-0.000387 
1942.000000	-0.000790 
1941.000000	-0.000977 
1940.000000	-0.000929 
1939.000000	-0.000761 
1938.000000	-0.000570 
1937.000000	-0.000433 
1936.000000	-0.000405 
1935.000000	-0.000458 
1934.000000	-0.000479 
1933.000000	-0.000398 
1932.000000	-0.000299 
1931.000000	-0.000286 
1930.000000	-0.000299 
1929.000000	-0.000209 
1928.000000	-0.000037 
1927.000000	0.000062  
1926.000000	0.000017  
1925.000000	-0.000091 
1924.000000	-0.000196 
1923.000000	-0.000339 
1922.000000	-0.000542 
1921.000000	-0.000723 
1920.000000	-0.000802 
1919.000000	-0.000764 
1918.000000	-0.000609 
1917.000000	-0.000358 
1916.000000	-0.000115 
1915.000000	-0.000018 
1914.000000	-0.000116 
1913.000000	-0.000314 
1912.000000	-0.000461 
1911.000000	-0.000483 
1910.000000	-0.000386 
1909.000000	-0.000234 
1908.000000	-0.000122 
1907.000000	-0.000126 
1906.000000	-0.000221 
1905.000000	-0.000288 
1904.000000	-0.000246 
1903.000000	-0.000133 
1902.000000	-0.000050 
1901.000000	-0.000051 
1900.000000	-0.000108 
1899.000000	-0.000162 
1898.000000	-0.000179 
1897.000000	-0.000171 
1896.000000	-0.000190 
1895.000000	-0.000256 
1894.000000	-0.000312 
1893.000000	-0.000301 
1892.000000	-0.000253 
1891.000000	-0.000255 
1890.000000	-0.000326 
1889.000000	-0.000391 
1888.000000	-0.000390 
1887.000000	-0.000335 
1886.000000	-0.000248 
1885.000000	-0.000168 
1884.000000	-0.000164 
1883.000000	-0.000266 
1882.000000	-0.000387 
1881.000000	-0.000412 
1880.000000	-0.000346 
1879.000000	-0.000285 
1878.000000	-0.000241 
1877.000000	-0.000134 
1876.000000	0.000034  
1875.000000	0.000131  
1874.000000	0.000070  
1873.000000	-0.000065 
1872.000000	-0.000165 
1871.000000	-0.000230 
1870.000000	-0.000314 
1869.000000	-0.000365 
1868.000000	-0.000304 
1867.000000	-0.000214 
1866.000000	-0.000188 
1865.000000	-0.000201 
1864.000000	-0.000205 
1863.000000	-0.000203 
1862.000000	-0.000218 
1861.000000	-0.000232 
1860.000000	-0.000228 
1859.000000	-0.000247 
1858.000000	-0.000333 
1857.000000	-0.000457 
1856.000000	-0.000547 
1855.000000	-0.000570 
1854.000000	-0.000535 
1853.000000	-0.000460 
1852.000000	-0.000383 
1851.000000	-0.000353 
1850.000000	-0.000386 
1849.000000	-0.000418 
1848.000000	-0.000383 
1847.000000	-0.000307 
1846.000000	-0.000284 
1845.000000	-0.000335 
1844.000000	-0.000383 
1843.000000	-0.000379 
1842.000000	-0.000344 
1841.000000	-0.000301 
1840.000000	-0.000273 
1839.000000	-0.000288 
1838.000000	-0.000344 
1837.000000	-0.000374 
1836.000000	-0.000314 
1835.000000	-0.000191 
1834.000000	-0.000096 
1833.000000	-0.000098 
1832.000000	-0.000205 
1831.000000	-0.000374 
1830.000000	-0.000495 
1829.000000	-0.000482 
1828.000000	-0.000390 
1827.000000	-0.000313 
1826.000000	-0.000298 
1825.000000	-0.000327 
1824.000000	-0.000354 
1823.000000	-0.000372 
1822.000000	-0.000395 
1821.000000	-0.000420 
1820.000000	-0.000436 
1819.000000	-0.000435 
1818.000000	-0.000398 
1817.000000	-0.000311 
1816.000000	-0.000220 
1815.000000	-0.000196 
1814.000000	-0.000237 
1813.000000	-0.000258 
1812.000000	-0.000192 
1811.000000	-0.000095 
1810.000000	-0.000051 
1809.000000	-0.000070 
1808.000000	-0.000122 
1807.000000	-0.000198 
1806.000000	-0.000273 
1805.000000	-0.000292 
1804.000000	-0.000225 
1803.000000	-0.000095 
1802.000000	0.000060  
1801.000000	0.000219  
1800.000000	0.000332  
1799.000000	0.000329  
1798.000000	0.000231  
1797.000000	0.000155  
1796.000000	0.000170  
1795.000000	0.000230  
1794.000000	0.000252  
1793.000000	0.000259  
1792.000000	0.000335  
1791.000000	0.000426  
1790.000000	0.000444  
1789.000000	0.000402  
1788.000000	0.000331  
1787.000000	0.000262  
1786.000000	0.000265  
1785.000000	0.000414  
1784.000000	0.000660  
1783.000000	0.000858  
1782.000000	0.000913  
1781.000000	0.000884  
1780.000000	0.000906  
1779.000000	0.000988  
1778.000000	0.001052  
1777.000000	0.001086  
1776.000000	0.001136  
1775.000000	0.001215  
1774.000000	0.001256  
1773.000000	0.001240  
1772.000000	0.001267  
1771.000000	0.001324  
1770.000000	0.001349  
1769.000000	0.001420  
1768.000000	0.001602  
1767.000000	0.001825  
1766.000000	0.002005  
1765.000000	0.002165  
1764.000000	0.002373  
1763.000000	0.002639  
1762.000000	0.002910  
1761.000000	0.003190  
1760.000000	0.003544  
1759.000000	0.003985  
1758.000000	0.004521  
1757.000000	0.005203  
1756.000000	0.006012  
1755.000000	0.006823  
1754.000000	0.007626  
1753.000000	0.008657  
1752.000000	0.010307  
1751.000000	0.012822  
1750.000000	0.016258  
1749.000000	0.020750  
1748.000000	0.026080  
1747.000000	0.031546  
1746.000000	0.036884  
1745.000000	0.042463  
1744.000000	0.048214  
1743.000000	0.053139  
1742.000000	0.056330  
1741.000000	0.057575  
1740.000000	0.056795  
1739.000000	0.054344  
1738.000000	0.051359  
1737.000000	0.048413  
1736.000000	0.044920  
1735.000000	0.039518  
1734.000000	0.032892  
1733.000000	0.028061  
1732.000000	0.025459  
1731.000000	0.023676  
1730.000000	0.022183  
1729.000000	0.020921  
1728.000000	0.019925  
1727.000000	0.019134  
1726.000000	0.018502  
1725.000000	0.017959  
1724.000000	0.017432  
1723.000000	0.016909  
1722.000000	0.016448  
1721.000000	0.016029  
1720.000000	0.015499  
1719.000000	0.014602  
1718.000000	0.013315  
1717.000000	0.012138  
1716.000000	0.011304  
1715.000000	0.010569  
1714.000000	0.009838  
1713.000000	0.009127  
1712.000000	0.008415  
1711.000000	0.007698  
1710.000000	0.007037  
1709.000000	0.006493  
1708.000000	0.006037  
1707.000000	0.005568  
1706.000000	0.005069  
1705.000000	0.004667  
1704.000000	0.004437  
1703.000000	0.004359  
1702.000000	0.004381  
1701.000000	0.004317  
1700.000000	0.003931  
1699.000000	0.003422  
1698.000000	0.003122  
1697.000000	0.003023  
1696.000000	0.002937  
1695.000000	0.002761  
1694.000000	0.002637  
1693.000000	0.002636  
1692.000000	0.002655  
1691.000000	0.002604  
1690.000000	0.002509  
1689.000000	0.002455  
1688.000000	0.002482  
1687.000000	0.002598  
1686.000000	0.002781  
1685.000000	0.002958  
1684.000000	0.002915  
1683.000000	0.002638  
1682.000000	0.002451  
1681.000000	0.002445  
1680.000000	0.002483  
1679.000000	0.002487  
1678.000000	0.002486  
1677.000000	0.002511  
1676.000000	0.002526  
1675.000000	0.002505  
1674.000000	0.002494  
1673.000000	0.002523  
1672.000000	0.002538  
1671.000000	0.002491  
1670.000000	0.002487  
1669.000000	0.002601  
1668.000000	0.002721  
1667.000000	0.002795  
1666.000000	0.002854  
1665.000000	0.002905  
1664.000000	0.002943  
1663.000000	0.003021  
1662.000000	0.003211  
1661.000000	0.003437  
1660.000000	0.003622  
1659.000000	0.003737  
1658.000000	0.003833  
1657.000000	0.003909  
1656.000000	0.004010  
1655.000000	0.004051  
1654.000000	0.004079  
1653.000000	0.004290  
1652.000000	0.004405  
1651.000000	0.004405  
1650.000000	0.004445  
1649.000000	0.004484  
1648.000000	0.004447  
1647.000000	0.004452  
1646.000000	0.004571  
1645.000000	0.004649  
1644.000000	0.004632  
1643.000000	0.004569  
1642.000000	0.004515  
1641.000000	0.004535  
1640.000000	0.004614  
1639.000000	0.004722  
1638.000000	0.004844  
1637.000000	0.004978  
1636.000000	0.005032  
1635.000000	0.004870  
1634.000000	0.004621  
1633.000000	0.004502  
1632.000000	0.004476  
1631.000000	0.004435  
1630.000000	0.004359  
1629.000000	0.004281  
1628.000000	0.004223  
1627.000000	0.004173  
1626.000000	0.004127  
1625.000000	0.004070  
1624.000000	0.003957  
1623.000000	0.003791  
1622.000000	0.003651  
1621.000000	0.003576  
1620.000000	0.003542  
1619.000000	0.003486  
1618.000000	0.003365  
1617.000000	0.003249  
1616.000000	0.003192  
1615.000000	0.003141  
1614.000000	0.003094  
1613.000000	0.003066  
1612.000000	0.003016  
1611.000000	0.002933  
1610.000000	0.002859  
1609.000000	0.002831  
1608.000000	0.002827  
1607.000000	0.002820  
1606.000000	0.002810  
1605.000000	0.002794  
1604.000000	0.002765  
1603.000000	0.002726  
1602.000000	0.002694  
1601.000000	0.002669  
1600.000000	0.002629  
1599.000000	0.002560  
1598.000000	0.002484  
1597.000000	0.002426  
1596.000000	0.002399  
1595.000000	0.002410  
1594.000000	0.002469  
1593.000000	0.002547  
1592.000000	0.002607  
1591.000000	0.002657  
1590.000000	0.002742  
1589.000000	0.002864  
1588.000000	0.002964  
1587.000000	0.003001  
1586.000000	0.003014  
1585.000000	0.003048  
1584.000000	0.003116  
1583.000000	0.003214  
1582.000000	0.003333  
1581.000000	0.003452  
1580.000000	0.003549  
1579.000000	0.003619  
1578.000000	0.003650  
1577.000000	0.003634  
1576.000000	0.003588  
1575.000000	0.003511  
1574.000000	0.003459  
1573.000000	0.003489  
1572.000000	0.003580  
1571.000000	0.003677  
1570.000000	0.003779  
1569.000000	0.003864  
1568.000000	0.003886  
1567.000000	0.003881  
1566.000000	0.003906  
1565.000000	0.003936  
1564.000000	0.003902  
1563.000000	0.003808  
1562.000000	0.003725  
1561.000000	0.003750  
1560.000000	0.003692  
1559.000000	0.003234  
1558.000000	0.002765  
1557.000000	0.002572  
1556.000000	0.002530  
1555.000000	0.002548  
1554.000000	0.002507  
1553.000000	0.002484  
1552.000000	0.002466  
1551.000000	0.002424  
1550.000000	0.002340  
1549.000000	0.002265  
1548.000000	0.002209  
1547.000000	0.002168  
1546.000000	0.002154  
1545.000000	0.002214  
1544.000000	0.002263  
1543.000000	0.002186  
1542.000000	0.001980  
1541.000000	0.002014  
1540.000000	0.002428  
1539.000000	0.002565  
1538.000000	0.002387  
1537.000000	0.002301  
1536.000000	0.002326  
1535.000000	0.002361  
1534.000000	0.002392  
1533.000000	0.002503  
1532.000000	0.002634  
1531.000000	0.002683  
1530.000000	0.002666  
1529.000000	0.002628  
1528.000000	0.002598  
1527.000000	0.002562  
1526.000000	0.002527  
1525.000000	0.002515  
1524.000000	0.002511  
1523.000000	0.002475  
1522.000000	0.002585  
1521.000000	0.002952  
1520.000000	0.003259  
1519.000000	0.003353  
1518.000000	0.003359  
1517.000000	0.003405  
1516.000000	0.003482  
1515.000000	0.003502  
1514.000000	0.003527  
1513.000000	0.003636  
1512.000000	0.003817  
1511.000000	0.003988  
1510.000000	0.004171  
1509.000000	0.004461  
1508.000000	0.004905  
1507.000000	0.005351  
1506.000000	0.005494  
1505.000000	0.005465  
1504.000000	0.005517  
1503.000000	0.005623  
1502.000000	0.005753  
1501.000000	0.005923  
1500.000000	0.006061  
1499.000000	0.006091  
1498.000000	0.006126  
1497.000000	0.006443  
1496.000000	0.006917  
1495.000000	0.007203  
1494.000000	0.007332  
1493.000000	0.007473  
1492.000000	0.007647  
1491.000000	0.007861  
1490.000000	0.008319  
1489.000000	0.009096  
1488.000000	0.009807  
1487.000000	0.010242  
1486.000000	0.010625  
1485.000000	0.011137  
1484.000000	0.011774  
1483.000000	0.012555  
1482.000000	0.013622  
1481.000000	0.014964  
1480.000000	0.016284  
1479.000000	0.017421  
1478.000000	0.018636  
1477.000000	0.020214  
1476.000000	0.022066  
1475.000000	0.024168  
1474.000000	0.027664  
1473.000000	0.034143  
1472.000000	0.042189  
1471.000000	0.049014  
1470.000000	0.054594  
1469.000000	0.059755  
1468.000000	0.064486  
1467.000000	0.068562  
1466.000000	0.071993  
1465.000000	0.074782  
1464.000000	0.076571  
1463.000000	0.077423  
1462.000000	0.077889  
1461.000000	0.078283  
1460.000000	0.078637  
1459.000000	0.078992  
1458.000000	0.079513  
1457.000000	0.079425  
1456.000000	0.077843  
1455.000000	0.075582  
1454.000000	0.073276  
1453.000000	0.070742  
1452.000000	0.067954  
1451.000000	0.065193  
1450.000000	0.062674  
1449.000000	0.060183  
1448.000000	0.057500  
1447.000000	0.054779  
1446.000000	0.052179  
1445.000000	0.049577  
1444.000000	0.046886  
1443.000000	0.044231  
1442.000000	0.041765  
1441.000000	0.039510  
1440.000000	0.037431  
1439.000000	0.035476  
1438.000000	0.033485  
1437.000000	0.031358  
1436.000000	0.029466  
1435.000000	0.028156  
1434.000000	0.027125  
1433.000000	0.025943  
1432.000000	0.024507  
1431.000000	0.022989  
1430.000000	0.021554  
1429.000000	0.020263  
1428.000000	0.019205  
1427.000000	0.018456  
1426.000000	0.017948  
1425.000000	0.017559  
1424.000000	0.017289  
1423.000000	0.017149  
1422.000000	0.017001  
1421.000000	0.016680  
1420.000000	0.016166  
1419.000000	0.015625  
1418.000000	0.015182  
1417.000000	0.014810  
1416.000000	0.014491  
1415.000000	0.014219  
1414.000000	0.013918  
1413.000000	0.013541  
1412.000000	0.013165  
1411.000000	0.012918  
1410.000000	0.012793  
1409.000000	0.012706  
1408.000000	0.012651  
1407.000000	0.012684  
1406.000000	0.012808  
1405.000000	0.012983  
1404.000000	0.013226  
1403.000000	0.013535  
1402.000000	0.013833  
1401.000000	0.014080  
1400.000000	0.014364  
1399.000000	0.014783  
1398.000000	0.015241  
1397.000000	0.015604  
1396.000000	0.015920  
1395.000000	0.016299  
1394.000000	0.016694  
1393.000000	0.017028  
1392.000000	0.017344  
1391.000000	0.017700  
1390.000000	0.018147  
1389.000000	0.018860  
1388.000000	0.020158  
1387.000000	0.022104  
1386.000000	0.024284  
1385.000000	0.026413  
1384.000000	0.028656  
1383.000000	0.031275  
1382.000000	0.034341  
1381.000000	0.037708  
1380.000000	0.041003  
1379.000000	0.043596  
1378.000000	0.044885  
1377.000000	0.044688  
1376.000000	0.043107  
1375.000000	0.040279  
1374.000000	0.036745  
1373.000000	0.033485  
1372.000000	0.031073  
1371.000000	0.029441  
1370.000000	0.028389  
1369.000000	0.027801  
1368.000000	0.027529  
1367.000000	0.027300  
1366.000000	0.026846  
1365.000000	0.026021  
1364.000000	0.024823  
1363.000000	0.023450  
1362.000000	0.022243  
1361.000000	0.021377  
1360.000000	0.020791  
1359.000000	0.020391  
1358.000000	0.020130  
1357.000000	0.019963  
1356.000000	0.019839  
1355.000000	0.019726  
1354.000000	0.019626  
1353.000000	0.019560  
1352.000000	0.019530  
1351.000000	0.019503  
1350.000000	0.019424  
1349.000000	0.019251  
1348.000000	0.019009  
1347.000000	0.018753  
1346.000000	0.018508  
1345.000000	0.018265  
1344.000000	0.018030  
1343.000000	0.017823  
1342.000000	0.017639  
1341.000000	0.017432  
1340.000000	0.017167  
1339.000000	0.016849  
1338.000000	0.016496  
1337.000000	0.016117  
1336.000000	0.015737  
1335.000000	0.015395  
1334.000000	0.015114  
1333.000000	0.014895  
1332.000000	0.014744  
1331.000000	0.014670  
1330.000000	0.014649  
1329.000000	0.014643  
1328.000000	0.014653  
1327.000000	0.014713  
1326.000000	0.014824  
1325.000000	0.014941  
1324.000000	0.015041  
1323.000000	0.015141  
1322.000000	0.015242  
1321.000000	0.015311  
1320.000000	0.015339  
1319.000000	0.015372  
1318.000000	0.015461  
1317.000000	0.015600  
1316.000000	0.015763  
1315.000000	0.015957  
1314.000000	0.016183  
1313.000000	0.016401  
1312.000000	0.016565  
1311.000000	0.016674  
1310.000000	0.016766  
1309.000000	0.016858  
1308.000000	0.016943  
1307.000000	0.017000  
1306.000000	0.017026  
1305.000000	0.017034  
1304.000000	0.017048  
1303.000000	0.017070  
1302.000000	0.017063  
1301.000000	0.016981  
1300.000000	0.016820  
1299.000000	0.016626  
1298.000000	0.016437  
1297.000000	0.016249  
1296.000000	0.016040  
1295.000000	0.015818  
1294.000000	0.015604  
1293.000000	0.015409  
1292.000000	0.015244  
1291.000000	0.015133  
1290.000000	0.015104  
1289.000000	0.015158  
1288.000000	0.015273  
1287.000000	0.015426  
1286.000000	0.015618  
1285.000000	0.015863  
1284.000000	0.016160  
1283.000000	0.016468  
1282.000000	0.016727  
1281.000000	0.016917  
1280.000000	0.017084  
1279.000000	0.017285  
1278.000000	0.017518  
1277.000000	0.017733  
1276.000000	0.017903  
1275.000000	0.018050  
1274.000000	0.018198  
1273.000000	0.018343  
1272.000000	0.018474  
1271.000000	0.018592  
1270.000000	0.018684  
1269.000000	0.018723  
1268.000000	0.018722  
1267.000000	0.018747  
1266.000000	0.018850  
1265.000000	0.019000  
1264.000000	0.019114  
1263.000000	0.019165  
1262.000000	0.019214  
1261.000000	0.019339  
1260.000000	0.019540  
1259.000000	0.019743  
1258.000000	0.019878  
1257.000000	0.019950  
1256.000000	0.020029  
1255.000000	0.020192  
1254.000000	0.020465  
1253.000000	0.020816  
1252.000000	0.021195  
1251.000000	0.021575  
1250.000000	0.021964  
1249.000000	0.022375  
1248.000000	0.022789  
1247.000000	0.023144  
1246.000000	0.023381  
1245.000000	0.023490  
1244.000000	0.023511  
1243.000000	0.023489  
1242.000000	0.023433  
1241.000000	0.023319  
1240.000000	0.023122  
1239.000000	0.022824  
1238.000000	0.022426  
1237.000000	0.021957  
1236.000000	0.021481  
1235.000000	0.021057  
1234.000000	0.020693  
1233.000000	0.020347  
1232.000000	0.019985  
1231.000000	0.019622  
1230.000000	0.019295  
1229.000000	0.019022  
1228.000000	0.018807  
1227.000000	0.018650  
1226.000000	0.018542  
1225.000000	0.018464  
1224.000000	0.018412  
1223.000000	0.018395  
1222.000000	0.018421  
1221.000000	0.018482  
1220.000000	0.018564  
1219.000000	0.018661  
1218.000000	0.018758  
1217.000000	0.018841  
1216.000000	0.018924  
1215.000000	0.019057  
1214.000000	0.019269  
1213.000000	0.019527  
1212.000000	0.019765  
1211.000000	0.019948  
1210.000000	0.020107  
1209.000000	0.020302  
1208.000000	0.020560  
1207.000000	0.020852  
1206.000000	0.021132  
1205.000000	0.021386  
1204.000000	0.021649  
1203.000000	0.021970  
1202.000000	0.022368  
1201.000000	0.022827  
1200.000000	0.023321  
1199.000000	0.023827  
1198.000000	0.024340  
1197.000000	0.024878  
1196.000000	0.025471  
1195.000000	0.026116  
1194.000000	0.026775  
1193.000000	0.027417  
1192.000000	0.028058  
1191.000000	0.028731  
1190.000000	0.029437  
1189.000000	0.030145  
1188.000000	0.030844  
1187.000000	0.031561  
1186.000000	0.032318  
1185.000000	0.033102  
1184.000000	0.033873  
1183.000000	0.034599  
1182.000000	0.035258  
1181.000000	0.035837  
1180.000000	0.036331  
1179.000000	0.036753  
1178.000000	0.037113  
1177.000000	0.037391  
1176.000000	0.037548  
1175.000000	0.037571  
1174.000000	0.037479  
1173.000000	0.037297  
1172.000000	0.037025  
1171.000000	0.036672  
1170.000000	0.036262  
1169.000000	0.035811  
1168.000000	0.035296  
1167.000000	0.034684  
1166.000000	0.033958  
1165.000000	0.033120  
1164.000000	0.032185  
1163.000000	0.031193  
1162.000000	0.030195  
1161.000000	0.029218  
1160.000000	0.028266  
1159.000000	0.027355  
1158.000000	0.026511  
1157.000000	0.025728  
1156.000000	0.024969  
1155.000000	0.024239  
1154.000000	0.023594  
1153.000000	0.023054  
1152.000000	0.022560  
1151.000000	0.022037  
1150.000000	0.021484  
1149.000000	0.020960  
1148.000000	0.020506  
1147.000000	0.020113  
1146.000000	0.019744  
1145.000000	0.019359  
1144.000000	0.018923  
1143.000000	0.018426  
1142.000000	0.017904  
1141.000000	0.017414  
1140.000000	0.016974  
1139.000000	0.016556  
1138.000000	0.016133  
1137.000000	0.015718  
1136.000000	0.015342  
1135.000000	0.015020  
1134.000000	0.014747  
1133.000000	0.014519  
1132.000000	0.014344  
1131.000000	0.014233  
1130.000000	0.014207  
1129.000000	0.014314  
1128.000000	0.014604  
1127.000000	0.015073  
1126.000000	0.015648  
1125.000000	0.016244  
1124.000000	0.016830  
1123.000000	0.017423  
1122.000000	0.018033  
1121.000000	0.018639  
1120.000000	0.019188  
1119.000000	0.019610  
1118.000000	0.019846  
1117.000000	0.019891  
1116.000000	0.019795  
1115.000000	0.019621  
1114.000000	0.019402  
1113.000000	0.019139  
1112.000000	0.018840  
1111.000000	0.018534  
1110.000000	0.018259  
1109.000000	0.018046  
1108.000000	0.017910  
1107.000000	0.017841  
1106.000000	0.017805  
1105.000000	0.017769  
1104.000000	0.017735  
1103.000000	0.017725  
1102.000000	0.017735  
1101.000000	0.017727  
1100.000000	0.017668  
1099.000000	0.017565  
1098.000000	0.017450  
1097.000000	0.017355  
1096.000000	0.017292  
1095.000000	0.017250  
1094.000000	0.017210  
1093.000000	0.017177  
1092.000000	0.017195  
1091.000000	0.017308  
1090.000000	0.017495  
1089.000000	0.017691  
1088.000000	0.017868  
1087.000000	0.018071  
1086.000000	0.018365  
1085.000000	0.018784  
1084.000000	0.019347  
1083.000000	0.020073  
1082.000000	0.020954  
1081.000000	0.021921  
1080.000000	0.022884  
1079.000000	0.023806  
1078.000000	0.024716  
1077.000000	0.025659  
1076.000000	0.026642  
1075.000000	0.027614  
1074.000000	0.028488  
1073.000000	0.029159  
1072.000000	0.029542  
1071.000000	0.029618  
1070.000000	0.029440  
1069.000000	0.029095  
1068.000000	0.028674  
1067.000000	0.028282  
1066.000000	0.028019  
1065.000000	0.027909  
1064.000000	0.027874  
1063.000000	0.027787  
1062.000000	0.027557  
1061.000000	0.027132  
1060.000000	0.026477  
1059.000000	0.025599  
1058.000000	0.024617  
1057.000000	0.023736  
1056.000000	0.023128  
1055.000000	0.022840  
1054.000000	0.022801  
1053.000000	0.022909  
1052.000000	0.023098  
1051.000000	0.023346  
1050.000000	0.023647  
1049.000000	0.023971  
1048.000000	0.024259  
1047.000000	0.024458  
1046.000000	0.024585  
1045.000000	0.024708  
1044.000000	0.024860  
1043.000000	0.024975  
1042.000000	0.024961  
1041.000000	0.024811  
1040.000000	0.024609  
1039.000000	0.024424  
1038.000000	0.024229  
1037.000000	0.023979  
1036.000000	0.023711  
1035.000000	0.023547  
1034.000000	0.023585  
1033.000000	0.023832  
1032.000000	0.024211  
1031.000000	0.024592  
1030.000000	0.024824  
1029.000000	0.024771  
1028.000000	0.024385  
1027.000000	0.023722  
1026.000000	0.022888  
1025.000000	0.021981  
1024.000000	0.021071  
1023.000000	0.020211  
1022.000000	0.019422  
1021.000000	0.018683  
1020.000000	0.017979  
1019.000000	0.017351  
1018.000000	0.016881  
1017.000000	0.016618  
1016.000000	0.016551  
1015.000000	0.016631  
1014.000000	0.016806  
1013.000000	0.017013  
1012.000000	0.017167  
1011.000000	0.017175  
1010.000000	0.016995  
1009.000000	0.016668  
1008.000000	0.016286  
1007.000000	0.015903  
1006.000000	0.015492  
1005.000000	0.015011  
1004.000000	0.014492  
1003.000000	0.014025  
1002.000000	0.013668  
1001.000000	0.013407  
1000.000000	0.013226  
999.000000	 0.013153  
998.000000	 0.013216  
997.000000	 0.013383  
996.000000	 0.013587  
995.000000	 0.013795  
994.000000	 0.013994  
993.000000	 0.014138  
992.000000	 0.014162  
991.000000	 0.014049  
990.000000	 0.013850  
989.000000	 0.013618  
988.000000	 0.013360  
987.000000	 0.013061  
986.000000	 0.012736  
985.000000	 0.012421  
984.000000	 0.012144  
983.000000	 0.011929  
982.000000	 0.011799  
981.000000	 0.011773  
980.000000	 0.011840  
979.000000	 0.011969  
978.000000	 0.012142  
977.000000	 0.012364  
976.000000	 0.012646  
975.000000	 0.012981  
974.000000	 0.013339  
973.000000	 0.013676  
972.000000	 0.013946  
971.000000	 0.014136  
970.000000	 0.014277  
969.000000	 0.014432  
968.000000	 0.014635  
967.000000	 0.014860  
966.000000	 0.015043  
965.000000	 0.015136  
964.000000	 0.015131  
963.000000	 0.015055  
962.000000	 0.014952  
961.000000	 0.014873  
960.000000	 0.014863  
959.000000	 0.014946  
958.000000	 0.015119  
957.000000	 0.015360  
956.000000	 0.015635  
955.000000	 0.015903  
954.000000	 0.016123  
953.000000	 0.016264  
952.000000	 0.016289  
951.000000	 0.016155  
950.000000	 0.015856  
949.000000	 0.015463  
948.000000	 0.015068  
947.000000	 0.014707  
946.000000	 0.014338  
945.000000	 0.013934  
944.000000	 0.013547  
943.000000	 0.013251  
942.000000	 0.013033  
941.000000	 0.012796  
940.000000	 0.012449  
939.000000	 0.011993  
938.000000	 0.011496  
937.000000	 0.011043  
936.000000	 0.010686  
935.000000	 0.010424  
934.000000	 0.010213  
933.000000	 0.010009  
932.000000	 0.009808  
931.000000	 0.009625  
930.000000	 0.009456  
929.000000	 0.009296  
928.000000	 0.009182  
927.000000	 0.009167  
926.000000	 0.009239  
925.000000	 0.009318  
924.000000	 0.009365  
923.000000	 0.009437  
922.000000	 0.009607  
921.000000	 0.009861  
920.000000	 0.010109  
919.000000	 0.010270  
918.000000	 0.010312  
917.000000	 0.010235  
916.000000	 0.010076  
915.000000	 0.009920  
914.000000	 0.009841  
913.000000	 0.009832  
912.000000	 0.009819  
911.000000	 0.009753  
910.000000	 0.009645  
909.000000	 0.009516  
908.000000	 0.009364  
907.000000	 0.009209  
906.000000	 0.009109  
905.000000	 0.009088  
904.000000	 0.009109  
903.000000	 0.009141  
902.000000	 0.009223  
901.000000	 0.009392  
900.000000	 0.009562  
899.000000	 0.009568  
898.000000	 0.009354  
897.000000	 0.009053  
896.000000	 0.008857  
895.000000	 0.008836  
894.000000	 0.008918  
893.000000	 0.009005  
892.000000	 0.009047  
891.000000	 0.009039  
890.000000	 0.008993  
889.000000	 0.008939  
888.000000	 0.008897  
887.000000	 0.008855  
886.000000	 0.008795  
885.000000	 0.008748  
884.000000	 0.008787  
883.000000	 0.008939  
882.000000	 0.009137  
881.000000	 0.009275  
880.000000	 0.009298  
879.000000	 0.009214  
878.000000	 0.009072  
877.000000	 0.008952  
876.000000	 0.008922  
875.000000	 0.008986  
874.000000	 0.009079  
873.000000	 0.009151  
872.000000	 0.009214  
871.000000	 0.009284  
870.000000	 0.009320  
869.000000	 0.009287  
868.000000	 0.009230  
867.000000	 0.009235  
866.000000	 0.009310  
865.000000	 0.009375  
864.000000	 0.009373  
863.000000	 0.009341  
862.000000	 0.009348  
861.000000	 0.009407  
860.000000	 0.009471  
859.000000	 0.009522  
858.000000	 0.009615  
857.000000	 0.009834  
856.000000	 0.010202  
855.000000	 0.010636  
854.000000	 0.011035  
853.000000	 0.011416  
852.000000	 0.011919  
851.000000	 0.012638  
850.000000	 0.013474  
849.000000	 0.014206  
848.000000	 0.014683  
847.000000	 0.014901  
846.000000	 0.014911  
845.000000	 0.014740  
844.000000	 0.014418  
843.000000	 0.014012  
842.000000	 0.013580  
841.000000	 0.013120  
840.000000	 0.012610  
839.000000	 0.012090  
838.000000	 0.011641  
837.000000	 0.011296  
836.000000	 0.011017  
835.000000	 0.010755  
834.000000	 0.010505  
833.000000	 0.010307  
832.000000	 0.010196  
831.000000	 0.010153  
830.000000	 0.010095  
829.000000	 0.009922  
828.000000	 0.009645  
827.000000	 0.009417  
826.000000	 0.009393  
825.000000	 0.009550  
824.000000	 0.009721  
823.000000	 0.009813  
822.000000	 0.009893  
821.000000	 0.010033  
820.000000	 0.010189  
819.000000	 0.010279  
818.000000	 0.010312  
817.000000	 0.010357  
816.000000	 0.010444  
815.000000	 0.010537  
814.000000	 0.010615  
813.000000	 0.010700  
812.000000	 0.010805  
811.000000	 0.010893  
810.000000	 0.010935  
809.000000	 0.010972  
808.000000	 0.011084  
807.000000	 0.011308  
806.000000	 0.011591  
805.000000	 0.011816  
804.000000	 0.011842  
803.000000	 0.011583  
802.000000	 0.011096  
801.000000	 0.010569  
800.000000	 0.010170  
799.000000	 0.009918  
798.000000	 0.009734  
797.000000	 0.009578  
796.000000	 0.009459  
795.000000	 0.009355  
794.000000	 0.009227  
793.000000	 0.009132  
792.000000	 0.009205  
791.000000	 0.009474  
790.000000	 0.009788  
789.000000	 0.010005  
788.000000	 0.010167  
787.000000	 0.010408  
786.000000	 0.010744  
785.000000	 0.011084  
784.000000	 0.011393  
783.000000	 0.011724  
782.000000	 0.012091  
781.000000	 0.012428  
780.000000	 0.012693  
779.000000	 0.012916  
778.000000	 0.013110  
777.000000	 0.013243  
776.000000	 0.013331  
775.000000	 0.013480  
774.000000	 0.013778  
773.000000	 0.014202  
772.000000	 0.014680  
771.000000	 0.015172  
770.000000	 0.015624  
769.000000	 0.015942  
768.000000	 0.016088  
767.000000	 0.016177  
766.000000	 0.016363  
765.000000	 0.016637  
764.000000	 0.016831  
763.000000	 0.016816  
762.000000	 0.016654  
761.000000	 0.016505  
760.000000	 0.016470  
759.000000	 0.016554  
758.000000	 0.016728  
757.000000	 0.016984  
756.000000	 0.017330  
755.000000	 0.017737  
754.000000	 0.018133  
753.000000	 0.018443  
752.000000	 0.018694  
751.000000	 0.019029  
750.000000	 0.019574  
749.000000	 0.020286  
748.000000	 0.020994  
747.000000	 0.021639  
746.000000	 0.022395  
745.000000	 0.023493  
744.000000	 0.024947  
743.000000	 0.026515  
742.000000	 0.027928  
741.000000	 0.029082  
740.000000	 0.030011  
739.000000	 0.030752  
738.000000	 0.031285  
737.000000	 0.031582  
736.000000	 0.031672  
735.000000	 0.031642  
734.000000	 0.031611  
733.000000	 0.031692  
732.000000	 0.031968  
731.000000	 0.032475  
730.000000	 0.033195  
729.000000	 0.034076  
728.000000	 0.035070  
727.000000	 0.036164  
726.000000	 0.037340  
725.000000	 0.038486  
724.000000	 0.039378  
723.000000	 0.039748  
722.000000	 0.039414  
721.000000	 0.038400  
720.000000	 0.036957  
719.000000	 0.035422  
718.000000	 0.034000  
717.000000	 0.032711  
716.000000	 0.031507  
715.000000	 0.030387  
714.000000	 0.029403  
713.000000	 0.028596  
712.000000	 0.027947  
711.000000	 0.027374  
710.000000	 0.026807  
709.000000	 0.026274  
708.000000	 0.025872  
707.000000	 0.025651  
706.000000	 0.025540  
705.000000	 0.025453  
704.000000	 0.025416  
703.000000	 0.025489  
702.000000	 0.025607  
701.000000	 0.025626  
700.000000	 0.025492  
699.000000	 0.025256  
698.000000	 0.024887  
697.000000	 0.024255  
696.000000	 0.023359  
695.000000	 0.022431  
694.000000	 0.021716  
693.000000	 0.021222  
692.000000	 0.020797  
691.000000	 0.020388  
690.000000	 0.020077  
689.000000	 0.019909  
688.000000	 0.019806  
687.000000	 0.019646  
686.000000	 0.019367  
685.000000	 0.018982  
684.000000	 0.018556  
683.000000	 0.018164  
682.000000	 0.017802  
681.000000	 0.017380  
680.000000	 0.016877  
679.000000	 0.016435  
678.000000	 0.016184  
677.000000	 0.016051  
676.000000	 0.015936  
675.000000	 0.015880  
674.000000	 0.015949  
673.000000	 0.016062  
672.000000	 0.016166  
671.000000	 0.016518  
670.000000	 0.017536  
669.000000	 0.019277  
668.000000	 0.020313  
667.000000	 0.018811  
666.000000	 0.016233  
665.000000	 0.014433  
664.000000	 0.013657  
663.000000	 0.013504  
662.000000	 0.013482  
661.000000	 0.013301  
660.000000	 0.013023  
659.000000	 0.012901  
658.000000	 0.013070  
657.000000	 0.013338  
656.000000	 0.013390  
655.000000	 0.013105  
654.000000	 0.012716  
653.000000	 0.012566  
652.000000	 0.012769  
651.000000	 0.013081  
650.000000	 0.013238  

