PE IR                   SPECTRUM    ASCII       PEDS        1.60        
  -1
NB460~1.ASC
17/05/24
07:57:43.00
17/05/24
07:57:43.00
Admin

650.000000
4









SPECTRUM ONE,CPU32 MAIN 00.02.6000 25-JUNE-2003 12:00:00
MIR TGS
MIR
OPTKBR
68128
0.200000

4.000000
STRONG
RATIO
SPECTRUM
MAGNITUDE
UNIVERSAL ATR
DOUBLE

COMBINED


0


#HDR
-1
-1
#GR
CM-1
A
0.00000011920928955078
0.0
4000.000000
-1.000000
3351
8
0.183688
-0.000955
#DATA
4000.000000	0.004229  
3999.000000	0.004181  
3998.000000	0.004168  
3997.000000	0.004153  
3996.000000	0.004093  
3995.000000	0.003973  
3994.000000	0.003822  
3993.000000	0.003693  
3992.000000	0.003623  
3991.000000	0.003624  
3990.000000	0.003696  
3989.000000	0.003828  
3988.000000	0.003986  
3987.000000	0.004117  
3986.000000	0.004163  
3985.000000	0.004099  
3984.000000	0.003947  
3983.000000	0.003768  
3982.000000	0.003621  
3981.000000	0.003529  
3980.000000	0.003471  
3979.000000	0.003411  
3978.000000	0.003333  
3977.000000	0.003263  
3976.000000	0.003252  
3975.000000	0.003336  
3974.000000	0.003503  
3973.000000	0.003701  
3972.000000	0.003869  
3971.000000	0.003966  
3970.000000	0.003990  
3969.000000	0.003958  
3968.000000	0.003883  
3967.000000	0.003771  
3966.000000	0.003640  
3965.000000	0.003530  
3964.000000	0.003476  
3963.000000	0.003480  
3962.000000	0.003511  
3961.000000	0.003535  
3960.000000	0.003539  
3959.000000	0.003528  
3958.000000	0.003513  
3957.000000	0.003514  
3956.000000	0.003541  
3955.000000	0.003576  
3954.000000	0.003580  
3953.000000	0.003522  
3952.000000	0.003414  
3951.000000	0.003306  
3950.000000	0.003259  
3949.000000	0.003285  
3948.000000	0.003343  
3947.000000	0.003381  
3946.000000	0.003387  
3945.000000	0.003399  
3944.000000	0.003470  
3943.000000	0.003622  
3942.000000	0.003818  
3941.000000	0.003981  
3940.000000	0.004041  
3939.000000	0.003974  
3938.000000	0.003826  
3937.000000	0.003688  
3936.000000	0.003626  
3935.000000	0.003635  
3934.000000	0.003659  
3933.000000	0.003658  
3932.000000	0.003658  
3931.000000	0.003699  
3930.000000	0.003762  
3929.000000	0.003791  
3928.000000	0.003765  
3927.000000	0.003700  
3926.000000	0.003606  
3925.000000	0.003473  
3924.000000	0.003292  
3923.000000	0.003092  
3922.000000	0.002929  
3921.000000	0.002880  
3920.000000	0.003007  
3919.000000	0.003291  
3918.000000	0.003603  
3917.000000	0.003808  
3916.000000	0.003891  
3915.000000	0.003935  
3914.000000	0.003993  
3913.000000	0.004049  
3912.000000	0.004053  
3911.000000	0.003971  
3910.000000	0.003806  
3909.000000	0.003587  
3908.000000	0.003378  
3907.000000	0.003263  
3906.000000	0.003302  
3905.000000	0.003464  
3904.000000	0.003621  
3903.000000	0.003657  
3902.000000	0.003584  
3901.000000	0.003503  
3900.000000	0.003493  
3899.000000	0.003555  
3898.000000	0.003628  
3897.000000	0.003656  
3896.000000	0.003614  
3895.000000	0.003527  
3894.000000	0.003440  
3893.000000	0.003361  
3892.000000	0.003243  
3891.000000	0.003078  
3890.000000	0.002954  
3889.000000	0.002982  
3888.000000	0.003151  
3887.000000	0.003293  
3886.000000	0.003243  
3885.000000	0.003065  
3884.000000	0.002977  
3883.000000	0.003089  
3882.000000	0.003304  
3881.000000	0.003438  
3880.000000	0.003402  
3879.000000	0.003280  
3878.000000	0.003196  
3877.000000	0.003180  
3876.000000	0.003172  
3875.000000	0.003101  
3874.000000	0.002996  
3873.000000	0.002965  
3872.000000	0.003054  
3871.000000	0.003184  
3870.000000	0.003271  
3869.000000	0.003360  
3868.000000	0.003538  
3867.000000	0.003768  
3866.000000	0.003886  
3865.000000	0.003804  
3864.000000	0.003600  
3863.000000	0.003390  
3862.000000	0.003194  
3861.000000	0.002991  
3860.000000	0.002773  
3859.000000	0.002555  
3858.000000	0.002369  
3857.000000	0.002275  
3856.000000	0.002322  
3855.000000	0.002442  
3854.000000	0.002558  
3853.000000	0.002728  
3852.000000	0.002947  
3851.000000	0.003142  
3850.000000	0.003250  
3849.000000	0.003265  
3848.000000	0.003231  
3847.000000	0.003176  
3846.000000	0.003098  
3845.000000	0.003008  
3844.000000	0.002971  
3843.000000	0.003061  
3842.000000	0.003285  
3841.000000	0.003544  
3840.000000	0.003698  
3839.000000	0.003700  
3838.000000	0.003628  
3837.000000	0.003563  
3836.000000	0.003524  
3835.000000	0.003505  
3834.000000	0.003497  
3833.000000	0.003488  
3832.000000	0.003470  
3831.000000	0.003457  
3830.000000	0.003482  
3829.000000	0.003550  
3828.000000	0.003587  
3827.000000	0.003497  
3826.000000	0.003274  
3825.000000	0.003041  
3824.000000	0.002931  
3823.000000	0.002955  
3822.000000	0.003022  
3821.000000	0.003090  
3820.000000	0.003207  
3819.000000	0.003433  
3818.000000	0.003719  
3817.000000	0.003872  
3816.000000	0.003786  
3815.000000	0.003606  
3814.000000	0.003499  
3813.000000	0.003442  
3812.000000	0.003330  
3811.000000	0.003163  
3810.000000	0.003058  
3809.000000	0.003090  
3808.000000	0.003185  
3807.000000	0.003240  
3806.000000	0.003297  
3805.000000	0.003469  
3804.000000	0.003722  
3803.000000	0.003805  
3802.000000	0.003518  
3801.000000	0.003069  
3800.000000	0.002824  
3799.000000	0.002883  
3798.000000	0.003072  
3797.000000	0.003175  
3796.000000	0.003134  
3795.000000	0.003048  
3794.000000	0.003021  
3793.000000	0.003066  
3792.000000	0.003151  
3791.000000	0.003249  
3790.000000	0.003344  
3789.000000	0.003428  
3788.000000	0.003504  
3787.000000	0.003571  
3786.000000	0.003603  
3785.000000	0.003567  
3784.000000	0.003477  
3783.000000	0.003398  
3782.000000	0.003373  
3781.000000	0.003377  
3780.000000	0.003362  
3779.000000	0.003323  
3778.000000	0.003289  
3777.000000	0.003262  
3776.000000	0.003192  
3775.000000	0.003050  
3774.000000	0.002892  
3773.000000	0.002822  
3772.000000	0.002840  
3771.000000	0.002819  
3770.000000	0.002671  
3769.000000	0.002500  
3768.000000	0.002499  
3767.000000	0.002718  
3766.000000	0.003001  
3765.000000	0.003161  
3764.000000	0.003172  
3763.000000	0.003144  
3762.000000	0.003148  
3761.000000	0.003180  
3760.000000	0.003219  
3759.000000	0.003240  
3758.000000	0.003201  
3757.000000	0.003083  
3756.000000	0.002913  
3755.000000	0.002719  
3754.000000	0.002501  
3753.000000	0.002289  
3752.000000	0.002232  
3751.000000	0.002444  
3750.000000	0.002725  
3749.000000	0.002851  
3748.000000	0.002912  
3747.000000	0.003088  
3746.000000	0.003343  
3745.000000	0.003413  
3744.000000	0.003250  
3743.000000	0.003118  
3742.000000	0.003121  
3741.000000	0.003130  
3740.000000	0.003051  
3739.000000	0.002953  
3738.000000	0.002945  
3737.000000	0.003011  
3736.000000	0.003049  
3735.000000	0.003045  
3734.000000	0.003080  
3733.000000	0.003146  
3732.000000	0.003150  
3731.000000	0.003069  
3730.000000	0.002957  
3729.000000	0.002843  
3728.000000	0.002694  
3727.000000	0.002502  
3726.000000	0.002352  
3725.000000	0.002347  
3724.000000	0.002489  
3723.000000	0.002704  
3722.000000	0.002908  
3721.000000	0.003047  
3720.000000	0.003085  
3719.000000	0.002982  
3718.000000	0.002721  
3717.000000	0.002362  
3716.000000	0.002036  
3715.000000	0.001850  
3714.000000	0.001817  
3713.000000	0.001888  
3712.000000	0.002053  
3711.000000	0.002304  
3710.000000	0.002545  
3709.000000	0.002687  
3708.000000	0.002733  
3707.000000	0.002747  
3706.000000	0.002800  
3705.000000	0.002918  
3704.000000	0.003061  
3703.000000	0.003144  
3702.000000	0.003116  
3701.000000	0.003007  
3700.000000	0.002897  
3699.000000	0.002842  
3698.000000	0.002831  
3697.000000	0.002822  
3696.000000	0.002810  
3695.000000	0.002829  
3694.000000	0.002904  
3693.000000	0.003041  
3692.000000	0.003227  
3691.000000	0.003410  
3690.000000	0.003485  
3689.000000	0.003405  
3688.000000	0.003270  
3687.000000	0.003220  
3686.000000	0.003270  
3685.000000	0.003315  
3684.000000	0.003261  
3683.000000	0.003120  
3682.000000	0.002959  
3681.000000	0.002801  
3680.000000	0.002639  
3679.000000	0.002526  
3678.000000	0.002556  
3677.000000	0.002726  
3676.000000	0.002905  
3675.000000	0.002973  
3674.000000	0.002991  
3673.000000	0.003123  
3672.000000	0.003393  
3671.000000	0.003661  
3670.000000	0.003760  
3669.000000	0.003648  
3668.000000	0.003417  
3667.000000	0.003160  
3666.000000	0.002936  
3665.000000	0.002805  
3664.000000	0.002810  
3663.000000	0.002919  
3662.000000	0.003027  
3661.000000	0.003048  
3660.000000	0.003001  
3659.000000	0.002971  
3658.000000	0.003011  
3657.000000	0.003090  
3656.000000	0.003180  
3655.000000	0.003311  
3654.000000	0.003506  
3653.000000	0.003697  
3652.000000	0.003741  
3651.000000	0.003607  
3650.000000	0.003602  
3649.000000	0.003975  
3648.000000	0.004384  
3647.000000	0.004475  
3646.000000	0.004305  
3645.000000	0.004082  
3644.000000	0.003928  
3643.000000	0.003862  
3642.000000	0.003853  
3641.000000	0.003866  
3640.000000	0.003859  
3639.000000	0.003781  
3638.000000	0.003618  
3637.000000	0.003430  
3636.000000	0.003289  
3635.000000	0.003208  
3634.000000	0.003159  
3633.000000	0.003153  
3632.000000	0.003263  
3631.000000	0.003548  
3630.000000	0.003929  
3629.000000	0.004205  
3628.000000	0.004251  
3627.000000	0.004131  
3626.000000	0.003931  
3625.000000	0.003696  
3624.000000	0.003505  
3623.000000	0.003485  
3622.000000	0.003709  
3621.000000	0.004096  
3620.000000	0.004423  
3619.000000	0.004511  
3618.000000	0.004387  
3617.000000	0.004179  
3616.000000	0.003952  
3615.000000	0.003707  
3614.000000	0.003470  
3613.000000	0.003312  
3612.000000	0.003272  
3611.000000	0.003325  
3610.000000	0.003415  
3609.000000	0.003528  
3608.000000	0.003691  
3607.000000	0.003911  
3606.000000	0.004154  
3605.000000	0.004373  
3604.000000	0.004530  
3603.000000	0.004600  
3602.000000	0.004583  
3601.000000	0.004540  
3600.000000	0.004565  
3599.000000	0.004669  
3598.000000	0.004755  
3597.000000	0.004711  
3596.000000	0.004543  
3595.000000	0.004374  
3594.000000	0.004328  
3593.000000	0.004407  
3592.000000	0.004537  
3591.000000	0.004663  
3590.000000	0.004764  
3589.000000	0.004813  
3588.000000	0.004791  
3587.000000	0.004752  
3586.000000	0.004775  
3585.000000	0.004860  
3584.000000	0.004944  
3583.000000	0.004978  
3582.000000	0.004978  
3581.000000	0.005007  
3580.000000	0.005119  
3579.000000	0.005292  
3578.000000	0.005438  
3577.000000	0.005489  
3576.000000	0.005461  
3575.000000	0.005437  
3574.000000	0.005469  
3573.000000	0.005532  
3572.000000	0.005565  
3571.000000	0.005552  
3570.000000	0.005543  
3569.000000	0.005610  
3568.000000	0.005760  
3567.000000	0.005917  
3566.000000	0.006020  
3565.000000	0.006091  
3564.000000	0.006174  
3563.000000	0.006290  
3562.000000	0.006432  
3561.000000	0.006567  
3560.000000	0.006657  
3559.000000	0.006683  
3558.000000	0.006658  
3557.000000	0.006620  
3556.000000	0.006609  
3555.000000	0.006657  
3554.000000	0.006763  
3553.000000	0.006877  
3552.000000	0.006938  
3551.000000	0.006915  
3550.000000	0.006836  
3549.000000	0.006761  
3548.000000	0.006745  
3547.000000	0.006802  
3546.000000	0.006894  
3545.000000	0.006987  
3544.000000	0.007089  
3543.000000	0.007227  
3542.000000	0.007396  
3541.000000	0.007555  
3540.000000	0.007664  
3539.000000	0.007705  
3538.000000	0.007690  
3537.000000	0.007640  
3536.000000	0.007591  
3535.000000	0.007576  
3534.000000	0.007616  
3533.000000	0.007690  
3532.000000	0.007747  
3531.000000	0.007729  
3530.000000	0.007622  
3529.000000	0.007485  
3528.000000	0.007430  
3527.000000	0.007539  
3526.000000	0.007801  
3525.000000	0.008115  
3524.000000	0.008367  
3523.000000	0.008514  
3522.000000	0.008602  
3521.000000	0.008699  
3520.000000	0.008824  
3519.000000	0.008939  
3518.000000	0.009010  
3517.000000	0.009060  
3516.000000	0.009150  
3515.000000	0.009298  
3514.000000	0.009447  
3513.000000	0.009522  
3512.000000	0.009522  
3511.000000	0.009540  
3510.000000	0.009652  
3509.000000	0.009817  
3508.000000	0.009923  
3507.000000	0.009924  
3506.000000	0.009879  
3505.000000	0.009875  
3504.000000	0.009932  
3503.000000	0.009995  
3502.000000	0.010020  
3501.000000	0.010020  
3500.000000	0.010019  
3499.000000	0.010026  
3498.000000	0.010057  
3497.000000	0.010152  
3496.000000	0.010330  
3495.000000	0.010540  
3494.000000	0.010694  
3493.000000	0.010769  
3492.000000	0.010833  
3491.000000	0.010961  
3490.000000	0.011137  
3489.000000	0.011265  
3488.000000	0.011287  
3487.000000	0.011271  
3486.000000	0.011345  
3485.000000	0.011553  
3484.000000	0.011807  
3483.000000	0.011962  
3482.000000	0.011946  
3481.000000	0.011829  
3480.000000	0.011758  
3479.000000	0.011833  
3478.000000	0.012053  
3477.000000	0.012346  
3476.000000	0.012628  
3475.000000	0.012846  
3474.000000	0.012972  
3473.000000	0.013005  
3472.000000	0.012958  
3471.000000	0.012862  
3470.000000	0.012760  
3469.000000	0.012693  
3468.000000	0.012699  
3467.000000	0.012793  
3466.000000	0.012955  
3465.000000	0.013131  
3464.000000	0.013271  
3463.000000	0.013368  
3462.000000	0.013445  
3461.000000	0.013530  
3460.000000	0.013627  
3459.000000	0.013722  
3458.000000	0.013800  
3457.000000	0.013844  
3456.000000	0.013855  
3455.000000	0.013862  
3454.000000	0.013911  
3453.000000	0.014023  
3452.000000	0.014173  
3451.000000	0.014312  
3450.000000	0.014416  
3449.000000	0.014505  
3448.000000	0.014623  
3447.000000	0.014795  
3446.000000	0.014983  
3445.000000	0.015118  
3444.000000	0.015155  
3443.000000	0.015117  
3442.000000	0.015076  
3441.000000	0.015093  
3440.000000	0.015179  
3439.000000	0.015309  
3438.000000	0.015446  
3437.000000	0.015566  
3436.000000	0.015660  
3435.000000	0.015731  
3434.000000	0.015786  
3433.000000	0.015830  
3432.000000	0.015872  
3431.000000	0.015938  
3430.000000	0.016048  
3429.000000	0.016187  
3428.000000	0.016306  
3427.000000	0.016364  
3426.000000	0.016368  
3425.000000	0.016359  
3424.000000	0.016369  
3423.000000	0.016395  
3422.000000	0.016428  
3421.000000	0.016475  
3420.000000	0.016555  
3419.000000	0.016667  
3418.000000	0.016782  
3417.000000	0.016881  
3416.000000	0.016976  
3415.000000	0.017095  
3414.000000	0.017238  
3413.000000	0.017372  
3412.000000	0.017469  
3411.000000	0.017532  
3410.000000	0.017587  
3409.000000	0.017660  
3408.000000	0.017781  
3407.000000	0.017979  
3406.000000	0.018249  
3405.000000	0.018509  
3404.000000	0.018635  
3403.000000	0.018552  
3402.000000	0.018315  
3401.000000	0.018077  
3400.000000	0.017989  
3399.000000	0.018092  
3398.000000	0.018295  
3397.000000	0.018452  
3396.000000	0.018488  
3395.000000	0.018464  
3394.000000	0.018511  
3393.000000	0.018705  
3392.000000	0.018995  
3391.000000	0.019255  
3390.000000	0.019385  
3389.000000	0.019375  
3388.000000	0.019306  
3387.000000	0.019288  
3386.000000	0.019385  
3385.000000	0.019568  
3384.000000	0.019741  
3383.000000	0.019828  
3382.000000	0.019845  
3381.000000	0.019862  
3380.000000	0.019924  
3379.000000	0.019997  
3378.000000	0.020020  
3377.000000	0.019984  
3376.000000	0.019946  
3375.000000	0.019962  
3374.000000	0.020028  
3373.000000	0.020090  
3372.000000	0.020122  
3371.000000	0.020172  
3370.000000	0.020299  
3369.000000	0.020509  
3368.000000	0.020736  
3367.000000	0.020901  
3366.000000	0.020959  
3365.000000	0.020918  
3364.000000	0.020823  
3363.000000	0.020751  
3362.000000	0.020768  
3361.000000	0.020886  
3360.000000	0.021054  
3359.000000	0.021211  
3358.000000	0.021326  
3357.000000	0.021394  
3356.000000	0.021408  
3355.000000	0.021362  
3354.000000	0.021270  
3353.000000	0.021167  
3352.000000	0.021086  
3351.000000	0.021056  
3350.000000	0.021097  
3349.000000	0.021205  
3348.000000	0.021327  
3347.000000	0.021384  
3346.000000	0.021345  
3345.000000	0.021270  
3344.000000	0.021265  
3343.000000	0.021375  
3342.000000	0.021543  
3341.000000	0.021661  
3340.000000	0.021664  
3339.000000	0.021570  
3338.000000	0.021445  
3337.000000	0.021344  
3336.000000	0.021294  
3335.000000	0.021307  
3334.000000	0.021378  
3333.000000	0.021479  
3332.000000	0.021560  
3331.000000	0.021577  
3330.000000	0.021516  
3329.000000	0.021406  
3328.000000	0.021302  
3327.000000	0.021257  
3326.000000	0.021289  
3325.000000	0.021373  
3324.000000	0.021464  
3323.000000	0.021525  
3322.000000	0.021541  
3321.000000	0.021524  
3320.000000	0.021500  
3319.000000	0.021490  
3318.000000	0.021484  
3317.000000	0.021454  
3316.000000	0.021387  
3315.000000	0.021314  
3314.000000	0.021272  
3313.000000	0.021246  
3312.000000	0.021189  
3311.000000	0.021079  
3310.000000	0.020953  
3309.000000	0.020866  
3308.000000	0.020829  
3307.000000	0.020819  
3306.000000	0.020810  
3305.000000	0.020780  
3304.000000	0.020703  
3303.000000	0.020560  
3302.000000	0.020365  
3301.000000	0.020174  
3300.000000	0.020051  
3299.000000	0.020018  
3298.000000	0.020043  
3297.000000	0.020056  
3296.000000	0.020001  
3295.000000	0.019872  
3294.000000	0.019714  
3293.000000	0.019601  
3292.000000	0.019570  
3291.000000	0.019589  
3290.000000	0.019567  
3289.000000	0.019433  
3288.000000	0.019220  
3287.000000	0.019052  
3286.000000	0.019018  
3285.000000	0.019065  
3284.000000	0.019051  
3283.000000	0.018903  
3282.000000	0.018708  
3281.000000	0.018600  
3280.000000	0.018605  
3279.000000	0.018614  
3278.000000	0.018508  
3277.000000	0.018275  
3276.000000	0.018004  
3275.000000	0.017801  
3274.000000	0.017705  
3273.000000	0.017683  
3272.000000	0.017665  
3271.000000	0.017598  
3270.000000	0.017485  
3269.000000	0.017367  
3268.000000	0.017281  
3267.000000	0.017223  
3266.000000	0.017156  
3265.000000	0.017050  
3264.000000	0.016912  
3263.000000	0.016786  
3262.000000	0.016717  
3261.000000	0.016712  
3260.000000	0.016739  
3259.000000	0.016759  
3258.000000	0.016754  
3257.000000	0.016717  
3256.000000	0.016625  
3255.000000	0.016468  
3254.000000	0.016279  
3253.000000	0.016125  
3252.000000	0.016038  
3251.000000	0.015975  
3250.000000	0.015873  
3249.000000	0.015712  
3248.000000	0.015532  
3247.000000	0.015376  
3246.000000	0.015258  
3245.000000	0.015163  
3244.000000	0.015066  
3243.000000	0.014941  
3242.000000	0.014771  
3241.000000	0.014563  
3240.000000	0.014345  
3239.000000	0.014153  
3238.000000	0.014016  
3237.000000	0.013962  
3236.000000	0.013998  
3235.000000	0.014082  
3234.000000	0.014120  
3233.000000	0.014043  
3232.000000	0.013867  
3231.000000	0.013683  
3230.000000	0.013567  
3229.000000	0.013530  
3228.000000	0.013538  
3227.000000	0.013564  
3226.000000	0.013591  
3225.000000	0.013594  
3224.000000	0.013535  
3223.000000	0.013392  
3222.000000	0.013161  
3221.000000	0.012854  
3220.000000	0.012520  
3219.000000	0.012252  
3218.000000	0.012129  
3217.000000	0.012137  
3216.000000	0.012165  
3215.000000	0.012119  
3214.000000	0.012003  
3213.000000	0.011892  
3212.000000	0.011835  
3211.000000	0.011812  
3210.000000	0.011776  
3209.000000	0.011698  
3208.000000	0.011571  
3207.000000	0.011415  
3206.000000	0.011287  
3205.000000	0.011244  
3204.000000	0.011280  
3203.000000	0.011313  
3202.000000	0.011253  
3201.000000	0.011090  
3200.000000	0.010899  
3199.000000	0.010774  
3198.000000	0.010756  
3197.000000	0.010800  
3196.000000	0.010807  
3195.000000	0.010705  
3194.000000	0.010511  
3193.000000	0.010318  
3192.000000	0.010200  
3191.000000	0.010147  
3190.000000	0.010092  
3189.000000	0.009996  
3188.000000	0.009882  
3187.000000	0.009787  
3186.000000	0.009734  
3185.000000	0.009730  
3184.000000	0.009768  
3183.000000	0.009817  
3182.000000	0.009817  
3181.000000	0.009722  
3180.000000	0.009537  
3179.000000	0.009312  
3178.000000	0.009103  
3177.000000	0.008935  
3176.000000	0.008820  
3175.000000	0.008764  
3174.000000	0.008766  
3173.000000	0.008798  
3172.000000	0.008819  
3171.000000	0.008807  
3170.000000	0.008778  
3169.000000	0.008758  
3168.000000	0.008754  
3167.000000	0.008750  
3166.000000	0.008740  
3165.000000	0.008738  
3164.000000	0.008738  
3163.000000	0.008686  
3162.000000	0.008515  
3161.000000	0.008239  
3160.000000	0.007976  
3159.000000	0.007850  
3158.000000	0.007875  
3157.000000	0.007953  
3156.000000	0.007986  
3155.000000	0.007976  
3154.000000	0.007987  
3153.000000	0.008045  
3152.000000	0.008090  
3151.000000	0.008044  
3150.000000	0.007893  
3149.000000	0.007706  
3148.000000	0.007566  
3147.000000	0.007489  
3146.000000	0.007416  
3145.000000	0.007283  
3144.000000	0.007090  
3143.000000	0.006902  
3142.000000	0.006788  
3141.000000	0.006764  
3140.000000	0.006800  
3139.000000	0.006856  
3138.000000	0.006906  
3137.000000	0.006941  
3136.000000	0.006963  
3135.000000	0.006970  
3134.000000	0.006955  
3133.000000	0.006907  
3132.000000	0.006827  
3131.000000	0.006734  
3130.000000	0.006632  
3129.000000	0.006509  
3128.000000	0.006362  
3127.000000	0.006230  
3126.000000	0.006170  
3125.000000	0.006201  
3124.000000	0.006284  
3123.000000	0.006369  
3122.000000	0.006426  
3121.000000	0.006451  
3120.000000	0.006448  
3119.000000	0.006425  
3118.000000	0.006388  
3117.000000	0.006339  
3116.000000	0.006281  
3115.000000	0.006236  
3114.000000	0.006231  
3113.000000	0.006248  
3112.000000	0.006223  
3111.000000	0.006106  
3110.000000	0.005931  
3109.000000	0.005781  
3108.000000	0.005712  
3107.000000	0.005712  
3106.000000	0.005732  
3105.000000	0.005724  
3104.000000	0.005664  
3103.000000	0.005564  
3102.000000	0.005471  
3101.000000	0.005446  
3100.000000	0.005507  
3099.000000	0.005617  
3098.000000	0.005720  
3097.000000	0.005785  
3096.000000	0.005822  
3095.000000	0.005858  
3094.000000	0.005896  
3093.000000	0.005898  
3092.000000	0.005823  
3091.000000	0.005686  
3090.000000	0.005555  
3089.000000	0.005485  
3088.000000	0.005462  
3087.000000	0.005430  
3086.000000	0.005370  
3085.000000	0.005321  
3084.000000	0.005324  
3083.000000	0.005368  
3082.000000	0.005410  
3081.000000	0.005422  
3080.000000	0.005414  
3079.000000	0.005410  
3078.000000	0.005426  
3077.000000	0.005463  
3076.000000	0.005505  
3075.000000	0.005527  
3074.000000	0.005509  
3073.000000	0.005442  
3072.000000	0.005336  
3071.000000	0.005217  
3070.000000	0.005129  
3069.000000	0.005123  
3068.000000	0.005223  
3067.000000	0.005396  
3066.000000	0.005565  
3065.000000	0.005663  
3064.000000	0.005688  
3063.000000	0.005688  
3062.000000	0.005702  
3061.000000	0.005718  
3060.000000	0.005707  
3059.000000	0.005671  
3058.000000	0.005641  
3057.000000	0.005642  
3056.000000	0.005662  
3055.000000	0.005684  
3054.000000	0.005716  
3053.000000	0.005776  
3052.000000	0.005864  
3051.000000	0.005953  
3050.000000	0.006008  
3049.000000	0.006011  
3048.000000	0.005974  
3047.000000	0.005933  
3046.000000	0.005924  
3045.000000	0.005951  
3044.000000	0.005985  
3043.000000	0.006004  
3042.000000	0.006022  
3041.000000	0.006060  
3040.000000	0.006107  
3039.000000	0.006131  
3038.000000	0.006126  
3037.000000	0.006136  
3036.000000	0.006201  
3035.000000	0.006320  
3034.000000	0.006472  
3033.000000	0.006656  
3032.000000	0.006872  
3031.000000	0.007076  
3030.000000	0.007199  
3029.000000	0.007222  
3028.000000	0.007218  
3027.000000	0.007291  
3026.000000	0.007476  
3025.000000	0.007699  
3024.000000	0.007859  
3023.000000	0.007940  
3022.000000	0.008042  
3021.000000	0.008281  
3020.000000	0.008688  
3019.000000	0.009191  
3018.000000	0.009698  
3017.000000	0.010163  
3016.000000	0.010578  
3015.000000	0.010928  
3014.000000	0.011197  
3013.000000	0.011403  
3012.000000	0.011602  
3011.000000	0.011821  
3010.000000	0.012021  
3009.000000	0.012127  
3008.000000	0.012117  
3007.000000	0.012030  
3006.000000	0.011921  
3005.000000	0.011806  
3004.000000	0.011674  
3003.000000	0.011538  
3002.000000	0.011434  
3001.000000	0.011393  
3000.000000	0.011406  
2999.000000	0.011445  
2998.000000	0.011498  
2997.000000	0.011571  
2996.000000	0.011665  
2995.000000	0.011764  
2994.000000	0.011867  
2993.000000	0.012010  
2992.000000	0.012242  
2991.000000	0.012591  
2990.000000	0.013055  
2989.000000	0.013631  
2988.000000	0.014306  
2987.000000	0.015050  
2986.000000	0.015821  
2985.000000	0.016619  
2984.000000	0.017506  
2983.000000	0.018545  
2982.000000	0.019750  
2981.000000	0.021106  
2980.000000	0.022650  
2979.000000	0.024460  
2978.000000	0.026564  
2977.000000	0.028894  
2976.000000	0.031393  
2975.000000	0.034135  
2974.000000	0.037308  
2973.000000	0.041037  
2972.000000	0.045282  
2971.000000	0.049900  
2970.000000	0.054800  
2969.000000	0.060008  
2968.000000	0.065579  
2967.000000	0.071468  
2966.000000	0.077489  
2965.000000	0.083409  
2964.000000	0.089082  
2963.000000	0.094470  
2962.000000	0.099540  
2961.000000	0.104166  
2960.000000	0.108137  
2959.000000	0.111226  
2958.000000	0.113262  
2957.000000	0.114172  
2956.000000	0.114013  
2955.000000	0.112957  
2954.000000	0.111210  
2953.000000	0.108942  
2952.000000	0.106312  
2951.000000	0.103522  
2950.000000	0.100833  
2949.000000	0.098512  
2948.000000	0.096747  
2947.000000	0.095627  
2946.000000	0.095175  
2945.000000	0.095427  
2944.000000	0.096458  
2943.000000	0.098348  
2942.000000	0.101106  
2941.000000	0.104638  
2940.000000	0.108815  
2939.000000	0.113548  
2938.000000	0.118783  
2937.000000	0.124428  
2936.000000	0.130333  
2935.000000	0.136341  
2934.000000	0.142340  
2933.000000	0.148253  
2932.000000	0.154016  
2931.000000	0.159575  
2930.000000	0.164877  
2929.000000	0.169839  
2928.000000	0.174318  
2927.000000	0.178117  
2926.000000	0.181039  
2925.000000	0.182929  
2924.000000	0.183688  
2923.000000	0.183260  
2922.000000	0.181661  
2921.000000	0.179023  
2920.000000	0.175569  
2919.000000	0.171525  
2918.000000	0.167075  
2917.000000	0.162380  
2916.000000	0.157609  
2915.000000	0.152890  
2914.000000	0.148270  
2913.000000	0.143745  
2912.000000	0.139321  
2911.000000	0.135043  
2910.000000	0.130982  
2909.000000	0.127196  
2908.000000	0.123694  
2907.000000	0.120422  
2906.000000	0.117294  
2905.000000	0.114229  
2904.000000	0.111192  
2903.000000	0.108200  
2902.000000	0.105303  
2901.000000	0.102544  
2900.000000	0.099901  
2899.000000	0.097288  
2898.000000	0.094624  
2897.000000	0.091914  
2896.000000	0.089224  
2895.000000	0.086611  
2894.000000	0.084093  
2893.000000	0.081696  
2892.000000	0.079460  
2891.000000	0.077401  
2890.000000	0.075500  
2889.000000	0.073738  
2888.000000	0.072138  
2887.000000	0.070767  
2886.000000	0.069720  
2885.000000	0.069106  
2884.000000	0.069013  
2883.000000	0.069476  
2882.000000	0.070501  
2881.000000	0.072105  
2880.000000	0.074321  
2879.000000	0.077130  
2878.000000	0.080406  
2877.000000	0.083928  
2876.000000	0.087424  
2875.000000	0.090586  
2874.000000	0.093104  
2873.000000	0.094775  
2872.000000	0.095605  
2871.000000	0.095805  
2870.000000	0.095678  
2869.000000	0.095496  
2868.000000	0.095435  
2867.000000	0.095594  
2866.000000	0.096049  
2865.000000	0.096897  
2864.000000	0.098226  
2863.000000	0.100032  
2862.000000	0.102206  
2861.000000	0.104596  
2860.000000	0.107053  
2859.000000	0.109402  
2858.000000	0.111448  
2857.000000	0.113026  
2856.000000	0.114021  
2855.000000	0.114268  
2854.000000	0.113500  
2853.000000	0.111482  
2852.000000	0.108209  
2851.000000	0.103925  
2850.000000	0.098962  
2849.000000	0.093604  
2848.000000	0.088077  
2847.000000	0.082583  
2846.000000	0.077288  
2845.000000	0.072283  
2844.000000	0.067556  
2843.000000	0.063004  
2842.000000	0.058518  
2841.000000	0.054096  
2840.000000	0.049876  
2839.000000	0.046036  
2838.000000	0.042662  
2837.000000	0.039726  
2836.000000	0.037148  
2835.000000	0.034846  
2834.000000	0.032745  
2833.000000	0.030789  
2832.000000	0.028975  
2831.000000	0.027342  
2830.000000	0.025916  
2829.000000	0.024664  
2828.000000	0.023525  
2827.000000	0.022455  
2826.000000	0.021442  
2825.000000	0.020497  
2824.000000	0.019644  
2823.000000	0.018903  
2822.000000	0.018267  
2821.000000	0.017706  
2820.000000	0.017186  
2819.000000	0.016693  
2818.000000	0.016206  
2817.000000	0.015698  
2816.000000	0.015165  
2815.000000	0.014651  
2814.000000	0.014208  
2813.000000	0.013848  
2812.000000	0.013534  
2811.000000	0.013219  
2810.000000	0.012872  
2809.000000	0.012492  
2808.000000	0.012103  
2807.000000	0.011746  
2806.000000	0.011449  
2805.000000	0.011214  
2804.000000	0.011027  
2803.000000	0.010875  
2802.000000	0.010725  
2801.000000	0.010526  
2800.000000	0.010255  
2799.000000	0.009959  
2798.000000	0.009724  
2797.000000	0.009591  
2796.000000	0.009527  
2795.000000	0.009474  
2794.000000	0.009404  
2793.000000	0.009328  
2792.000000	0.009255  
2791.000000	0.009176  
2790.000000	0.009074  
2789.000000	0.008934  
2788.000000	0.008757  
2787.000000	0.008550  
2786.000000	0.008318  
2785.000000	0.008072  
2784.000000	0.007831  
2783.000000	0.007628  
2782.000000	0.007473  
2781.000000	0.007343  
2780.000000	0.007209  
2779.000000	0.007069  
2778.000000	0.006936  
2777.000000	0.006804  
2776.000000	0.006649  
2775.000000	0.006477  
2774.000000	0.006335  
2773.000000	0.006263  
2772.000000	0.006257  
2771.000000	0.006277  
2770.000000	0.006296  
2769.000000	0.006307  
2768.000000	0.006304  
2767.000000	0.006273  
2766.000000	0.006213  
2765.000000	0.006145  
2764.000000	0.006104  
2763.000000	0.006107  
2762.000000	0.006127  
2761.000000	0.006114  
2760.000000	0.006039  
2759.000000	0.005931  
2758.000000	0.005850  
2757.000000	0.005828  
2756.000000	0.005841  
2755.000000	0.005842  
2754.000000	0.005803  
2753.000000	0.005725  
2752.000000	0.005625  
2751.000000	0.005525  
2750.000000	0.005457  
2749.000000	0.005441  
2748.000000	0.005475  
2747.000000	0.005534  
2746.000000	0.005591  
2745.000000	0.005635  
2744.000000	0.005673  
2743.000000	0.005714  
2742.000000	0.005757  
2741.000000	0.005796  
2740.000000	0.005827  
2739.000000	0.005848  
2738.000000	0.005858  
2737.000000	0.005858  
2736.000000	0.005871  
2735.000000	0.005933  
2734.000000	0.006051  
2733.000000	0.006173  
2732.000000	0.006218  
2731.000000	0.006150  
2730.000000	0.006004  
2729.000000	0.005855  
2728.000000	0.005752  
2727.000000	0.005700  
2726.000000	0.005664  
2725.000000	0.005613  
2724.000000	0.005553  
2723.000000	0.005533  
2722.000000	0.005590  
2721.000000	0.005695  
2720.000000	0.005762  
2719.000000	0.005734  
2718.000000	0.005629  
2717.000000	0.005510  
2716.000000	0.005412  
2715.000000	0.005327  
2714.000000	0.005241  
2713.000000	0.005156  
2712.000000	0.005080  
2711.000000	0.005007  
2710.000000	0.004922  
2709.000000	0.004820  
2708.000000	0.004714  
2707.000000	0.004630  
2706.000000	0.004584  
2705.000000	0.004561  
2704.000000	0.004542  
2703.000000	0.004528  
2702.000000	0.004541  
2701.000000	0.004588  
2700.000000	0.004641  
2699.000000	0.004667  
2698.000000	0.004657  
2697.000000	0.004628  
2696.000000	0.004602  
2695.000000	0.004601  
2694.000000	0.004636  
2693.000000	0.004693  
2692.000000	0.004722  
2691.000000	0.004678  
2690.000000	0.004555  
2689.000000	0.004401  
2688.000000	0.004286  
2687.000000	0.004254  
2686.000000	0.004297  
2685.000000	0.004366  
2684.000000	0.004419  
2683.000000	0.004455  
2682.000000	0.004502  
2681.000000	0.004564  
2680.000000	0.004603  
2679.000000	0.004592  
2678.000000	0.004548  
2677.000000	0.004514  
2676.000000	0.004505  
2675.000000	0.004514  
2674.000000	0.004537  
2673.000000	0.004582  
2672.000000	0.004641  
2671.000000	0.004681  
2670.000000	0.004680  
2669.000000	0.004648  
2668.000000	0.004606  
2667.000000	0.004549  
2666.000000	0.004457  
2665.000000	0.004334  
2664.000000	0.004228  
2663.000000	0.004189  
2662.000000	0.004217  
2661.000000	0.004254  
2660.000000	0.004239  
2659.000000	0.004175  
2658.000000	0.004120  
2657.000000	0.004128  
2656.000000	0.004199  
2655.000000	0.004267  
2654.000000	0.004249  
2653.000000	0.004110  
2652.000000	0.003910  
2651.000000	0.003761  
2650.000000	0.003726  
2649.000000	0.003754  
2648.000000	0.003749  
2647.000000	0.003680  
2646.000000	0.003604  
2645.000000	0.003569  
2644.000000	0.003559  
2643.000000	0.003535  
2642.000000	0.003508  
2641.000000	0.003511  
2640.000000	0.003538  
2639.000000	0.003551  
2638.000000	0.003530  
2637.000000	0.003489  
2636.000000	0.003439  
2635.000000	0.003374  
2634.000000	0.003296  
2633.000000	0.003231  
2632.000000	0.003205  
2631.000000	0.003216  
2630.000000	0.003237  
2629.000000	0.003247  
2628.000000	0.003257  
2627.000000	0.003300  
2626.000000	0.003389  
2625.000000	0.003472  
2624.000000	0.003477  
2623.000000	0.003378  
2622.000000	0.003227  
2621.000000	0.003097  
2620.000000	0.003021  
2619.000000	0.003001  
2618.000000	0.003026  
2617.000000	0.003056  
2616.000000	0.003021  
2615.000000	0.002899  
2614.000000	0.002773  
2613.000000	0.002759  
2612.000000	0.002869  
2611.000000	0.002997  
2610.000000	0.003051  
2609.000000	0.003057  
2608.000000	0.003113  
2607.000000	0.003255  
2606.000000	0.003409  
2605.000000	0.003469  
2604.000000	0.003389  
2603.000000	0.003217  
2602.000000	0.003033  
2601.000000	0.002886  
2600.000000	0.002781  
2599.000000	0.002713  
2598.000000	0.002682  
2597.000000	0.002681  
2596.000000	0.002673  
2595.000000	0.002621  
2594.000000	0.002528  
2593.000000	0.002447  
2592.000000	0.002443  
2591.000000	0.002543  
2590.000000	0.002725  
2589.000000	0.002916  
2588.000000	0.003027  
2587.000000	0.003017  
2586.000000	0.002926  
2585.000000	0.002857  
2584.000000	0.002878  
2583.000000	0.002960  
2582.000000	0.002998  
2581.000000	0.002911  
2580.000000	0.002716  
2579.000000	0.002507  
2578.000000	0.002360  
2577.000000	0.002276  
2576.000000	0.002215  
2575.000000	0.002179  
2574.000000	0.002207  
2573.000000	0.002309  
2572.000000	0.002420  
2571.000000	0.002456  
2570.000000	0.002379  
2569.000000	0.002221  
2568.000000	0.002053  
2567.000000	0.001969  
2566.000000	0.002034  
2565.000000	0.002223  
2564.000000	0.002415  
2563.000000	0.002495  
2562.000000	0.002452  
2561.000000	0.002380  
2560.000000	0.002373  
2559.000000	0.002450  
2558.000000	0.002549  
2557.000000	0.002587  
2556.000000	0.002514  
2555.000000	0.002349  
2554.000000	0.002169  
2553.000000	0.002047  
2552.000000	0.002000  
2551.000000	0.001992  
2550.000000	0.001965  
2549.000000	0.001876  
2548.000000	0.001733  
2547.000000	0.001633  
2546.000000	0.001699  
2545.000000	0.001960  
2544.000000	0.002286  
2543.000000	0.002497  
2542.000000	0.002513  
2541.000000	0.002387  
2540.000000	0.002216  
2539.000000	0.002062  
2538.000000	0.001961  
2537.000000	0.001923  
2536.000000	0.001918  
2535.000000	0.001882  
2534.000000	0.001778  
2533.000000	0.001629  
2532.000000	0.001498  
2531.000000	0.001457  
2530.000000	0.001557  
2529.000000	0.001799  
2528.000000	0.002093  
2527.000000	0.002291  
2526.000000	0.002291  
2525.000000	0.002114  
2524.000000	0.001881  
2523.000000	0.001722  
2522.000000	0.001702  
2521.000000	0.001797  
2520.000000	0.001911  
2519.000000	0.001935  
2518.000000	0.001836  
2517.000000	0.001687  
2516.000000	0.001592  
2515.000000	0.001592  
2514.000000	0.001653  
2513.000000	0.001739  
2512.000000	0.001829  
2511.000000	0.001890  
2510.000000	0.001888  
2509.000000	0.001852  
2508.000000	0.001870  
2507.000000	0.001956  
2506.000000	0.001996  
2505.000000	0.001874  
2504.000000	0.001657  
2503.000000	0.001550  
2502.000000	0.001661  
2501.000000	0.001883  
2500.000000	0.002051  
2499.000000	0.002115  
2498.000000	0.002123  
2497.000000	0.002104  
2496.000000	0.002051  
2495.000000	0.001979  
2494.000000	0.001905  
2493.000000	0.001798  
2492.000000	0.001628  
2491.000000	0.001465  
2490.000000	0.001436  
2489.000000	0.001573  
2488.000000	0.001764  
2487.000000	0.001881  
2486.000000	0.001900  
2485.000000	0.001865  
2484.000000	0.001805  
2483.000000	0.001727  
2482.000000	0.001646  
2481.000000	0.001573  
2480.000000	0.001501  
2479.000000	0.001433  
2478.000000	0.001391  
2477.000000	0.001380  
2476.000000	0.001369  
2475.000000	0.001320  
2474.000000	0.001234  
2473.000000	0.001142  
2472.000000	0.001093  
2471.000000	0.001133  
2470.000000	0.001262  
2469.000000	0.001411  
2468.000000	0.001489  
2467.000000	0.001468  
2466.000000	0.001391  
2465.000000	0.001287  
2464.000000	0.001147  
2463.000000	0.000989  
2462.000000	0.000884  
2461.000000	0.000885  
2460.000000	0.000961  
2459.000000	0.001047  
2458.000000	0.001100  
2457.000000	0.001088  
2456.000000	0.000976  
2455.000000	0.000789  
2454.000000	0.000635  
2453.000000	0.000621  
2452.000000	0.000736  
2451.000000	0.000898  
2450.000000	0.001058  
2449.000000	0.001223  
2448.000000	0.001381  
2447.000000	0.001473  
2446.000000	0.001442  
2445.000000	0.001295  
2444.000000	0.001107  
2443.000000	0.000993  
2442.000000	0.001027  
2441.000000	0.001155  
2440.000000	0.001217  
2439.000000	0.001114  
2438.000000	0.000946  
2437.000000	0.000915  
2436.000000	0.001094  
2435.000000	0.001333  
2434.000000	0.001410  
2433.000000	0.001240  
2432.000000	0.000952  
2431.000000	0.000774  
2430.000000	0.000849  
2429.000000	0.001108  
2428.000000	0.001319  
2427.000000	0.001304  
2426.000000	0.001100  
2425.000000	0.000903  
2424.000000	0.000860  
2423.000000	0.000955  
2422.000000	0.001082  
2421.000000	0.001180  
2420.000000	0.001253  
2419.000000	0.001326  
2418.000000	0.001398  
2417.000000	0.001454  
2416.000000	0.001481  
2415.000000	0.001476  
2414.000000	0.001444  
2413.000000	0.001397  
2412.000000	0.001343  
2411.000000	0.001275  
2410.000000	0.001192  
2409.000000	0.001126  
2408.000000	0.001126  
2407.000000	0.001192  
2406.000000	0.001237  
2405.000000	0.001173  
2404.000000	0.001024  
2403.000000	0.000932  
2402.000000	0.000999  
2401.000000	0.001174  
2400.000000	0.001317  
2399.000000	0.001357  
2398.000000	0.001337  
2397.000000	0.001329  
2396.000000	0.001361  
2395.000000	0.001425  
2394.000000	0.001488  
2393.000000	0.001504  
2392.000000	0.001458  
2391.000000	0.001404  
2390.000000	0.001404  
2389.000000	0.001418  
2388.000000	0.001331  
2387.000000	0.001106  
2386.000000	0.000859  
2385.000000	0.000738  
2384.000000	0.000800  
2383.000000	0.001027  
2382.000000	0.001398  
2381.000000	0.001868  
2380.000000	0.002310  
2379.000000	0.002576  
2378.000000	0.002617  
2377.000000	0.002476  
2376.000000	0.002181  
2375.000000	0.001764  
2374.000000	0.001389  
2373.000000	0.001319  
2372.000000	0.001651  
2371.000000	0.002187  
2370.000000	0.002630  
2369.000000	0.002818  
2368.000000	0.002740  
2367.000000	0.002473  
2366.000000	0.002190  
2365.000000	0.002065  
2364.000000	0.002058  
2363.000000	0.001979  
2362.000000	0.001821  
2361.000000	0.001816  
2360.000000	0.002056  
2359.000000	0.002346  
2358.000000	0.002488  
2357.000000	0.002478  
2356.000000	0.002386  
2355.000000	0.002286  
2354.000000	0.002296  
2353.000000	0.002424  
2352.000000	0.002506  
2351.000000	0.002430  
2350.000000	0.002296  
2349.000000	0.002268  
2348.000000	0.002370  
2347.000000	0.002467  
2346.000000	0.002405  
2345.000000	0.002224  
2344.000000	0.002079  
2343.000000	0.002015  
2342.000000	0.002023  
2341.000000	0.002121  
2340.000000	0.002291  
2339.000000	0.002466  
2338.000000	0.002632  
2337.000000	0.002798  
2336.000000	0.002912  
2335.000000	0.002897  
2334.000000	0.002769  
2333.000000	0.002582  
2332.000000	0.002336  
2331.000000	0.002035  
2330.000000	0.001780  
2329.000000	0.001703  
2328.000000	0.001784  
2327.000000	0.001890  
2326.000000	0.001912  
2325.000000	0.001834  
2324.000000	0.001706  
2323.000000	0.001595  
2322.000000	0.001559  
2321.000000	0.001582  
2320.000000	0.001592  
2319.000000	0.001554  
2318.000000	0.001514  
2317.000000	0.001529  
2316.000000	0.001602  
2315.000000	0.001684  
2314.000000	0.001705  
2313.000000	0.001601  
2312.000000	0.001367  
2311.000000	0.001126  
2310.000000	0.001049  
2309.000000	0.001166  
2308.000000	0.001310  
2307.000000	0.001292  
2306.000000	0.001082  
2305.000000	0.000780  
2304.000000	0.000496  
2303.000000	0.000308  
2302.000000	0.000272  
2301.000000	0.000375  
2300.000000	0.000504  
2299.000000	0.000533  
2298.000000	0.000443  
2297.000000	0.000318  
2296.000000	0.000244  
2295.000000	0.000258  
2294.000000	0.000358  
2293.000000	0.000497  
2292.000000	0.000578  
2291.000000	0.000539  
2290.000000	0.000428  
2289.000000	0.000344  
2288.000000	0.000318  
2287.000000	0.000293  
2286.000000	0.000221  
2285.000000	0.000112  
2284.000000	-0.000002 
2283.000000	-0.000081 
2282.000000	-0.000062 
2281.000000	0.000093  
2280.000000	0.000323  
2279.000000	0.000507  
2278.000000	0.000577  
2277.000000	0.000557  
2276.000000	0.000492  
2275.000000	0.000424  
2274.000000	0.000410  
2273.000000	0.000482  
2272.000000	0.000572  
2271.000000	0.000582  
2270.000000	0.000537  
2269.000000	0.000586  
2268.000000	0.000813  
2267.000000	0.001108  
2266.000000	0.001272  
2265.000000	0.001191  
2264.000000	0.000874  
2263.000000	0.000425  
2262.000000	0.000024  
2261.000000	-0.000121 
2260.000000	0.000076  
2259.000000	0.000481  
2258.000000	0.000815  
2257.000000	0.000870  
2256.000000	0.000661  
2255.000000	0.000389  
2254.000000	0.000263  
2253.000000	0.000354  
2252.000000	0.000568  
2251.000000	0.000738  
2250.000000	0.000749  
2249.000000	0.000599  
2248.000000	0.000404  
2247.000000	0.000324  
2246.000000	0.000414  
2245.000000	0.000554  
2244.000000	0.000568  
2243.000000	0.000437  
2242.000000	0.000312  
2241.000000	0.000307  
2240.000000	0.000374  
2239.000000	0.000434  
2238.000000	0.000489  
2237.000000	0.000529  
2236.000000	0.000448  
2235.000000	0.000189  
2234.000000	-0.000086 
2233.000000	-0.000129 
2232.000000	0.000127  
2231.000000	0.000527  
2230.000000	0.000863  
2229.000000	0.000984  
2228.000000	0.000821  
2227.000000	0.000469  
2226.000000	0.000215  
2225.000000	0.000314  
2224.000000	0.000715  
2223.000000	0.001128  
2222.000000	0.001351  
2221.000000	0.001385  
2220.000000	0.001277  
2219.000000	0.001028  
2218.000000	0.000697  
2217.000000	0.000439  
2216.000000	0.000377  
2215.000000	0.000510  
2214.000000	0.000754  
2213.000000	0.000967  
2212.000000	0.000963  
2211.000000	0.000658  
2210.000000	0.000250  
2209.000000	0.000098  
2208.000000	0.000351  
2207.000000	0.000796  
2206.000000	0.001106  
2205.000000	0.001144  
2204.000000	0.000992  
2203.000000	0.000801  
2202.000000	0.000685  
2201.000000	0.000676  
2200.000000	0.000726  
2199.000000	0.000775  
2198.000000	0.000807  
2197.000000	0.000780  
2196.000000	0.000592  
2195.000000	0.000250  
2194.000000	0.000001  
2193.000000	0.000120  
2192.000000	0.000531  
2191.000000	0.000845  
2190.000000	0.000787  
2189.000000	0.000448  
2188.000000	0.000054  
2187.000000	-0.000292 
2186.000000	-0.000557 
2185.000000	-0.000638 
2184.000000	-0.000483 
2183.000000	-0.000230 
2182.000000	-0.000089 
2181.000000	-0.000117 
2180.000000	-0.000190 
2179.000000	-0.000127 
2178.000000	0.000187  
2177.000000	0.000730  
2176.000000	0.001298  
2175.000000	0.001641  
2174.000000	0.001683  
2173.000000	0.001560  
2172.000000	0.001397  
2171.000000	0.001169  
2170.000000	0.000845  
2169.000000	0.000571  
2168.000000	0.000567  
2167.000000	0.000857  
2166.000000	0.001209  
2165.000000	0.001367  
2164.000000	0.001277  
2163.000000	0.001079  
2162.000000	0.000901  
2161.000000	0.000743  
2160.000000	0.000550  
2159.000000	0.000338  
2158.000000	0.000166  
2157.000000	0.000016  
2156.000000	-0.000173 
2155.000000	-0.000362 
2154.000000	-0.000423 
2153.000000	-0.000321 
2152.000000	-0.000165 
2151.000000	-0.000054 
2150.000000	0.000017  
2149.000000	0.000065  
2148.000000	0.000068  
2147.000000	0.000079  
2146.000000	0.000241  
2145.000000	0.000572  
2144.000000	0.000861  
2143.000000	0.000909  
2142.000000	0.000759  
2141.000000	0.000585  
2140.000000	0.000448  
2139.000000	0.000302  
2138.000000	0.000135  
2137.000000	-0.000029 
2136.000000	-0.000191 
2135.000000	-0.000313 
2134.000000	-0.000271 
2133.000000	-0.000037 
2132.000000	0.000184  
2131.000000	0.000149  
2130.000000	-0.000130 
2129.000000	-0.000407 
2128.000000	-0.000482 
2127.000000	-0.000345 
2126.000000	-0.000076 
2125.000000	0.000247  
2124.000000	0.000537  
2123.000000	0.000721  
2122.000000	0.000809  
2121.000000	0.000854  
2120.000000	0.000850  
2119.000000	0.000759  
2118.000000	0.000614  
2117.000000	0.000500  
2116.000000	0.000420  
2115.000000	0.000327  
2114.000000	0.000253  
2113.000000	0.000286  
2112.000000	0.000394  
2111.000000	0.000434  
2110.000000	0.000361  
2109.000000	0.000303  
2108.000000	0.000347  
2107.000000	0.000388  
2106.000000	0.000286  
2105.000000	0.000073  
2104.000000	-0.000076 
2103.000000	-0.000020 
2102.000000	0.000249  
2101.000000	0.000612  
2100.000000	0.000852  
2099.000000	0.000791  
2098.000000	0.000453  
2097.000000	0.000091  
2096.000000	-0.000026 
2095.000000	0.000191  
2094.000000	0.000647  
2093.000000	0.001142  
2092.000000	0.001455  
2091.000000	0.001446  
2090.000000	0.001166  
2089.000000	0.000828  
2088.000000	0.000608  
2087.000000	0.000527  
2086.000000	0.000517  
2085.000000	0.000520  
2084.000000	0.000483  
2083.000000	0.000358  
2082.000000	0.000168  
2081.000000	0.000001  
2080.000000	-0.000102 
2079.000000	-0.000187 
2078.000000	-0.000254 
2077.000000	-0.000208 
2076.000000	0.000007  
2075.000000	0.000291  
2074.000000	0.000473  
2073.000000	0.000494  
2072.000000	0.000406  
2071.000000	0.000272  
2070.000000	0.000116  
2069.000000	-0.000040 
2068.000000	-0.000163 
2067.000000	-0.000196 
2066.000000	-0.000083 
2065.000000	0.000162  
2064.000000	0.000398  
2063.000000	0.000448  
2062.000000	0.000293  
2061.000000	0.000120  
2060.000000	0.000135  
2059.000000	0.000378  
2058.000000	0.000727  
2057.000000	0.001023  
2056.000000	0.001156  
2055.000000	0.001095  
2054.000000	0.000881  
2053.000000	0.000585  
2052.000000	0.000272  
2051.000000	0.000026  
2050.000000	-0.000056 
2049.000000	0.000023  
2048.000000	0.000119  
2047.000000	0.000131  
2046.000000	0.000181  
2045.000000	0.000417  
2044.000000	0.000723  
2043.000000	0.000848  
2042.000000	0.000794  
2041.000000	0.000802  
2040.000000	0.000910  
2039.000000	0.000854  
2038.000000	0.000538  
2037.000000	0.000271  
2036.000000	0.000344  
2035.000000	0.000586  
2034.000000	0.000622  
2033.000000	0.000423  
2032.000000	0.000284  
2031.000000	0.000363  
2030.000000	0.000518  
2029.000000	0.000573  
2028.000000	0.000523  
2027.000000	0.000473  
2026.000000	0.000532  
2025.000000	0.000747  
2024.000000	0.001043  
2023.000000	0.001240  
2022.000000	0.001224  
2021.000000	0.001070  
2020.000000	0.000916  
2019.000000	0.000761  
2018.000000	0.000461  
2017.000000	-0.000034 
2016.000000	-0.000537 
2015.000000	-0.000748 
2014.000000	-0.000519 
2013.000000	-0.000016 
2012.000000	0.000360  
2011.000000	0.000315  
2010.000000	-0.000082 
2009.000000	-0.000527 
2008.000000	-0.000821 
2007.000000	-0.000955 
2006.000000	-0.000910 
2005.000000	-0.000637 
2004.000000	-0.000236 
2003.000000	0.000066  
2002.000000	0.000211  
2001.000000	0.000376  
2000.000000	0.000699  
1999.000000	0.001065  
1998.000000	0.001257  
1997.000000	0.001204  
1996.000000	0.000976  
1995.000000	0.000649  
1994.000000	0.000310  
1993.000000	0.000110  
1992.000000	0.000138  
1991.000000	0.000278  
1990.000000	0.000376  
1989.000000	0.000435  
1988.000000	0.000538  
1987.000000	0.000651  
1986.000000	0.000644  
1985.000000	0.000461  
1984.000000	0.000198  
1983.000000	0.000007  
1982.000000	-0.000033 
1981.000000	0.000022  
1980.000000	0.000041  
1979.000000	-0.000061 
1978.000000	-0.000218 
1977.000000	-0.000307 
1976.000000	-0.000337 
1975.000000	-0.000408 
1974.000000	-0.000496 
1973.000000	-0.000459 
1972.000000	-0.000257 
1971.000000	-0.000029 
1970.000000	0.000116  
1969.000000	0.000221  
1968.000000	0.000341  
1967.000000	0.000436  
1966.000000	0.000479  
1965.000000	0.000533  
1964.000000	0.000613  
1963.000000	0.000645  
1962.000000	0.000614  
1961.000000	0.000620  
1960.000000	0.000698  
1959.000000	0.000714  
1958.000000	0.000572  
1957.000000	0.000388  
1956.000000	0.000323  
1955.000000	0.000344  
1954.000000	0.000318  
1953.000000	0.000257  
1952.000000	0.000282  
1951.000000	0.000385  
1950.000000	0.000427  
1949.000000	0.000385  
1948.000000	0.000448  
1947.000000	0.000760  
1946.000000	0.001192  
1945.000000	0.001464  
1944.000000	0.001448  
1943.000000	0.001262  
1942.000000	0.001080  
1941.000000	0.000940  
1940.000000	0.000824  
1939.000000	0.000787  
1938.000000	0.000898  
1937.000000	0.001082  
1936.000000	0.001145  
1935.000000	0.000989  
1934.000000	0.000733  
1933.000000	0.000568  
1932.000000	0.000564  
1931.000000	0.000668  
1930.000000	0.000809  
1929.000000	0.000915  
1928.000000	0.000895  
1927.000000	0.000713  
1926.000000	0.000473  
1925.000000	0.000337  
1924.000000	0.000354  
1923.000000	0.000418  
1922.000000	0.000443  
1921.000000	0.000477  
1920.000000	0.000595  
1919.000000	0.000797  
1918.000000	0.001017  
1917.000000	0.001177  
1916.000000	0.001226  
1915.000000	0.001130  
1914.000000	0.000899  
1913.000000	0.000616  
1912.000000	0.000415  
1911.000000	0.000403  
1910.000000	0.000590  
1909.000000	0.000849  
1908.000000	0.000998  
1907.000000	0.000960  
1906.000000	0.000813  
1905.000000	0.000668  
1904.000000	0.000560  
1903.000000	0.000473  
1902.000000	0.000423  
1901.000000	0.000428  
1900.000000	0.000423  
1899.000000	0.000338  
1898.000000	0.000225  
1897.000000	0.000223  
1896.000000	0.000369  
1895.000000	0.000540  
1894.000000	0.000635  
1893.000000	0.000684  
1892.000000	0.000738  
1891.000000	0.000770  
1890.000000	0.000737  
1889.000000	0.000667  
1888.000000	0.000616  
1887.000000	0.000601  
1886.000000	0.000629  
1885.000000	0.000711  
1884.000000	0.000808  
1883.000000	0.000827  
1882.000000	0.000728  
1881.000000	0.000560  
1880.000000	0.000400  
1879.000000	0.000305  
1878.000000	0.000334  
1877.000000	0.000513  
1876.000000	0.000762  
1875.000000	0.000935  
1874.000000	0.000983  
1873.000000	0.000996  
1872.000000	0.001048  
1871.000000	0.001077  
1870.000000	0.000980  
1869.000000	0.000803  
1868.000000	0.000705  
1867.000000	0.000705  
1866.000000	0.000705  
1865.000000	0.000664  
1864.000000	0.000587  
1863.000000	0.000477  
1862.000000	0.000355  
1861.000000	0.000284  
1860.000000	0.000297  
1859.000000	0.000336  
1858.000000	0.000335  
1857.000000	0.000307  
1856.000000	0.000307  
1855.000000	0.000350  
1854.000000	0.000434  
1853.000000	0.000572  
1852.000000	0.000744  
1851.000000	0.000868  
1850.000000	0.000868  
1849.000000	0.000786  
1848.000000	0.000743  
1847.000000	0.000786  
1846.000000	0.000838  
1845.000000	0.000802  
1844.000000	0.000683  
1843.000000	0.000571  
1842.000000	0.000532  
1841.000000	0.000562  
1840.000000	0.000600  
1839.000000	0.000569  
1838.000000	0.000449  
1837.000000	0.000325  
1836.000000	0.000296  
1835.000000	0.000358  
1834.000000	0.000420  
1833.000000	0.000424  
1832.000000	0.000390  
1831.000000	0.000373  
1830.000000	0.000392  
1829.000000	0.000404  
1828.000000	0.000367  
1827.000000	0.000301  
1826.000000	0.000267  
1825.000000	0.000324  
1824.000000	0.000454  
1823.000000	0.000562  
1822.000000	0.000588  
1821.000000	0.000546  
1820.000000	0.000495  
1819.000000	0.000482  
1818.000000	0.000526  
1817.000000	0.000621  
1816.000000	0.000710  
1815.000000	0.000715  
1814.000000	0.000618  
1813.000000	0.000491  
1812.000000	0.000431  
1811.000000	0.000440  
1810.000000	0.000441  
1809.000000	0.000393  
1808.000000	0.000324  
1807.000000	0.000279  
1806.000000	0.000290  
1805.000000	0.000373  
1804.000000	0.000516  
1803.000000	0.000675  
1802.000000	0.000802  
1801.000000	0.000870  
1800.000000	0.000891  
1799.000000	0.000870  
1798.000000	0.000827  
1797.000000	0.000826  
1796.000000	0.000912  
1795.000000	0.001047  
1794.000000	0.001146  
1793.000000	0.001170  
1792.000000	0.001148  
1791.000000	0.001100  
1790.000000	0.001043  
1789.000000	0.001008  
1788.000000	0.001004  
1787.000000	0.001032  
1786.000000	0.001099  
1785.000000	0.001205  
1784.000000	0.001311  
1783.000000	0.001374  
1782.000000	0.001379  
1781.000000	0.001365  
1780.000000	0.001406  
1779.000000	0.001492  
1778.000000	0.001561  
1777.000000	0.001581  
1776.000000	0.001572  
1775.000000	0.001563  
1774.000000	0.001536  
1773.000000	0.001479  
1772.000000	0.001451  
1771.000000	0.001456  
1770.000000	0.001465  
1769.000000	0.001530  
1768.000000	0.001688  
1767.000000	0.001890  
1766.000000	0.002080  
1765.000000	0.002260  
1764.000000	0.002460  
1763.000000	0.002668  
1762.000000	0.002844  
1761.000000	0.003018  
1760.000000	0.003270  
1759.000000	0.003613  
1758.000000	0.004017  
1757.000000	0.004475  
1756.000000	0.004978  
1755.000000	0.005483  
1754.000000	0.005993  
1753.000000	0.006644  
1752.000000	0.007690  
1751.000000	0.009310  
1750.000000	0.011549  
1749.000000	0.014471  
1748.000000	0.017905  
1747.000000	0.021388  
1746.000000	0.024750  
1745.000000	0.028230  
1744.000000	0.031814  
1743.000000	0.034932  
1742.000000	0.037044  
1741.000000	0.037995  
1740.000000	0.037691  
1739.000000	0.036314  
1738.000000	0.034561  
1737.000000	0.032818  
1736.000000	0.030781  
1735.000000	0.027714  
1734.000000	0.024034  
1733.000000	0.021434  
1732.000000	0.020183  
1731.000000	0.019521  
1730.000000	0.019131  
1729.000000	0.018922  
1728.000000	0.018866  
1727.000000	0.018933  
1726.000000	0.019129  
1725.000000	0.019444  
1724.000000	0.019819  
1723.000000	0.020153  
1722.000000	0.020369  
1721.000000	0.020413  
1720.000000	0.020223  
1719.000000	0.019703  
1718.000000	0.018831  
1717.000000	0.017800  
1716.000000	0.016781  
1715.000000	0.015801  
1714.000000	0.014880  
1713.000000	0.014013  
1712.000000	0.013139  
1711.000000	0.012207  
1710.000000	0.011254  
1709.000000	0.010354  
1708.000000	0.009526  
1707.000000	0.008706  
1706.000000	0.007881  
1705.000000	0.007176  
1704.000000	0.006677  
1703.000000	0.006355  
1702.000000	0.006125  
1701.000000	0.005776  
1700.000000	0.005149  
1699.000000	0.004496  
1698.000000	0.004106  
1697.000000	0.003954  
1696.000000	0.003866  
1695.000000	0.003734  
1694.000000	0.003654  
1693.000000	0.003674  
1692.000000	0.003679  
1691.000000	0.003559  
1690.000000	0.003341  
1689.000000	0.003150  
1688.000000	0.003067  
1687.000000	0.003105  
1686.000000	0.003233  
1685.000000	0.003387  
1684.000000	0.003389  
1683.000000	0.003210  
1682.000000	0.003099  
1681.000000	0.003108  
1680.000000	0.003107  
1679.000000	0.003068  
1678.000000	0.003052  
1677.000000	0.003083  
1676.000000	0.003072  
1675.000000	0.002943  
1674.000000	0.002796  
1673.000000	0.002749  
1672.000000	0.002777  
1671.000000	0.002797  
1670.000000	0.002835  
1669.000000	0.002923  
1668.000000	0.002988  
1667.000000	0.003010  
1666.000000	0.003029  
1665.000000	0.003058  
1664.000000	0.003089  
1663.000000	0.003132  
1662.000000	0.003211  
1661.000000	0.003290  
1660.000000	0.003347  
1659.000000	0.003378  
1658.000000	0.003418  
1657.000000	0.003455  
1656.000000	0.003503  
1655.000000	0.003498  
1654.000000	0.003470  
1653.000000	0.003587  
1652.000000	0.003667  
1651.000000	0.003695  
1650.000000	0.003789  
1649.000000	0.003852  
1648.000000	0.003737  
1647.000000	0.003521  
1646.000000	0.003466  
1645.000000	0.003575  
1644.000000	0.003692  
1643.000000	0.003758  
1642.000000	0.003790  
1641.000000	0.003831  
1640.000000	0.003857  
1639.000000	0.003838  
1638.000000	0.003808  
1637.000000	0.003856  
1636.000000	0.003931  
1635.000000	0.003803  
1634.000000	0.003524  
1633.000000	0.003347  
1632.000000	0.003292  
1631.000000	0.003271  
1630.000000	0.003250  
1629.000000	0.003243  
1628.000000	0.003239  
1627.000000	0.003210  
1626.000000	0.003172  
1625.000000	0.003157  
1624.000000	0.003137  
1623.000000	0.003061  
1622.000000	0.002961  
1621.000000	0.002903  
1620.000000	0.002895  
1619.000000	0.002881  
1618.000000	0.002815  
1617.000000	0.002747  
1616.000000	0.002720  
1615.000000	0.002714  
1614.000000	0.002750  
1613.000000	0.002839  
1612.000000	0.002917  
1611.000000	0.002928  
1610.000000	0.002882  
1609.000000	0.002841  
1608.000000	0.002838  
1607.000000	0.002862  
1606.000000	0.002887  
1605.000000	0.002877  
1604.000000	0.002802  
1603.000000	0.002676  
1602.000000	0.002567  
1601.000000	0.002527  
1600.000000	0.002522  
1599.000000	0.002487  
1598.000000	0.002407  
1597.000000	0.002323  
1596.000000	0.002282  
1595.000000	0.002304  
1594.000000	0.002383  
1593.000000	0.002478  
1592.000000	0.002540  
1591.000000	0.002558  
1590.000000	0.002571  
1589.000000	0.002614  
1588.000000	0.002675  
1587.000000	0.002734  
1586.000000	0.002798  
1585.000000	0.002867  
1584.000000	0.002917  
1583.000000	0.002941  
1582.000000	0.002957  
1581.000000	0.002972  
1580.000000	0.002969  
1579.000000	0.002942  
1578.000000	0.002909  
1577.000000	0.002910  
1576.000000	0.002927  
1575.000000	0.002893  
1574.000000	0.002856  
1573.000000	0.002886  
1572.000000	0.002950  
1571.000000	0.002982  
1570.000000	0.003000  
1569.000000	0.003050  
1568.000000	0.003104  
1567.000000	0.003152  
1566.000000	0.003210  
1565.000000	0.003257  
1564.000000	0.003241  
1563.000000	0.003173  
1562.000000	0.003136  
1561.000000	0.003249  
1560.000000	0.003394  
1559.000000	0.003142  
1558.000000	0.002677  
1557.000000	0.002490  
1556.000000	0.002533  
1555.000000	0.002610  
1554.000000	0.002625  
1553.000000	0.002605  
1552.000000	0.002583  
1551.000000	0.002564  
1550.000000	0.002575  
1549.000000	0.002622  
1548.000000	0.002643  
1547.000000	0.002585  
1546.000000	0.002488  
1545.000000	0.002471  
1544.000000	0.002525  
1543.000000	0.002542  
1542.000000	0.002549  
1541.000000	0.002890  
1540.000000	0.003441  
1539.000000	0.003499  
1538.000000	0.003229  
1537.000000	0.003092  
1536.000000	0.003082  
1535.000000	0.003088  
1534.000000	0.003078  
1533.000000	0.003140  
1532.000000	0.003245  
1531.000000	0.003311  
1530.000000	0.003322  
1529.000000	0.003302  
1528.000000	0.003282  
1527.000000	0.003274  
1526.000000	0.003317  
1525.000000	0.003427  
1524.000000	0.003542  
1523.000000	0.003562  
1522.000000	0.003589  
1521.000000	0.003782  
1520.000000	0.004018  
1519.000000	0.004179  
1518.000000	0.004288  
1517.000000	0.004376  
1516.000000	0.004416  
1515.000000	0.004412  
1514.000000	0.004468  
1513.000000	0.004634  
1512.000000	0.004833  
1511.000000	0.004967  
1510.000000	0.005069  
1509.000000	0.005329  
1508.000000	0.005787  
1507.000000	0.006042  
1506.000000	0.006019  
1505.000000	0.006079  
1504.000000	0.006270  
1503.000000	0.006496  
1502.000000	0.006749  
1501.000000	0.007048  
1500.000000	0.007327  
1499.000000	0.007473  
1498.000000	0.007584  
1497.000000	0.007919  
1496.000000	0.008385  
1495.000000	0.008671  
1494.000000	0.008789  
1493.000000	0.008879  
1492.000000	0.008979  
1491.000000	0.009182  
1490.000000	0.009754  
1489.000000	0.010703  
1488.000000	0.011596  
1487.000000	0.012242  
1486.000000	0.012851  
1485.000000	0.013589  
1484.000000	0.014450  
1483.000000	0.015446  
1482.000000	0.016696  
1481.000000	0.018147  
1480.000000	0.019504  
1479.000000	0.020645  
1478.000000	0.021864  
1477.000000	0.023450  
1476.000000	0.025306  
1475.000000	0.027356  
1474.000000	0.030593  
1473.000000	0.036372  
1472.000000	0.043429  
1471.000000	0.049445  
1470.000000	0.054486  
1469.000000	0.059255  
1468.000000	0.063697  
1467.000000	0.067547  
1466.000000	0.070726  
1465.000000	0.073142  
1464.000000	0.074504  
1463.000000	0.075010  
1462.000000	0.075217  
1461.000000	0.075413  
1460.000000	0.075656  
1459.000000	0.076088  
1458.000000	0.076867  
1457.000000	0.076861  
1456.000000	0.075072  
1455.000000	0.072607  
1454.000000	0.070198  
1453.000000	0.067644  
1452.000000	0.064937  
1451.000000	0.062339  
1450.000000	0.060000  
1449.000000	0.057633  
1448.000000	0.054996  
1447.000000	0.052306  
1446.000000	0.049832  
1445.000000	0.047501  
1444.000000	0.045207  
1443.000000	0.043007  
1442.000000	0.040991  
1441.000000	0.039175  
1440.000000	0.037563  
1439.000000	0.036156  
1438.000000	0.034854  
1437.000000	0.033502  
1436.000000	0.032220  
1435.000000	0.031259  
1434.000000	0.030475  
1433.000000	0.029550  
1432.000000	0.028376  
1431.000000	0.027077  
1430.000000	0.025814  
1429.000000	0.024678  
1428.000000	0.023759  
1427.000000	0.023097  
1426.000000	0.022600  
1425.000000	0.022149  
1424.000000	0.021764  
1423.000000	0.021512  
1422.000000	0.021307  
1421.000000	0.020982  
1420.000000	0.020499  
1419.000000	0.020017  
1418.000000	0.019663  
1417.000000	0.019400  
1416.000000	0.019176  
1415.000000	0.018954  
1414.000000	0.018679  
1413.000000	0.018335  
1412.000000	0.018002  
1411.000000	0.017779  
1410.000000	0.017641  
1409.000000	0.017506  
1408.000000	0.017378  
1407.000000	0.017344  
1406.000000	0.017455  
1405.000000	0.017671  
1404.000000	0.017930  
1403.000000	0.018190  
1402.000000	0.018420  
1401.000000	0.018630  
1400.000000	0.018902  
1399.000000	0.019253  
1398.000000	0.019553  
1397.000000	0.019729  
1396.000000	0.019892  
1395.000000	0.020168  
1394.000000	0.020520  
1393.000000	0.020867  
1392.000000	0.021225  
1391.000000	0.021628  
1390.000000	0.022127  
1389.000000	0.022893  
1388.000000	0.024208  
1387.000000	0.026083  
1386.000000	0.028141  
1385.000000	0.030177  
1384.000000	0.032397  
1383.000000	0.035058  
1382.000000	0.038205  
1381.000000	0.041639  
1380.000000	0.044919  
1379.000000	0.047357  
1378.000000	0.048348  
1377.000000	0.047764  
1376.000000	0.045775  
1375.000000	0.042616  
1374.000000	0.038929  
1373.000000	0.035703  
1372.000000	0.033407  
1371.000000	0.031868  
1370.000000	0.030846  
1369.000000	0.030231  
1368.000000	0.029896  
1367.000000	0.029598  
1366.000000	0.029095  
1365.000000	0.028255  
1364.000000	0.027087  
1363.000000	0.025782  
1362.000000	0.024659  
1361.000000	0.023889  
1360.000000	0.023397  
1359.000000	0.023052  
1358.000000	0.022790  
1357.000000	0.022584  
1356.000000	0.022415  
1355.000000	0.022272  
1354.000000	0.022165  
1353.000000	0.022107  
1352.000000	0.022089  
1351.000000	0.022068  
1350.000000	0.022000  
1349.000000	0.021883  
1348.000000	0.021762  
1347.000000	0.021663  
1346.000000	0.021558  
1345.000000	0.021420  
1344.000000	0.021276  
1343.000000	0.021176  
1342.000000	0.021122  
1341.000000	0.021055  
1340.000000	0.020903  
1339.000000	0.020651  
1338.000000	0.020358  
1337.000000	0.020076  
1336.000000	0.019807  
1335.000000	0.019541  
1334.000000	0.019275  
1333.000000	0.019029  
1332.000000	0.018849  
1331.000000	0.018773  
1330.000000	0.018776  
1329.000000	0.018792  
1328.000000	0.018792  
1327.000000	0.018793  
1326.000000	0.018805  
1325.000000	0.018808  
1324.000000	0.018801  
1323.000000	0.018809  
1322.000000	0.018846  
1321.000000	0.018885  
1320.000000	0.018898  
1319.000000	0.018889  
1318.000000	0.018872  
1317.000000	0.018850  
1316.000000	0.018833  
1315.000000	0.018853  
1314.000000	0.018931  
1313.000000	0.019037  
1312.000000	0.019125  
1311.000000	0.019186  
1310.000000	0.019247  
1309.000000	0.019320  
1308.000000	0.019386  
1307.000000	0.019409  
1306.000000	0.019374  
1305.000000	0.019297  
1304.000000	0.019217  
1303.000000	0.019160  
1302.000000	0.019111  
1301.000000	0.019036  
1300.000000	0.018925  
1299.000000	0.018801  
1298.000000	0.018684  
1297.000000	0.018570  
1296.000000	0.018449  
1295.000000	0.018326  
1294.000000	0.018210  
1293.000000	0.018103  
1292.000000	0.018007  
1291.000000	0.017924  
1290.000000	0.017852  
1289.000000	0.017782  
1288.000000	0.017725  
1287.000000	0.017706  
1286.000000	0.017748  
1285.000000	0.017849  
1284.000000	0.017985  
1283.000000	0.018106  
1282.000000	0.018164  
1281.000000	0.018158  
1280.000000	0.018153  
1279.000000	0.018225  
1278.000000	0.018370  
1277.000000	0.018513  
1276.000000	0.018601  
1275.000000	0.018656  
1274.000000	0.018725  
1273.000000	0.018810  
1272.000000	0.018881  
1271.000000	0.018915  
1270.000000	0.018907  
1269.000000	0.018865  
1268.000000	0.018812  
1267.000000	0.018805  
1266.000000	0.018885  
1265.000000	0.019032  
1264.000000	0.019183  
1263.000000	0.019311  
1262.000000	0.019443  
1261.000000	0.019613  
1260.000000	0.019800  
1259.000000	0.019954  
1258.000000	0.020064  
1257.000000	0.020172  
1256.000000	0.020337  
1255.000000	0.020590  
1254.000000	0.020917  
1253.000000	0.021275  
1252.000000	0.021603  
1251.000000	0.021860  
1250.000000	0.022058  
1249.000000	0.022250  
1248.000000	0.022459  
1247.000000	0.022636  
1246.000000	0.022711  
1245.000000	0.022673  
1244.000000	0.022578  
1243.000000	0.022474  
1242.000000	0.022348  
1241.000000	0.022155  
1240.000000	0.021875  
1239.000000	0.021526  
1238.000000	0.021132  
1237.000000	0.020716  
1236.000000	0.020312  
1235.000000	0.019962  
1234.000000	0.019683  
1233.000000	0.019460  
1232.000000	0.019263  
1231.000000	0.019080  
1230.000000	0.018911  
1229.000000	0.018774  
1228.000000	0.018699  
1227.000000	0.018707  
1226.000000	0.018785  
1225.000000	0.018896  
1224.000000	0.019026  
1223.000000	0.019192  
1222.000000	0.019410  
1221.000000	0.019674  
1220.000000	0.019968  
1219.000000	0.020268  
1218.000000	0.020548  
1217.000000	0.020773  
1216.000000	0.020931  
1215.000000	0.021046  
1214.000000	0.021165  
1213.000000	0.021315  
1212.000000	0.021485  
1211.000000	0.021644  
1210.000000	0.021778  
1209.000000	0.021900  
1208.000000	0.022033  
1207.000000	0.022183  
1206.000000	0.022329  
1205.000000	0.022458  
1204.000000	0.022575  
1203.000000	0.022711  
1202.000000	0.022895  
1201.000000	0.023138  
1200.000000	0.023420  
1199.000000	0.023702  
1198.000000	0.023957  
1197.000000	0.024206  
1196.000000	0.024494  
1195.000000	0.024833  
1194.000000	0.025194  
1193.000000	0.025553  
1192.000000	0.025912  
1191.000000	0.026279  
1190.000000	0.026630  
1189.000000	0.026941  
1188.000000	0.027230  
1187.000000	0.027542  
1186.000000	0.027898  
1185.000000	0.028279  
1184.000000	0.028654  
1183.000000	0.028992  
1182.000000	0.029266  
1181.000000	0.029463  
1180.000000	0.029603  
1179.000000	0.029717  
1178.000000	0.029808  
1177.000000	0.029831  
1176.000000	0.029736  
1175.000000	0.029527  
1174.000000	0.029256  
1173.000000	0.028977  
1172.000000	0.028710  
1171.000000	0.028432  
1170.000000	0.028103  
1169.000000	0.027700  
1168.000000	0.027237  
1167.000000	0.026743  
1166.000000	0.026224  
1165.000000	0.025653  
1164.000000	0.025019  
1163.000000	0.024364  
1162.000000	0.023745  
1161.000000	0.023180  
1160.000000	0.022665  
1159.000000	0.022194  
1158.000000	0.021745  
1157.000000	0.021271  
1156.000000	0.020753  
1155.000000	0.020260  
1154.000000	0.019884  
1153.000000	0.019621  
1152.000000	0.019368  
1151.000000	0.019038  
1150.000000	0.018646  
1149.000000	0.018265  
1148.000000	0.017938  
1147.000000	0.017670  
1146.000000	0.017463  
1145.000000	0.017308  
1144.000000	0.017172  
1143.000000	0.017013  
1142.000000	0.016813  
1141.000000	0.016584  
1140.000000	0.016343  
1139.000000	0.016102  
1138.000000	0.015890  
1137.000000	0.015740  
1136.000000	0.015652  
1135.000000	0.015577  
1134.000000	0.015467  
1133.000000	0.015335  
1132.000000	0.015250  
1131.000000	0.015273  
1130.000000	0.015428  
1129.000000	0.015714  
1128.000000	0.016136  
1127.000000	0.016679  
1126.000000	0.017299  
1125.000000	0.017954  
1124.000000	0.018654  
1123.000000	0.019452  
1122.000000	0.020392  
1121.000000	0.021475  
1120.000000	0.022651  
1119.000000	0.023833  
1118.000000	0.024919  
1117.000000	0.025820  
1116.000000	0.026474  
1115.000000	0.026845  
1114.000000	0.026921  
1113.000000	0.026723  
1112.000000	0.026312  
1111.000000	0.025780  
1110.000000	0.025219  
1109.000000	0.024691  
1108.000000	0.024207  
1107.000000	0.023748  
1106.000000	0.023290  
1105.000000	0.022839  
1104.000000	0.022439  
1103.000000	0.022138  
1102.000000	0.021928  
1101.000000	0.021735  
1100.000000	0.021479  
1099.000000	0.021155  
1098.000000	0.020837  
1097.000000	0.020618  
1096.000000	0.020532  
1095.000000	0.020539  
1094.000000	0.020577  
1093.000000	0.020641  
1092.000000	0.020815  
1091.000000	0.021209  
1090.000000	0.021867  
1089.000000	0.022752  
1088.000000	0.023816  
1087.000000	0.025097  
1086.000000	0.026711  
1085.000000	0.028768  
1084.000000	0.031291  
1083.000000	0.034204  
1082.000000	0.037385  
1081.000000	0.040733  
1080.000000	0.044178  
1079.000000	0.047673  
1078.000000	0.051200  
1077.000000	0.054726  
1076.000000	0.058133  
1075.000000	0.061191  
1074.000000	0.063617  
1073.000000	0.065157  
1072.000000	0.065609  
1071.000000	0.064882  
1070.000000	0.063093  
1069.000000	0.060565  
1068.000000	0.057710  
1067.000000	0.054954  
1066.000000	0.052684  
1065.000000	0.051162  
1064.000000	0.050405  
1063.000000	0.050182  
1062.000000	0.050117  
1061.000000	0.049824  
1060.000000	0.049008  
1059.000000	0.047558  
1058.000000	0.045622  
1057.000000	0.043557  
1056.000000	0.041763  
1055.000000	0.040534  
1054.000000	0.040027  
1053.000000	0.040307  
1052.000000	0.041359  
1051.000000	0.043032  
1050.000000	0.045019  
1049.000000	0.046932  
1048.000000	0.048452  
1047.000000	0.049446  
1046.000000	0.049978  
1045.000000	0.050201  
1044.000000	0.050217  
1043.000000	0.050041  
1042.000000	0.049665  
1041.000000	0.049118  
1040.000000	0.048449  
1039.000000	0.047687  
1038.000000	0.046863  
1037.000000	0.046059  
1036.000000	0.045424  
1035.000000	0.045153  
1034.000000	0.045436  
1033.000000	0.046379  
1032.000000	0.047902  
1031.000000	0.049630  
1030.000000	0.050914  
1029.000000	0.051069  
1028.000000	0.049721  
1027.000000	0.047026  
1026.000000	0.043577  
1025.000000	0.040054  
1024.000000	0.036911  
1023.000000	0.034307  
1022.000000	0.032211  
1021.000000	0.030532  
1020.000000	0.029215  
1019.000000	0.028282  
1018.000000	0.027795  
1017.000000	0.027795  
1016.000000	0.028267  
1015.000000	0.029141  
1014.000000	0.030277  
1013.000000	0.031455  
1012.000000	0.032391  
1011.000000	0.032811  
1010.000000	0.032556  
1009.000000	0.031640  
1008.000000	0.030220  
1007.000000	0.028509  
1006.000000	0.026692  
1005.000000	0.024899  
1004.000000	0.023234  
1003.000000	0.021794  
1002.000000	0.020645  
1001.000000	0.019798  
1000.000000	0.019263  
999.000000	 0.019103  
998.000000	 0.019404  
997.000000	 0.020180  
996.000000	 0.021349  
995.000000	 0.022760  
994.000000	 0.024200  
993.000000	 0.025382  
992.000000	 0.026020  
991.000000	 0.025977  
990.000000	 0.025340  
989.000000	 0.024320  
988.000000	 0.023101  
987.000000	 0.021808  
986.000000	 0.020543  
985.000000	 0.019390  
984.000000	 0.018379  
983.000000	 0.017507  
982.000000	 0.016792  
981.000000	 0.016275  
980.000000	 0.015952  
979.000000	 0.015763  
978.000000	 0.015669  
977.000000	 0.015695  
976.000000	 0.015892  
975.000000	 0.016259  
974.000000	 0.016742  
973.000000	 0.017283  
972.000000	 0.017856  
971.000000	 0.018465  
970.000000	 0.019120  
969.000000	 0.019829  
968.000000	 0.020577  
967.000000	 0.021326  
966.000000	 0.022020  
965.000000	 0.022600  
964.000000	 0.023022  
963.000000	 0.023281  
962.000000	 0.023450  
961.000000	 0.023675  
960.000000	 0.024097  
959.000000	 0.024782  
958.000000	 0.025722  
957.000000	 0.026879  
956.000000	 0.028197  
955.000000	 0.029557  
954.000000	 0.030762  
953.000000	 0.031566  
952.000000	 0.031747  
951.000000	 0.031196  
950.000000	 0.029995  
949.000000	 0.028391  
948.000000	 0.026671  
947.000000	 0.025036  
946.000000	 0.023576  
945.000000	 0.022314  
944.000000	 0.021246  
943.000000	 0.020331  
942.000000	 0.019490  
941.000000	 0.018636  
940.000000	 0.017729  
939.000000	 0.016789  
938.000000	 0.015868  
937.000000	 0.015009  
936.000000	 0.014231  
935.000000	 0.013529  
934.000000	 0.012900  
933.000000	 0.012364  
932.000000	 0.011941  
931.000000	 0.011620  
930.000000	 0.011344  
929.000000	 0.011074  
928.000000	 0.010831  
927.000000	 0.010663  
926.000000	 0.010565  
925.000000	 0.010487  
924.000000	 0.010407  
923.000000	 0.010370  
922.000000	 0.010426  
921.000000	 0.010562  
920.000000	 0.010716  
919.000000	 0.010840  
918.000000	 0.010919  
917.000000	 0.010944  
916.000000	 0.010899  
915.000000	 0.010796  
914.000000	 0.010686  
913.000000	 0.010616  
912.000000	 0.010596  
911.000000	 0.010615  
910.000000	 0.010675  
909.000000	 0.010785  
908.000000	 0.010944  
907.000000	 0.011149  
906.000000	 0.011423  
905.000000	 0.011793  
904.000000	 0.012241  
903.000000	 0.012689  
902.000000	 0.013059  
901.000000	 0.013304  
900.000000	 0.013373  
899.000000	 0.013185  
898.000000	 0.012701  
897.000000	 0.012031  
896.000000	 0.011402  
895.000000	 0.010995  
894.000000	 0.010822  
893.000000	 0.010766  
892.000000	 0.010714  
891.000000	 0.010629  
890.000000	 0.010533  
889.000000	 0.010461  
888.000000	 0.010432  
887.000000	 0.010434  
886.000000	 0.010435  
885.000000	 0.010427  
884.000000	 0.010449  
883.000000	 0.010556  
882.000000	 0.010753  
881.000000	 0.010971  
880.000000	 0.011113  
879.000000	 0.011114  
878.000000	 0.010987  
877.000000	 0.010814  
876.000000	 0.010683  
875.000000	 0.010630  
874.000000	 0.010618  
873.000000	 0.010595  
872.000000	 0.010552  
871.000000	 0.010520  
870.000000	 0.010530  
869.000000	 0.010595  
868.000000	 0.010718  
867.000000	 0.010876  
866.000000	 0.011022  
865.000000	 0.011125  
864.000000	 0.011222  
863.000000	 0.011393  
862.000000	 0.011677  
861.000000	 0.012035  
860.000000	 0.012408  
859.000000	 0.012807  
858.000000	 0.013311  
857.000000	 0.013994  
856.000000	 0.014851  
855.000000	 0.015816  
854.000000	 0.016855  
853.000000	 0.018024  
852.000000	 0.019404  
851.000000	 0.020988  
850.000000	 0.022632  
849.000000	 0.024122  
848.000000	 0.025264  
847.000000	 0.025915  
846.000000	 0.025966  
845.000000	 0.025360  
844.000000	 0.024158  
843.000000	 0.022580  
842.000000	 0.020927  
841.000000	 0.019420  
840.000000	 0.018107  
839.000000	 0.016937  
838.000000	 0.015897  
837.000000	 0.015051  
836.000000	 0.014453  
835.000000	 0.014063  
834.000000	 0.013769  
833.000000	 0.013507  
832.000000	 0.013319  
831.000000	 0.013283  
830.000000	 0.013384  
829.000000	 0.013505  
828.000000	 0.013542  
827.000000	 0.013502  
826.000000	 0.013455  
825.000000	 0.013413  
824.000000	 0.013322  
823.000000	 0.013178  
822.000000	 0.013071  
821.000000	 0.013062  
820.000000	 0.013097  
819.000000	 0.013109  
818.000000	 0.013149  
817.000000	 0.013333  
816.000000	 0.013662  
815.000000	 0.013961  
814.000000	 0.014052  
813.000000	 0.013967  
812.000000	 0.013917  
811.000000	 0.014065  
810.000000	 0.014370  
809.000000	 0.014672  
808.000000	 0.014867  
807.000000	 0.014973  
806.000000	 0.015041  
805.000000	 0.015066  
804.000000	 0.014984  
803.000000	 0.014747  
802.000000	 0.014396  
801.000000	 0.014039  
800.000000	 0.013768  
799.000000	 0.013600  
798.000000	 0.013497  
797.000000	 0.013438  
796.000000	 0.013421  
795.000000	 0.013426  
794.000000	 0.013411  
793.000000	 0.013374  
792.000000	 0.013374  
791.000000	 0.013484  
790.000000	 0.013724  
789.000000	 0.014073  
788.000000	 0.014495  
787.000000	 0.014937  
786.000000	 0.015326  
785.000000	 0.015603  
784.000000	 0.015788  
783.000000	 0.015972  
782.000000	 0.016248  
781.000000	 0.016637  
780.000000	 0.017060  
779.000000	 0.017373  
778.000000	 0.017475  
777.000000	 0.017418  
776.000000	 0.017391  
775.000000	 0.017563  
774.000000	 0.017941  
773.000000	 0.018406  
772.000000	 0.018865  
771.000000	 0.019311  
770.000000	 0.019747  
769.000000	 0.020122  
768.000000	 0.020384  
767.000000	 0.020561  
766.000000	 0.020734  
765.000000	 0.020948  
764.000000	 0.021173  
763.000000	 0.021363  
762.000000	 0.021506  
761.000000	 0.021609  
760.000000	 0.021687  
759.000000	 0.021797  
758.000000	 0.022041  
757.000000	 0.022499  
756.000000	 0.023141  
755.000000	 0.023841  
754.000000	 0.024471  
753.000000	 0.025000  
752.000000	 0.025484  
751.000000	 0.026014  
750.000000	 0.026641  
749.000000	 0.027353  
748.000000	 0.028113  
747.000000	 0.028930  
746.000000	 0.029894  
745.000000	 0.031092  
744.000000	 0.032498  
743.000000	 0.033972  
742.000000	 0.035381  
741.000000	 0.036674  
740.000000	 0.037837  
739.000000	 0.038805  
738.000000	 0.039469  
737.000000	 0.039760  
736.000000	 0.039701  
735.000000	 0.039396  
734.000000	 0.038996  
733.000000	 0.038654  
732.000000	 0.038483  
731.000000	 0.038526  
730.000000	 0.038774  
729.000000	 0.039171  
728.000000	 0.039656  
727.000000	 0.040204  
726.000000	 0.040829  
725.000000	 0.041538  
724.000000	 0.042258  
723.000000	 0.042816  
722.000000	 0.043011  
721.000000	 0.042713  
720.000000	 0.041928  
719.000000	 0.040786  
718.000000	 0.039467  
717.000000	 0.038169  
716.000000	 0.037085  
715.000000	 0.036338  
714.000000	 0.035895  
713.000000	 0.035584  
712.000000	 0.035216  
711.000000	 0.034715  
710.000000	 0.034160  
709.000000	 0.033706  
708.000000	 0.033460  
707.000000	 0.033415  
706.000000	 0.033476  
705.000000	 0.033594  
704.000000	 0.033812  
703.000000	 0.034145  
702.000000	 0.034454  
701.000000	 0.034538  
700.000000	 0.034348  
699.000000	 0.034019  
698.000000	 0.033676  
697.000000	 0.033286  
696.000000	 0.032796  
695.000000	 0.032299  
694.000000	 0.031982  
693.000000	 0.031917  
692.000000	 0.031979  
691.000000	 0.032006  
690.000000	 0.031930  
689.000000	 0.031755  
688.000000	 0.031480  
687.000000	 0.031091  
686.000000	 0.030631  
685.000000	 0.030218  
684.000000	 0.029968  
683.000000	 0.029920  
682.000000	 0.029995  
681.000000	 0.030038  
680.000000	 0.029934  
679.000000	 0.029705  
678.000000	 0.029463  
677.000000	 0.029280  
676.000000	 0.029210  
675.000000	 0.029259  
674.000000	 0.029355  
673.000000	 0.029421  
672.000000	 0.029520  
671.000000	 0.029922  
670.000000	 0.030967  
669.000000	 0.032705  
668.000000	 0.033670  
667.000000	 0.032209  
666.000000	 0.030056  
665.000000	 0.028703  
664.000000	 0.028096  
663.000000	 0.027938  
662.000000	 0.027992  
661.000000	 0.028042  
660.000000	 0.028061  
659.000000	 0.028053  
658.000000	 0.028323  
657.000000	 0.028505  
656.000000	 0.028974  
655.000000	 0.028182  
654.000000	 0.024375  
653.000000	 0.024371  
652.000000	 0.024113  
651.000000	 0.024420  
650.000000	 0.024720  

