PE IR                   SPECTRUM    ASCII       PEDS        1.60        
  -1
NB462~1.ASC
17/05/24
07:59:00.00
17/05/24
07:59:00.00
Admin

650.000000
4









SPECTRUM ONE,CPU32 MAIN 00.02.6000 25-JUNE-2003 12:00:00
MIR TGS
MIR
OPTKBR
68128
0.200000

4.000000
STRONG
RATIO
SPECTRUM
MAGNITUDE
UNIVERSAL ATR
DOUBLE

COMBINED


0


#HDR
-1
-1
#GR
CM-1
A
0.00000011920928955078
0.0
4000.000000
-1.000000
3351
8
0.196674
-0.001318
#DATA
4000.000000	0.004635  
3999.000000	0.004523  
3998.000000	0.004410  
3997.000000	0.004298  
3996.000000	0.004186  
3995.000000	0.004080  
3994.000000	0.004008  
3993.000000	0.003977  
3992.000000	0.003969  
3991.000000	0.004006  
3990.000000	0.004024  
3989.000000	0.004054  
3988.000000	0.004097  
3987.000000	0.004132  
3986.000000	0.004129  
3985.000000	0.004079  
3984.000000	0.004010  
3983.000000	0.003965  
3982.000000	0.003960  
3981.000000	0.003958  
3980.000000	0.003911  
3979.000000	0.003805  
3978.000000	0.003675  
3977.000000	0.003580  
3976.000000	0.003558  
3975.000000	0.003617  
3974.000000	0.003733  
3973.000000	0.003870  
3972.000000	0.003983  
3971.000000	0.004037  
3970.000000	0.004019  
3969.000000	0.003951  
3968.000000	0.003880  
3967.000000	0.003849  
3966.000000	0.003862  
3965.000000	0.003885  
3964.000000	0.003873  
3963.000000	0.003810  
3962.000000	0.003719  
3961.000000	0.003640  
3960.000000	0.003584  
3959.000000	0.003532  
3958.000000	0.003472  
3957.000000	0.003422  
3956.000000	0.003425  
3955.000000	0.003501  
3954.000000	0.003621  
3953.000000	0.003724  
3952.000000	0.003769  
3951.000000	0.003760  
3950.000000	0.003740  
3949.000000	0.003742  
3948.000000	0.003777  
3947.000000	0.003837  
3946.000000	0.003910  
3945.000000	0.003989  
3944.000000	0.004090  
3943.000000	0.004226  
3942.000000	0.004384  
3941.000000	0.004510  
3940.000000	0.004538  
3939.000000	0.004431  
3938.000000	0.004211  
3937.000000	0.003967  
3936.000000	0.003813  
3935.000000	0.003818  
3934.000000	0.003952  
3933.000000	0.004097  
3932.000000	0.004157  
3931.000000	0.004132  
3930.000000	0.004079  
3929.000000	0.004019  
3928.000000	0.003940  
3927.000000	0.003851  
3926.000000	0.003798  
3925.000000	0.003805  
3924.000000	0.003839  
3923.000000	0.003837  
3922.000000	0.003802  
3921.000000	0.003806  
3920.000000	0.003908  
3919.000000	0.004088  
3918.000000	0.004258  
3917.000000	0.004345  
3916.000000	0.004354  
3915.000000	0.004347  
3914.000000	0.004366  
3913.000000	0.004399  
3912.000000	0.004377  
3911.000000	0.004232  
3910.000000	0.003964  
3909.000000	0.003645  
3908.000000	0.003370  
3907.000000	0.003223  
3906.000000	0.003277  
3905.000000	0.003553  
3904.000000	0.003961  
3903.000000	0.004333  
3902.000000	0.004568  
3901.000000	0.004721  
3900.000000	0.004894  
3899.000000	0.005086  
3898.000000	0.005186  
3897.000000	0.005111  
3896.000000	0.004866  
3895.000000	0.004491  
3894.000000	0.004039  
3893.000000	0.003638  
3892.000000	0.003439  
3891.000000	0.003442  
3890.000000	0.003496  
3889.000000	0.003491  
3888.000000	0.003469  
3887.000000	0.003521  
3886.000000	0.003664  
3885.000000	0.003830  
3884.000000	0.003929  
3883.000000	0.003950  
3882.000000	0.003969  
3881.000000	0.004015  
3880.000000	0.004032  
3879.000000	0.003960  
3878.000000	0.003819  
3877.000000	0.003676  
3876.000000	0.003553  
3875.000000	0.003414  
3874.000000	0.003248  
3873.000000	0.003088  
3872.000000	0.002985  
3871.000000	0.003003  
3870.000000	0.003153  
3869.000000	0.003329  
3868.000000	0.003422  
3867.000000	0.003485  
3866.000000	0.003630  
3865.000000	0.003784  
3864.000000	0.003771  
3863.000000	0.003575  
3862.000000	0.003340  
3861.000000	0.003200  
3860.000000	0.003154  
3859.000000	0.003124  
3858.000000	0.003063  
3857.000000	0.002979  
3856.000000	0.002908  
3855.000000	0.002924  
3854.000000	0.003104  
3853.000000	0.003363  
3852.000000	0.003465  
3851.000000	0.003377  
3850.000000	0.003408  
3849.000000	0.003673  
3848.000000	0.003844  
3847.000000	0.003705  
3846.000000	0.003337  
3845.000000	0.002913  
3844.000000	0.002587  
3843.000000	0.002467  
3842.000000	0.002567  
3841.000000	0.002790  
3840.000000	0.002997  
3839.000000	0.003077  
3838.000000	0.002999  
3837.000000	0.002807  
3836.000000	0.002584  
3835.000000	0.002422  
3834.000000	0.002373  
3833.000000	0.002409  
3832.000000	0.002465  
3831.000000	0.002486  
3830.000000	0.002467  
3829.000000	0.002460  
3828.000000	0.002528  
3827.000000	0.002650  
3826.000000	0.002708  
3825.000000	0.002597  
3824.000000	0.002338  
3823.000000	0.002100  
3822.000000	0.002068  
3821.000000	0.002212  
3820.000000	0.002255  
3819.000000	0.002057  
3818.000000	0.001880  
3817.000000	0.002023  
3816.000000	0.002387  
3815.000000	0.002669  
3814.000000	0.002757  
3813.000000	0.002786  
3812.000000	0.002880  
3811.000000	0.002903  
3810.000000	0.002672  
3809.000000	0.002284  
3808.000000	0.002034  
3807.000000	0.002081  
3806.000000	0.002265  
3805.000000	0.002343  
3804.000000	0.002280  
3803.000000	0.002167  
3802.000000	0.002061  
3801.000000	0.001978  
3800.000000	0.001888  
3799.000000	0.001862  
3798.000000	0.002102  
3797.000000	0.002556  
3796.000000	0.002871  
3795.000000	0.002866  
3794.000000	0.002680  
3793.000000	0.002562  
3792.000000	0.002627  
3791.000000	0.002800  
3790.000000	0.002955  
3789.000000	0.003032  
3788.000000	0.003038  
3787.000000	0.003012  
3786.000000	0.003004  
3785.000000	0.003028  
3784.000000	0.003036  
3783.000000	0.002975  
3782.000000	0.002846  
3781.000000	0.002699  
3780.000000	0.002563  
3779.000000	0.002428  
3778.000000	0.002283  
3777.000000	0.002180  
3776.000000	0.002222  
3775.000000	0.002419  
3774.000000	0.002643  
3773.000000	0.002763  
3772.000000	0.002775  
3771.000000	0.002764  
3770.000000	0.002777  
3769.000000	0.002785  
3768.000000	0.002778  
3767.000000	0.002830  
3766.000000	0.002980  
3765.000000	0.003125  
3764.000000	0.003134  
3763.000000	0.003008  
3762.000000	0.002864  
3761.000000	0.002789  
3760.000000	0.002749  
3759.000000	0.002658  
3758.000000	0.002491  
3757.000000	0.002312  
3756.000000	0.002169  
3755.000000	0.002014  
3754.000000	0.001785  
3753.000000	0.001540  
3752.000000	0.001535  
3751.000000	0.001972  
3750.000000	0.002608  
3749.000000	0.003050  
3748.000000	0.003227  
3747.000000	0.003279  
3746.000000	0.003296  
3745.000000	0.003302  
3744.000000	0.003282  
3743.000000	0.003141  
3742.000000	0.002873  
3741.000000	0.002660  
3740.000000	0.002557  
3739.000000	0.002468  
3738.000000	0.002516  
3737.000000	0.002859  
3736.000000	0.003276  
3735.000000	0.003371  
3734.000000	0.003149  
3733.000000	0.002957  
3732.000000	0.002983  
3731.000000	0.003120  
3730.000000	0.003210  
3729.000000	0.003229  
3728.000000	0.003198  
3727.000000	0.003097  
3726.000000	0.002932  
3725.000000	0.002766  
3724.000000	0.002694  
3723.000000	0.002766  
3722.000000	0.002925  
3721.000000	0.003036  
3720.000000	0.003033  
3719.000000	0.002951  
3718.000000	0.002848  
3717.000000	0.002741  
3716.000000	0.002612  
3715.000000	0.002437  
3714.000000	0.002188  
3713.000000	0.001865  
3712.000000	0.001596  
3711.000000	0.001544  
3710.000000	0.001655  
3709.000000	0.001782  
3708.000000	0.001916  
3707.000000	0.002100  
3706.000000	0.002326  
3705.000000	0.002577  
3704.000000	0.002866  
3703.000000	0.003170  
3702.000000	0.003384  
3701.000000	0.003402  
3700.000000	0.003247  
3699.000000	0.003064  
3698.000000	0.002991  
3697.000000	0.003036  
3696.000000	0.003096  
3695.000000	0.003103  
3694.000000	0.003092  
3693.000000	0.003134  
3692.000000	0.003205  
3691.000000	0.003181  
3690.000000	0.002977  
3689.000000	0.002681  
3688.000000	0.002459  
3687.000000	0.002414  
3686.000000	0.002573  
3685.000000	0.002843  
3684.000000	0.002996  
3683.000000	0.002867  
3682.000000	0.002512  
3681.000000	0.002142  
3680.000000	0.001925  
3679.000000	0.001878  
3678.000000	0.001935  
3677.000000	0.002080  
3676.000000	0.002311  
3675.000000	0.002491  
3674.000000	0.002442  
3673.000000	0.002276  
3672.000000	0.002368  
3671.000000	0.002826  
3670.000000	0.003328  
3669.000000	0.003516  
3668.000000	0.003339  
3667.000000	0.003068  
3666.000000	0.002957  
3665.000000	0.002980  
3664.000000	0.003011  
3663.000000	0.003033  
3662.000000	0.003072  
3661.000000	0.003120  
3660.000000	0.003136  
3659.000000	0.003091  
3658.000000	0.003012  
3657.000000	0.002978  
3656.000000	0.003023  
3655.000000	0.003084  
3654.000000	0.003087  
3653.000000	0.003061  
3652.000000	0.003084  
3651.000000	0.003291  
3650.000000	0.003803  
3649.000000	0.004327  
3648.000000	0.004398  
3647.000000	0.004073  
3646.000000	0.003731  
3645.000000	0.003563  
3644.000000	0.003543  
3643.000000	0.003607  
3642.000000	0.003700  
3641.000000	0.003761  
3640.000000	0.003733  
3639.000000	0.003591  
3638.000000	0.003345  
3637.000000	0.003036  
3636.000000	0.002757  
3635.000000	0.002641  
3634.000000	0.002751  
3633.000000	0.003017  
3632.000000	0.003320  
3631.000000	0.003610  
3630.000000	0.003890  
3629.000000	0.004142  
3628.000000	0.004292  
3627.000000	0.004286  
3626.000000	0.004234  
3625.000000	0.004261  
3624.000000	0.004277  
3623.000000	0.004175  
3622.000000	0.004036  
3621.000000	0.003981  
3620.000000	0.004040  
3619.000000	0.004136  
3618.000000	0.004152  
3617.000000	0.004028  
3616.000000	0.003813  
3615.000000	0.003606  
3614.000000	0.003494  
3613.000000	0.003488  
3612.000000	0.003523  
3611.000000	0.003552  
3610.000000	0.003636  
3609.000000	0.003889  
3608.000000	0.004318  
3607.000000	0.004751  
3606.000000	0.004997  
3605.000000	0.004989  
3604.000000	0.004757  
3603.000000	0.004384  
3602.000000	0.004012  
3601.000000	0.003807  
3600.000000	0.003835  
3599.000000	0.004019  
3598.000000	0.004236  
3597.000000	0.004398  
3596.000000	0.004461  
3595.000000	0.004438  
3594.000000	0.004411  
3593.000000	0.004465  
3592.000000	0.004624  
3591.000000	0.004849  
3590.000000	0.005073  
3589.000000	0.005255  
3588.000000	0.005426  
3587.000000	0.005640  
3586.000000	0.005843  
3585.000000	0.005907  
3584.000000	0.005754  
3583.000000	0.005391  
3582.000000	0.004932  
3581.000000	0.004574  
3580.000000	0.004461  
3579.000000	0.004560  
3578.000000	0.004700  
3577.000000	0.004746  
3576.000000	0.004707  
3575.000000	0.004678  
3574.000000	0.004715  
3573.000000	0.004784  
3572.000000	0.004827  
3571.000000	0.004823  
3570.000000	0.004807  
3569.000000	0.004873  
3568.000000	0.005135  
3567.000000	0.005583  
3566.000000	0.006002  
3565.000000	0.006189  
3564.000000	0.006134  
3563.000000	0.005951  
3562.000000	0.005759  
3561.000000	0.005623  
3560.000000	0.005559  
3559.000000	0.005552  
3558.000000	0.005578  
3557.000000	0.005609  
3556.000000	0.005624  
3555.000000	0.005634  
3554.000000	0.005664  
3553.000000	0.005715  
3552.000000	0.005752  
3551.000000	0.005753  
3550.000000	0.005765  
3549.000000	0.005874  
3548.000000	0.006120  
3547.000000	0.006444  
3546.000000	0.006733  
3545.000000	0.006929  
3544.000000	0.007040  
3543.000000	0.007076  
3542.000000	0.007030  
3541.000000	0.006920  
3540.000000	0.006791  
3539.000000	0.006671  
3538.000000	0.006547  
3537.000000	0.006392  
3536.000000	0.006219  
3535.000000	0.006080  
3534.000000	0.006008  
3533.000000	0.005987  
3532.000000	0.005976  
3531.000000	0.005959  
3530.000000	0.005963  
3529.000000	0.006033  
3528.000000	0.006179  
3527.000000	0.006346  
3526.000000	0.006464  
3525.000000	0.006504  
3524.000000	0.006502  
3523.000000	0.006524  
3522.000000	0.006602  
3521.000000	0.006721  
3520.000000	0.006853  
3519.000000	0.006976  
3518.000000	0.007073  
3517.000000	0.007136  
3516.000000	0.007172  
3515.000000	0.007192  
3514.000000	0.007206  
3513.000000	0.007218  
3512.000000	0.007250  
3511.000000	0.007325  
3510.000000	0.007421  
3509.000000	0.007460  
3508.000000	0.007391  
3507.000000	0.007248  
3506.000000	0.007125  
3505.000000	0.007079  
3504.000000	0.007077  
3503.000000	0.007054  
3502.000000	0.007006  
3501.000000	0.006992  
3500.000000	0.007038  
3499.000000	0.007107  
3498.000000	0.007160  
3497.000000	0.007204  
3496.000000	0.007252  
3495.000000	0.007288  
3494.000000	0.007288  
3493.000000	0.007285  
3492.000000	0.007360  
3491.000000	0.007552  
3490.000000	0.007793  
3489.000000	0.007962  
3488.000000	0.008005  
3487.000000	0.007974  
3486.000000	0.007945  
3485.000000	0.007928  
3484.000000	0.007869  
3483.000000	0.007742  
3482.000000	0.007606  
3481.000000	0.007564  
3480.000000	0.007669  
3479.000000	0.007883  
3478.000000	0.008134  
3477.000000	0.008375  
3476.000000	0.008596  
3475.000000	0.008773  
3474.000000	0.008856  
3473.000000	0.008807  
3472.000000	0.008657  
3471.000000	0.008491  
3470.000000	0.008373  
3469.000000	0.008316  
3468.000000	0.008297  
3467.000000	0.008301  
3466.000000	0.008312  
3465.000000	0.008300  
3464.000000	0.008253  
3463.000000	0.008203  
3462.000000	0.008226  
3461.000000	0.008370  
3460.000000	0.008614  
3459.000000	0.008874  
3458.000000	0.009057  
3457.000000	0.009105  
3456.000000	0.009024  
3455.000000	0.008885  
3454.000000	0.008789  
3453.000000	0.008800  
3452.000000	0.008909  
3451.000000	0.009044  
3450.000000	0.009138  
3449.000000	0.009194  
3448.000000	0.009280  
3447.000000	0.009435  
3446.000000	0.009603  
3445.000000	0.009685  
3444.000000	0.009657  
3443.000000	0.009582  
3442.000000	0.009538  
3441.000000	0.009541  
3440.000000	0.009548  
3439.000000	0.009527  
3438.000000	0.009477  
3437.000000	0.009414  
3436.000000	0.009348  
3435.000000	0.009292  
3434.000000	0.009263  
3433.000000	0.009277  
3432.000000	0.009332  
3431.000000	0.009411  
3430.000000	0.009499  
3429.000000	0.009585  
3428.000000	0.009656  
3427.000000	0.009685  
3426.000000	0.009643  
3425.000000	0.009531  
3424.000000	0.009399  
3423.000000	0.009327  
3422.000000	0.009357  
3421.000000	0.009454  
3420.000000	0.009529  
3419.000000	0.009528  
3418.000000	0.009468  
3417.000000	0.009410  
3416.000000	0.009414  
3415.000000	0.009516  
3414.000000	0.009718  
3413.000000	0.009973  
3412.000000	0.010196  
3411.000000	0.010306  
3410.000000	0.010278  
3409.000000	0.010165  
3408.000000	0.010067  
3407.000000	0.010068  
3406.000000	0.010175  
3405.000000	0.010315  
3404.000000	0.010397  
3403.000000	0.010386  
3402.000000	0.010317  
3401.000000	0.010257  
3400.000000	0.010256  
3399.000000	0.010322  
3398.000000	0.010418  
3397.000000	0.010478  
3396.000000	0.010455  
3395.000000	0.010373  
3394.000000	0.010318  
3393.000000	0.010370  
3392.000000	0.010526  
3391.000000	0.010704  
3390.000000	0.010805  
3389.000000	0.010791  
3388.000000	0.010706  
3387.000000	0.010651  
3386.000000	0.010701  
3385.000000	0.010838  
3384.000000	0.010960  
3383.000000	0.010972  
3382.000000	0.010885  
3381.000000	0.010798  
3380.000000	0.010798  
3379.000000	0.010885  
3378.000000	0.010975  
3377.000000	0.010999  
3376.000000	0.010958  
3375.000000	0.010901  
3374.000000	0.010854  
3373.000000	0.010809  
3372.000000	0.010770  
3371.000000	0.010775  
3370.000000	0.010852  
3369.000000	0.010965  
3368.000000	0.011043  
3367.000000	0.011060  
3366.000000	0.011055  
3365.000000	0.011076  
3364.000000	0.011118  
3363.000000	0.011145  
3362.000000	0.011146  
3361.000000	0.011143  
3360.000000	0.011171  
3359.000000	0.011246  
3358.000000	0.011356  
3357.000000	0.011461  
3356.000000	0.011516  
3355.000000	0.011502  
3354.000000	0.011438  
3353.000000	0.011354  
3352.000000	0.011266  
3351.000000	0.011180  
3350.000000	0.011104  
3349.000000	0.011051  
3348.000000	0.011021  
3347.000000	0.011017  
3346.000000	0.011056  
3345.000000	0.011161  
3344.000000	0.011319  
3343.000000	0.011468  
3342.000000	0.011532  
3341.000000	0.011480  
3340.000000	0.011348  
3339.000000	0.011205  
3338.000000	0.011102  
3337.000000	0.011050  
3336.000000	0.011037  
3335.000000	0.011044  
3334.000000	0.011049  
3333.000000	0.011032  
3332.000000	0.010989  
3331.000000	0.010943  
3330.000000	0.010926  
3329.000000	0.010937  
3328.000000	0.010949  
3327.000000	0.010943  
3326.000000	0.010932  
3325.000000	0.010946  
3324.000000	0.010993  
3323.000000	0.011053  
3322.000000	0.011093  
3321.000000	0.011099  
3320.000000	0.011081  
3319.000000	0.011053  
3318.000000	0.011018  
3317.000000	0.010967  
3316.000000	0.010897  
3315.000000	0.010835  
3314.000000	0.010817  
3313.000000	0.010849  
3312.000000	0.010898  
3311.000000	0.010926  
3310.000000	0.010925  
3309.000000	0.010914  
3308.000000	0.010902  
3307.000000	0.010881  
3306.000000	0.010838  
3305.000000	0.010779  
3304.000000	0.010736  
3303.000000	0.010735  
3302.000000	0.010756  
3301.000000	0.010734  
3300.000000	0.010611  
3299.000000	0.010404  
3298.000000	0.010187  
3297.000000	0.010039  
3296.000000	0.009992  
3295.000000	0.010030  
3294.000000	0.010119  
3293.000000	0.010213  
3292.000000	0.010272  
3291.000000	0.010284  
3290.000000	0.010252  
3289.000000	0.010177  
3288.000000	0.010067  
3287.000000	0.009974  
3286.000000	0.009960  
3285.000000	0.010029  
3284.000000	0.010099  
3283.000000	0.010085  
3282.000000	0.009987  
3281.000000	0.009867  
3280.000000	0.009762  
3279.000000	0.009658  
3278.000000	0.009537  
3277.000000	0.009421  
3276.000000	0.009331  
3275.000000	0.009263  
3274.000000	0.009194  
3273.000000	0.009122  
3272.000000	0.009059  
3271.000000	0.009022  
3270.000000	0.009022  
3269.000000	0.009055  
3268.000000	0.009099  
3267.000000	0.009125  
3266.000000	0.009118  
3265.000000	0.009090  
3264.000000	0.009050  
3263.000000	0.008978  
3262.000000	0.008854  
3261.000000	0.008698  
3260.000000	0.008568  
3259.000000	0.008524  
3258.000000	0.008581  
3257.000000	0.008718  
3256.000000	0.008881  
3255.000000	0.008990  
3254.000000	0.008970  
3253.000000	0.008805  
3252.000000	0.008573  
3251.000000	0.008394  
3250.000000	0.008333  
3249.000000	0.008350  
3248.000000	0.008358  
3247.000000	0.008319  
3246.000000	0.008273  
3245.000000	0.008271  
3244.000000	0.008309  
3243.000000	0.008327  
3242.000000	0.008270  
3241.000000	0.008123  
3240.000000	0.007927  
3239.000000	0.007757  
3238.000000	0.007683  
3237.000000	0.007709  
3236.000000	0.007766  
3235.000000	0.007770  
3234.000000	0.007712  
3233.000000	0.007660  
3232.000000	0.007665  
3231.000000	0.007688  
3230.000000	0.007647  
3229.000000	0.007537  
3228.000000	0.007463  
3227.000000	0.007519  
3226.000000	0.007675  
3225.000000	0.007813  
3224.000000	0.007841  
3223.000000	0.007758  
3222.000000	0.007594  
3221.000000	0.007372  
3220.000000	0.007138  
3219.000000	0.006978  
3218.000000	0.006959  
3217.000000	0.007048  
3216.000000	0.007142  
3215.000000	0.007175  
3214.000000	0.007173  
3213.000000	0.007189  
3212.000000	0.007234  
3211.000000	0.007262  
3210.000000	0.007216  
3209.000000	0.007065  
3208.000000	0.006841  
3207.000000	0.006645  
3206.000000	0.006593  
3205.000000	0.006720  
3204.000000	0.006932  
3203.000000	0.007087  
3202.000000	0.007107  
3201.000000	0.007018  
3200.000000	0.006888  
3199.000000	0.006772  
3198.000000	0.006693  
3197.000000	0.006639  
3196.000000	0.006572  
3195.000000	0.006470  
3194.000000	0.006363  
3193.000000	0.006315  
3192.000000	0.006358  
3191.000000	0.006453  
3190.000000	0.006514  
3189.000000	0.006482  
3188.000000	0.006361  
3187.000000	0.006211  
3186.000000	0.006100  
3185.000000	0.006060  
3184.000000	0.006073  
3183.000000	0.006104  
3182.000000	0.006138  
3181.000000	0.006170  
3180.000000	0.006179  
3179.000000	0.006126  
3178.000000	0.005991  
3177.000000	0.005807  
3176.000000	0.005641  
3175.000000	0.005550  
3174.000000	0.005558  
3173.000000	0.005648  
3172.000000	0.005763  
3171.000000	0.005838  
3170.000000	0.005842  
3169.000000	0.005805  
3168.000000	0.005793  
3167.000000	0.005843  
3166.000000	0.005944  
3165.000000	0.006058  
3164.000000	0.006141  
3163.000000	0.006155  
3162.000000	0.006068  
3161.000000	0.005887  
3160.000000	0.005673  
3159.000000	0.005506  
3158.000000	0.005416  
3157.000000	0.005374  
3156.000000	0.005349  
3155.000000	0.005354  
3154.000000	0.005409  
3153.000000	0.005477  
3152.000000	0.005470  
3151.000000	0.005342  
3150.000000	0.005134  
3149.000000	0.004951  
3148.000000	0.004870  
3147.000000	0.004902  
3146.000000	0.004994  
3145.000000	0.005061  
3144.000000	0.005033  
3143.000000	0.004913  
3142.000000	0.004778  
3141.000000	0.004714  
3140.000000	0.004745  
3139.000000	0.004828  
3138.000000	0.004930  
3137.000000	0.005063  
3136.000000	0.005245  
3135.000000	0.005433  
3134.000000	0.005534  
3133.000000	0.005481  
3132.000000	0.005305  
3131.000000	0.005111  
3130.000000	0.004998  
3129.000000	0.004991  
3128.000000	0.005046  
3127.000000	0.005097  
3126.000000	0.005100  
3125.000000	0.005041  
3124.000000	0.004925  
3123.000000	0.004774  
3122.000000	0.004631  
3121.000000	0.004553  
3120.000000	0.004576  
3119.000000	0.004691  
3118.000000	0.004832  
3117.000000	0.004911  
3116.000000	0.004875  
3115.000000	0.004758  
3114.000000	0.004652  
3113.000000	0.004635  
3112.000000	0.004704  
3111.000000	0.004796  
3110.000000	0.004852  
3109.000000	0.004865  
3108.000000	0.004864  
3107.000000	0.004878  
3106.000000	0.004903  
3105.000000	0.004898  
3104.000000	0.004821  
3103.000000	0.004676  
3102.000000	0.004523  
3101.000000	0.004430  
3100.000000	0.004404  
3099.000000	0.004405  
3098.000000	0.004408  
3097.000000	0.004434  
3096.000000	0.004506  
3095.000000	0.004611  
3094.000000	0.004700  
3093.000000	0.004734  
3092.000000	0.004713  
3091.000000	0.004668  
3090.000000	0.004637  
3089.000000	0.004646  
3088.000000	0.004697  
3087.000000	0.004777  
3086.000000	0.004876  
3085.000000	0.004982  
3084.000000	0.005058  
3083.000000	0.005051  
3082.000000	0.004931  
3081.000000	0.004733  
3080.000000	0.004537  
3079.000000	0.004425  
3078.000000	0.004428  
3077.000000	0.004524  
3076.000000	0.004658  
3075.000000	0.004769  
3074.000000	0.004825  
3073.000000	0.004826  
3072.000000	0.004789  
3071.000000	0.004725  
3070.000000	0.004645  
3069.000000	0.004575  
3068.000000	0.004545  
3067.000000	0.004563  
3066.000000	0.004606  
3065.000000	0.004650  
3064.000000	0.004699  
3063.000000	0.004765  
3062.000000	0.004844  
3061.000000	0.004908  
3060.000000	0.004945  
3059.000000	0.004969  
3058.000000	0.004984  
3057.000000	0.004971  
3056.000000	0.004911  
3055.000000	0.004837  
3054.000000	0.004824  
3053.000000	0.004905  
3052.000000	0.005034  
3051.000000	0.005127  
3050.000000	0.005145  
3049.000000	0.005116  
3048.000000	0.005088  
3047.000000	0.005087  
3046.000000	0.005117  
3045.000000	0.005182  
3044.000000	0.005282  
3043.000000	0.005401  
3042.000000	0.005519  
3041.000000	0.005623  
3040.000000	0.005706  
3039.000000	0.005764  
3038.000000	0.005801  
3037.000000	0.005840  
3036.000000	0.005909  
3035.000000	0.006017  
3034.000000	0.006152  
3033.000000	0.006302  
3032.000000	0.006455  
3031.000000	0.006583  
3030.000000	0.006644  
3029.000000	0.006638  
3028.000000	0.006634  
3027.000000	0.006726  
3026.000000	0.006944  
3025.000000	0.007218  
3024.000000	0.007452  
3023.000000	0.007627  
3022.000000	0.007826  
3021.000000	0.008149  
3020.000000	0.008623  
3019.000000	0.009188  
3018.000000	0.009768  
3017.000000	0.010314  
3016.000000	0.010812  
3015.000000	0.011252  
3014.000000	0.011630  
3013.000000	0.011960  
3012.000000	0.012260  
3011.000000	0.012516  
3010.000000	0.012682  
3009.000000	0.012733  
3008.000000	0.012689  
3007.000000	0.012590  
3006.000000	0.012440  
3005.000000	0.012219  
3004.000000	0.011938  
3003.000000	0.011658  
3002.000000	0.011436  
3001.000000	0.011286  
3000.000000	0.011196  
2999.000000	0.011172  
2998.000000	0.011231  
2997.000000	0.011362  
2996.000000	0.011528  
2995.000000	0.011696  
2994.000000	0.011857  
2993.000000	0.012017  
2992.000000	0.012196  
2991.000000	0.012429  
2990.000000	0.012771  
2989.000000	0.013254  
2988.000000	0.013868  
2987.000000	0.014563  
2986.000000	0.015302  
2985.000000	0.016101  
2984.000000	0.017014  
2983.000000	0.018074  
2982.000000	0.019253  
2981.000000	0.020512  
2980.000000	0.021884  
2979.000000	0.023487  
2978.000000	0.025420  
2977.000000	0.027674  
2976.000000	0.030171  
2975.000000	0.032896  
2974.000000	0.035934  
2973.000000	0.039381  
2972.000000	0.043249  
2971.000000	0.047471  
2970.000000	0.051991  
2969.000000	0.056812  
2968.000000	0.061969  
2967.000000	0.067446  
2966.000000	0.073114  
2965.000000	0.078758  
2964.000000	0.084173  
2963.000000	0.089252  
2962.000000	0.093963  
2961.000000	0.098282  
2960.000000	0.102135  
2959.000000	0.105408  
2958.000000	0.107970  
2957.000000	0.109708  
2956.000000	0.110553  
2955.000000	0.110500  
2954.000000	0.109605  
2953.000000	0.107994  
2952.000000	0.105881  
2951.000000	0.103547  
2950.000000	0.101257  
2949.000000	0.099194  
2948.000000	0.097465  
2947.000000	0.096170  
2946.000000	0.095448  
2945.000000	0.095434  
2944.000000	0.096238  
2943.000000	0.097930  
2942.000000	0.100543  
2941.000000	0.104031  
2940.000000	0.108273  
2939.000000	0.113141  
2938.000000	0.118549  
2937.000000	0.124420  
2936.000000	0.130624  
2935.000000	0.136999  
2934.000000	0.143443  
2933.000000	0.149942  
2932.000000	0.156497  
2931.000000	0.163038  
2930.000000	0.169437  
2929.000000	0.175559  
2928.000000	0.181265  
2927.000000	0.186372  
2926.000000	0.190655  
2925.000000	0.193904  
2924.000000	0.195956  
2923.000000	0.196674  
2922.000000	0.195981  
2921.000000	0.193967  
2920.000000	0.190897  
2919.000000	0.187046  
2918.000000	0.182571  
2917.000000	0.177559  
2916.000000	0.172167  
2915.000000	0.166639  
2914.000000	0.161205  
2913.000000	0.155998  
2912.000000	0.151060  
2911.000000	0.146379  
2910.000000	0.141912  
2909.000000	0.137631  
2908.000000	0.133543  
2907.000000	0.129680  
2906.000000	0.126037  
2905.000000	0.122539  
2904.000000	0.119086  
2903.000000	0.115656  
2902.000000	0.112334  
2901.000000	0.109219  
2900.000000	0.106273  
2899.000000	0.103327  
2898.000000	0.100242  
2897.000000	0.097053  
2896.000000	0.093920  
2895.000000	0.090963  
2894.000000	0.088182  
2893.000000	0.085523  
2892.000000	0.082960  
2891.000000	0.080497  
2890.000000	0.078123  
2889.000000	0.075833  
2888.000000	0.073674  
2887.000000	0.071760  
2886.000000	0.070234  
2885.000000	0.069185  
2884.000000	0.068613  
2883.000000	0.068485  
2882.000000	0.068829  
2881.000000	0.069754  
2880.000000	0.071357  
2879.000000	0.073620  
2878.000000	0.076415  
2877.000000	0.079563  
2876.000000	0.082858  
2875.000000	0.086010  
2874.000000	0.088662  
2873.000000	0.090536  
2872.000000	0.091586  
2871.000000	0.092016  
2870.000000	0.092147  
2869.000000	0.092263  
2868.000000	0.092543  
2867.000000	0.093089  
2866.000000	0.093992  
2865.000000	0.095381  
2864.000000	0.097376  
2863.000000	0.100007  
2862.000000	0.103195  
2861.000000	0.106800  
2860.000000	0.110645  
2859.000000	0.114492  
2858.000000	0.118059  
2857.000000	0.121101  
2856.000000	0.123429  
2855.000000	0.124816  
2854.000000	0.124944  
2853.000000	0.123524  
2852.000000	0.120491  
2851.000000	0.116057  
2850.000000	0.110581  
2849.000000	0.104431  
2848.000000	0.097937  
2847.000000	0.091389  
2846.000000	0.085020  
2845.000000	0.078976  
2844.000000	0.073284  
2843.000000	0.067883  
2842.000000	0.062697  
2841.000000	0.057718  
2840.000000	0.053008  
2839.000000	0.048647  
2838.000000	0.044688  
2837.000000	0.041165  
2836.000000	0.038094  
2835.000000	0.035453  
2834.000000	0.033166  
2833.000000	0.031125  
2832.000000	0.029239  
2831.000000	0.027466  
2830.000000	0.025806  
2829.000000	0.024286  
2828.000000	0.022935  
2827.000000	0.021753  
2826.000000	0.020701  
2825.000000	0.019727  
2824.000000	0.018801  
2823.000000	0.017932  
2822.000000	0.017156  
2821.000000	0.016505  
2820.000000	0.015969  
2819.000000	0.015497  
2818.000000	0.015033  
2817.000000	0.014568  
2816.000000	0.014135  
2815.000000	0.013766  
2814.000000	0.013443  
2813.000000	0.013116  
2812.000000	0.012754  
2811.000000	0.012372  
2810.000000	0.012005  
2809.000000	0.011677  
2808.000000	0.011389  
2807.000000	0.011129  
2806.000000	0.010890  
2805.000000	0.010670  
2804.000000	0.010466  
2803.000000	0.010258  
2802.000000	0.010020  
2801.000000	0.009734  
2800.000000	0.009425  
2799.000000	0.009150  
2798.000000	0.008961  
2797.000000	0.008856  
2796.000000	0.008783  
2795.000000	0.008692  
2794.000000	0.008586  
2793.000000	0.008511  
2792.000000	0.008497  
2791.000000	0.008501  
2790.000000	0.008439  
2789.000000	0.008261  
2788.000000	0.008000  
2787.000000	0.007735  
2786.000000	0.007530  
2785.000000	0.007396  
2784.000000	0.007300  
2783.000000	0.007196  
2782.000000	0.007050  
2781.000000	0.006865  
2780.000000	0.006683  
2779.000000	0.006549  
2778.000000	0.006472  
2777.000000	0.006416  
2776.000000	0.006335  
2775.000000	0.006210  
2774.000000	0.006065  
2773.000000	0.005936  
2772.000000	0.005837  
2771.000000	0.005751  
2770.000000	0.005660  
2769.000000	0.005578  
2768.000000	0.005536  
2767.000000	0.005533  
2766.000000	0.005534  
2765.000000	0.005516  
2764.000000	0.005505  
2763.000000	0.005532  
2762.000000	0.005572  
2761.000000	0.005550  
2760.000000	0.005428  
2759.000000	0.005244  
2758.000000	0.005087  
2757.000000	0.005022  
2756.000000	0.005062  
2755.000000	0.005152  
2754.000000	0.005197  
2753.000000	0.005130  
2752.000000	0.004975  
2751.000000	0.004824  
2750.000000	0.004758  
2749.000000	0.004780  
2748.000000	0.004832  
2747.000000	0.004857  
2746.000000	0.004825  
2745.000000	0.004748  
2744.000000	0.004674  
2743.000000	0.004663  
2742.000000	0.004731  
2741.000000	0.004839  
2740.000000	0.004944  
2739.000000	0.005042  
2738.000000	0.005143  
2737.000000	0.005236  
2736.000000	0.005305  
2735.000000	0.005364  
2734.000000	0.005432  
2733.000000	0.005502  
2732.000000	0.005552  
2731.000000	0.005580  
2730.000000	0.005598  
2729.000000	0.005596  
2728.000000	0.005546  
2727.000000	0.005451  
2726.000000	0.005352  
2725.000000	0.005279  
2724.000000	0.005228  
2723.000000	0.005194  
2722.000000	0.005185  
2721.000000	0.005195  
2720.000000	0.005190  
2719.000000	0.005140  
2718.000000	0.005054  
2717.000000	0.004961  
2716.000000	0.004874  
2715.000000	0.004792  
2714.000000	0.004718  
2713.000000	0.004661  
2712.000000	0.004618  
2711.000000	0.004575  
2710.000000	0.004524  
2709.000000	0.004470  
2708.000000	0.004423  
2707.000000	0.004388  
2706.000000	0.004358  
2705.000000	0.004316  
2704.000000	0.004261  
2703.000000	0.004214  
2702.000000	0.004205  
2701.000000	0.004229  
2700.000000	0.004245  
2699.000000	0.004207  
2698.000000	0.004115  
2697.000000	0.004015  
2696.000000	0.003962  
2695.000000	0.003984  
2694.000000	0.004071  
2693.000000	0.004181  
2692.000000	0.004264  
2691.000000	0.004289  
2690.000000	0.004248  
2689.000000	0.004171  
2688.000000	0.004118  
2687.000000	0.004139  
2686.000000	0.004228  
2685.000000	0.004311  
2684.000000	0.004320  
2683.000000	0.004268  
2682.000000	0.004216  
2681.000000	0.004197  
2680.000000	0.004178  
2679.000000	0.004124  
2678.000000	0.004048  
2677.000000	0.003990  
2676.000000	0.003967  
2675.000000	0.003971  
2674.000000	0.003996  
2673.000000	0.004052  
2672.000000	0.004144  
2671.000000	0.004252  
2670.000000	0.004327  
2669.000000	0.004324  
2668.000000	0.004242  
2667.000000	0.004142  
2666.000000	0.004084  
2665.000000	0.004074  
2664.000000	0.004073  
2663.000000	0.004068  
2662.000000	0.004082  
2661.000000	0.004112  
2660.000000	0.004106  
2659.000000	0.004025  
2658.000000	0.003912  
2657.000000	0.003843  
2656.000000	0.003836  
2655.000000	0.003835  
2654.000000	0.003781  
2653.000000	0.003674  
2652.000000	0.003564  
2651.000000	0.003506  
2650.000000	0.003510  
2649.000000	0.003526  
2648.000000	0.003482  
2647.000000	0.003360  
2646.000000	0.003232  
2645.000000	0.003185  
2644.000000	0.003235  
2643.000000	0.003327  
2642.000000	0.003412  
2641.000000	0.003480  
2640.000000	0.003520  
2639.000000	0.003497  
2638.000000	0.003386  
2637.000000	0.003218  
2636.000000	0.003073  
2635.000000	0.003019  
2634.000000	0.003076  
2633.000000	0.003210  
2632.000000	0.003350  
2631.000000	0.003431  
2630.000000	0.003423  
2629.000000	0.003338  
2628.000000	0.003208  
2627.000000	0.003077  
2626.000000	0.002991  
2625.000000	0.002981  
2624.000000	0.003031  
2623.000000	0.003091  
2622.000000	0.003123  
2621.000000	0.003131  
2620.000000	0.003148  
2619.000000	0.003192  
2618.000000	0.003237  
2617.000000	0.003232  
2616.000000	0.003154  
2615.000000	0.003045  
2614.000000	0.002983  
2613.000000	0.002996  
2612.000000	0.003024  
2611.000000	0.002979  
2610.000000	0.002854  
2609.000000	0.002738  
2608.000000	0.002735  
2607.000000	0.002860  
2606.000000	0.003030  
2605.000000	0.003137  
2604.000000	0.003132  
2603.000000	0.003036  
2602.000000	0.002907  
2601.000000	0.002786  
2600.000000	0.002687  
2599.000000	0.002610  
2598.000000	0.002558  
2597.000000	0.002535  
2596.000000	0.002542  
2595.000000	0.002561  
2594.000000	0.002558  
2593.000000	0.002507  
2592.000000	0.002432  
2591.000000	0.002418  
2590.000000	0.002532  
2589.000000	0.002733  
2588.000000	0.002892  
2587.000000	0.002911  
2586.000000	0.002813  
2585.000000	0.002696  
2584.000000	0.002623  
2583.000000	0.002584  
2582.000000	0.002531  
2581.000000	0.002432  
2580.000000	0.002298  
2579.000000	0.002170  
2578.000000	0.002087  
2577.000000	0.002046  
2576.000000	0.002015  
2575.000000	0.001978  
2574.000000	0.001952  
2573.000000	0.001946  
2572.000000	0.001943  
2571.000000	0.001927  
2570.000000	0.001914  
2569.000000	0.001937  
2568.000000	0.002002  
2567.000000	0.002085  
2566.000000	0.002155  
2565.000000	0.002193  
2564.000000	0.002201  
2563.000000	0.002189  
2562.000000	0.002168  
2561.000000	0.002144  
2560.000000	0.002133  
2559.000000	0.002164  
2558.000000	0.002229  
2557.000000	0.002256  
2556.000000	0.002169  
2555.000000	0.001997  
2554.000000	0.001848  
2553.000000	0.001774  
2552.000000	0.001721  
2551.000000	0.001643  
2550.000000	0.001587  
2549.000000	0.001601  
2548.000000	0.001633  
2547.000000	0.001612  
2546.000000	0.001573  
2545.000000	0.001617  
2544.000000	0.001744  
2543.000000	0.001833  
2542.000000	0.001796  
2541.000000	0.001694  
2540.000000	0.001655  
2539.000000	0.001719  
2538.000000	0.001811  
2537.000000	0.001817  
2536.000000	0.001697  
2535.000000	0.001520  
2534.000000	0.001401  
2533.000000	0.001384  
2532.000000	0.001407  
2531.000000	0.001409  
2530.000000	0.001439  
2529.000000	0.001590  
2528.000000	0.001839  
2527.000000	0.002034  
2526.000000	0.002055  
2525.000000	0.001922  
2524.000000	0.001730  
2523.000000	0.001542  
2522.000000	0.001387  
2521.000000	0.001311  
2520.000000	0.001336  
2519.000000	0.001403  
2518.000000	0.001427  
2517.000000	0.001402  
2516.000000	0.001409  
2515.000000	0.001510  
2514.000000	0.001665  
2513.000000	0.001772  
2512.000000	0.001768  
2511.000000	0.001674  
2510.000000	0.001572  
2509.000000	0.001542  
2508.000000	0.001598  
2507.000000	0.001656  
2506.000000	0.001599  
2505.000000	0.001398  
2504.000000	0.001161  
2503.000000	0.001039  
2502.000000	0.001081  
2501.000000	0.001210  
2500.000000	0.001339  
2499.000000	0.001452  
2498.000000	0.001573  
2497.000000	0.001697  
2496.000000	0.001798  
2495.000000	0.001869  
2494.000000	0.001897  
2493.000000	0.001830  
2492.000000	0.001638  
2491.000000	0.001400  
2490.000000	0.001266  
2489.000000	0.001307  
2488.000000	0.001451  
2487.000000	0.001593  
2486.000000	0.001703  
2485.000000	0.001784  
2484.000000	0.001795  
2483.000000	0.001687  
2482.000000	0.001495  
2481.000000	0.001327  
2480.000000	0.001264  
2479.000000	0.001308  
2478.000000	0.001415  
2477.000000	0.001523  
2476.000000	0.001576  
2475.000000	0.001541  
2474.000000	0.001439  
2473.000000	0.001307  
2472.000000	0.001158  
2471.000000	0.000994  
2470.000000	0.000859  
2469.000000	0.000815  
2468.000000	0.000857  
2467.000000	0.000910  
2466.000000	0.000906  
2465.000000	0.000844  
2464.000000	0.000777  
2463.000000	0.000749  
2462.000000	0.000767  
2461.000000	0.000806  
2460.000000	0.000839  
2459.000000	0.000864  
2458.000000	0.000900  
2457.000000	0.000942  
2456.000000	0.000944  
2455.000000	0.000881  
2454.000000	0.000803  
2453.000000	0.000797  
2452.000000	0.000886  
2451.000000	0.001016  
2450.000000	0.001121  
2449.000000	0.001172  
2448.000000	0.001148  
2447.000000	0.001026  
2446.000000	0.000828  
2445.000000	0.000642  
2444.000000	0.000570  
2443.000000	0.000647  
2442.000000	0.000820  
2441.000000	0.000986  
2440.000000	0.001055  
2439.000000	0.001009  
2438.000000	0.000920  
2437.000000	0.000897  
2436.000000	0.000991  
2435.000000	0.001135  
2434.000000	0.001196  
2433.000000	0.001105  
2432.000000	0.000935  
2431.000000	0.000860  
2430.000000	0.000989  
2429.000000	0.001236  
2428.000000	0.001387  
2427.000000	0.001309  
2426.000000	0.001070  
2425.000000	0.000838  
2424.000000	0.000707  
2423.000000	0.000673  
2422.000000	0.000721  
2421.000000	0.000858  
2420.000000	0.001038  
2419.000000	0.001163  
2418.000000	0.001186  
2417.000000	0.001171  
2416.000000	0.001214  
2415.000000	0.001315  
2414.000000	0.001390  
2413.000000	0.001383  
2412.000000	0.001315  
2411.000000	0.001238  
2410.000000	0.001173  
2409.000000	0.001117  
2408.000000	0.001080  
2407.000000	0.001076  
2406.000000	0.001101  
2405.000000	0.001125  
2404.000000	0.001116  
2403.000000	0.001065  
2402.000000	0.000989  
2401.000000	0.000913  
2400.000000	0.000856  
2399.000000	0.000825  
2398.000000	0.000820  
2397.000000	0.000848  
2396.000000	0.000932  
2395.000000	0.001083  
2394.000000	0.001261  
2393.000000	0.001376  
2392.000000	0.001362  
2391.000000	0.001244  
2390.000000	0.001103  
2389.000000	0.000988  
2388.000000	0.000884  
2387.000000	0.000767  
2386.000000	0.000650  
2385.000000	0.000564  
2384.000000	0.000533  
2383.000000	0.000576  
2382.000000	0.000704  
2381.000000	0.000887  
2380.000000	0.001051  
2379.000000	0.001155  
2378.000000	0.001222  
2377.000000	0.001229  
2376.000000	0.001029  
2375.000000	0.000518  
2374.000000	-0.000106 
2373.000000	-0.000422 
2372.000000	-0.000232 
2371.000000	0.000162  
2370.000000	0.000270  
2369.000000	-0.000056 
2368.000000	-0.000507 
2367.000000	-0.000626 
2366.000000	-0.000179 
2365.000000	0.000613  
2364.000000	0.001108  
2363.000000	0.000803  
2362.000000	-0.000102 
2361.000000	-0.000856 
2360.000000	-0.000907 
2359.000000	-0.000433 
2358.000000	0.000126  
2357.000000	0.000629  
2356.000000	0.001150  
2355.000000	0.001762  
2354.000000	0.002406  
2353.000000	0.002867  
2352.000000	0.002791  
2351.000000	0.002079  
2350.000000	0.001178  
2349.000000	0.000630  
2348.000000	0.000662  
2347.000000	0.001017  
2346.000000	0.001245  
2345.000000	0.001136  
2344.000000	0.000723  
2343.000000	0.000242  
2342.000000	-0.000081 
2341.000000	-0.000050 
2340.000000	0.000331  
2339.000000	0.000846  
2338.000000	0.001276  
2337.000000	0.001490  
2336.000000	0.001459  
2335.000000	0.001222  
2334.000000	0.000943  
2333.000000	0.000760  
2332.000000	0.000683  
2331.000000	0.000590  
2330.000000	0.000533  
2329.000000	0.000547  
2328.000000	0.000655  
2327.000000	0.000743  
2326.000000	0.000789  
2325.000000	0.000858  
2324.000000	0.000973  
2323.000000	0.001101  
2322.000000	0.001129  
2321.000000	0.000999  
2320.000000	0.000707  
2319.000000	0.000325  
2318.000000	-0.000001 
2317.000000	-0.000158 
2316.000000	-0.000095 
2315.000000	0.000075  
2314.000000	0.000221  
2313.000000	0.000215  
2312.000000	0.000087  
2311.000000	-0.000066 
2310.000000	-0.000101 
2309.000000	-0.000006 
2308.000000	0.000138  
2307.000000	0.000200  
2306.000000	0.000136  
2305.000000	-0.000025 
2304.000000	-0.000189 
2303.000000	-0.000267 
2302.000000	-0.000206 
2301.000000	-0.000069 
2300.000000	0.000034  
2299.000000	0.000029  
2298.000000	-0.000055 
2297.000000	-0.000181 
2296.000000	-0.000314 
2295.000000	-0.000402 
2294.000000	-0.000334 
2293.000000	-0.000093 
2292.000000	0.000158  
2291.000000	0.000214  
2290.000000	0.000076  
2289.000000	-0.000043 
2288.000000	0.000014  
2287.000000	0.000178  
2286.000000	0.000274  
2285.000000	0.000246  
2284.000000	0.000179  
2283.000000	0.000177  
2282.000000	0.000273  
2281.000000	0.000424  
2280.000000	0.000545  
2279.000000	0.000567  
2278.000000	0.000518  
2277.000000	0.000501  
2276.000000	0.000563  
2275.000000	0.000617  
2274.000000	0.000559  
2273.000000	0.000407  
2272.000000	0.000255  
2271.000000	0.000147  
2270.000000	0.000086  
2269.000000	0.000124  
2268.000000	0.000327  
2267.000000	0.000630  
2266.000000	0.000835  
2265.000000	0.000786  
2264.000000	0.000491  
2263.000000	0.000078  
2262.000000	-0.000293 
2261.000000	-0.000452 
2260.000000	-0.000274 
2259.000000	0.000179  
2258.000000	0.000630  
2257.000000	0.000800  
2256.000000	0.000671  
2255.000000	0.000468  
2254.000000	0.000383  
2253.000000	0.000399  
2252.000000	0.000391  
2251.000000	0.000283  
2250.000000	0.000097  
2249.000000	-0.000099 
2248.000000	-0.000215 
2247.000000	-0.000149 
2246.000000	0.000108  
2245.000000	0.000415  
2244.000000	0.000606  
2243.000000	0.000665  
2242.000000	0.000711  
2241.000000	0.000809  
2240.000000	0.000886  
2239.000000	0.000863  
2238.000000	0.000757  
2237.000000	0.000614  
2236.000000	0.000416  
2235.000000	0.000160  
2234.000000	-0.000031 
2233.000000	0.000023  
2232.000000	0.000376  
2231.000000	0.000866  
2230.000000	0.001231  
2229.000000	0.001273  
2228.000000	0.000973  
2227.000000	0.000501  
2226.000000	0.000102  
2225.000000	-0.000089 
2224.000000	-0.000117 
2223.000000	-0.000079 
2222.000000	-0.000008 
2221.000000	0.000079  
2220.000000	0.000102  
2219.000000	-0.000024 
2218.000000	-0.000267 
2217.000000	-0.000500 
2216.000000	-0.000627 
2215.000000	-0.000604 
2214.000000	-0.000384 
2213.000000	0.000021  
2212.000000	0.000461  
2211.000000	0.000762  
2210.000000	0.000947  
2209.000000	0.001216  
2208.000000	0.001651  
2207.000000	0.002061  
2206.000000	0.002186  
2205.000000	0.001969  
2204.000000	0.001573  
2203.000000	0.001184  
2202.000000	0.000879  
2201.000000	0.000643  
2200.000000	0.000437  
2199.000000	0.000263  
2198.000000	0.000170  
2197.000000	0.000179  
2196.000000	0.000212  
2195.000000	0.000170  
2194.000000	0.000100  
2193.000000	0.000177  
2192.000000	0.000461  
2191.000000	0.000748  
2190.000000	0.000733  
2189.000000	0.000306  
2188.000000	-0.000357 
2187.000000	-0.000972 
2186.000000	-0.001318 
2185.000000	-0.001289 
2184.000000	-0.000905 
2183.000000	-0.000322 
2182.000000	0.000189  
2181.000000	0.000387  
2180.000000	0.000248  
2179.000000	0.000011  
2178.000000	-0.000024 
2177.000000	0.000231  
2176.000000	0.000579  
2175.000000	0.000759  
2174.000000	0.000710  
2173.000000	0.000553  
2172.000000	0.000370  
2171.000000	0.000133  
2170.000000	-0.000135 
2169.000000	-0.000253 
2168.000000	-0.000047 
2167.000000	0.000395  
2166.000000	0.000784  
2165.000000	0.000940  
2164.000000	0.000987  
2163.000000	0.001128  
2162.000000	0.001323  
2161.000000	0.001324  
2160.000000	0.001045  
2159.000000	0.000732  
2158.000000	0.000638  
2157.000000	0.000708  
2156.000000	0.000752  
2155.000000	0.000765  
2154.000000	0.000854  
2153.000000	0.000971  
2152.000000	0.000909  
2151.000000	0.000572  
2150.000000	0.000108  
2149.000000	-0.000248 
2148.000000	-0.000349 
2147.000000	-0.000132 
2146.000000	0.000366  
2145.000000	0.000941  
2144.000000	0.001295  
2143.000000	0.001293  
2142.000000	0.001077  
2141.000000	0.000876  
2140.000000	0.000787  
2139.000000	0.000776  
2138.000000	0.000779  
2137.000000	0.000725  
2136.000000	0.000551  
2135.000000	0.000315  
2134.000000	0.000194  
2133.000000	0.000272  
2132.000000	0.000420  
2131.000000	0.000452  
2130.000000	0.000351  
2129.000000	0.000233  
2128.000000	0.000166  
2127.000000	0.000131  
2126.000000	0.000131  
2125.000000	0.000199  
2124.000000	0.000319  
2123.000000	0.000418  
2122.000000	0.000461  
2121.000000	0.000473  
2120.000000	0.000476  
2119.000000	0.000452  
2118.000000	0.000387  
2117.000000	0.000286  
2116.000000	0.000165  
2115.000000	0.000070  
2114.000000	0.000080  
2113.000000	0.000217  
2112.000000	0.000362  
2111.000000	0.000376  
2110.000000	0.000272  
2109.000000	0.000197  
2108.000000	0.000232  
2107.000000	0.000312  
2106.000000	0.000359  
2105.000000	0.000379  
2104.000000	0.000400  
2103.000000	0.000395  
2102.000000	0.000344  
2101.000000	0.000279  
2100.000000	0.000228  
2099.000000	0.000170  
2098.000000	0.000101  
2097.000000	0.000089  
2096.000000	0.000210  
2095.000000	0.000439  
2094.000000	0.000674  
2093.000000	0.000834  
2092.000000	0.000904  
2091.000000	0.000906  
2090.000000	0.000875  
2089.000000	0.000844  
2088.000000	0.000826  
2087.000000	0.000822  
2086.000000	0.000826  
2085.000000	0.000822  
2084.000000	0.000778  
2083.000000	0.000675  
2082.000000	0.000531  
2081.000000	0.000379  
2080.000000	0.000225  
2079.000000	0.000067  
2078.000000	-0.000061 
2077.000000	-0.000107 
2076.000000	-0.000077 
2075.000000	-0.000037 
2074.000000	-0.000032 
2073.000000	-0.000040 
2072.000000	-0.000010 
2071.000000	0.000075  
2070.000000	0.000176  
2069.000000	0.000196  
2068.000000	0.000071  
2067.000000	-0.000127 
2066.000000	-0.000211 
2065.000000	-0.000059 
2064.000000	0.000229  
2063.000000	0.000476  
2062.000000	0.000625  
2061.000000	0.000730  
2060.000000	0.000794  
2059.000000	0.000771  
2058.000000	0.000703  
2057.000000	0.000716  
2056.000000	0.000856  
2055.000000	0.001011  
2054.000000	0.001029  
2053.000000	0.000856  
2052.000000	0.000547  
2051.000000	0.000240  
2050.000000	0.000101  
2049.000000	0.000180  
2048.000000	0.000297  
2047.000000	0.000238  
2046.000000	0.000053  
2045.000000	-0.000005 
2044.000000	0.000159  
2043.000000	0.000381  
2042.000000	0.000513  
2041.000000	0.000602  
2040.000000	0.000695  
2039.000000	0.000689  
2038.000000	0.000517  
2037.000000	0.000323  
2036.000000	0.000281  
2035.000000	0.000336  
2034.000000	0.000321  
2033.000000	0.000224  
2032.000000	0.000169  
2031.000000	0.000204  
2030.000000	0.000273  
2029.000000	0.000371  
2028.000000	0.000554  
2027.000000	0.000804  
2026.000000	0.001012  
2025.000000	0.001098  
2024.000000	0.001082  
2023.000000	0.001026  
2022.000000	0.000966  
2021.000000	0.000921  
2020.000000	0.000900  
2019.000000	0.000884  
2018.000000	0.000811  
2017.000000	0.000611  
2016.000000	0.000292  
2015.000000	-0.000001 
2014.000000	-0.000099 
2013.000000	-0.000001 
2012.000000	0.000082  
2011.000000	-0.000003 
2010.000000	-0.000094 
2009.000000	0.000143  
2008.000000	0.000763  
2007.000000	0.001415  
2006.000000	0.001708  
2005.000000	0.001546  
2004.000000	0.001072  
2003.000000	0.000479  
2002.000000	-0.000023 
2001.000000	-0.000209 
2000.000000	0.000013  
1999.000000	0.000474  
1998.000000	0.000867  
1997.000000	0.000970  
1996.000000	0.000758  
1995.000000	0.000358  
1994.000000	-0.000000 
1993.000000	-0.000056 
1992.000000	0.000268  
1991.000000	0.000721  
1990.000000	0.000941  
1989.000000	0.000787  
1988.000000	0.000407  
1987.000000	0.000051  
1986.000000	-0.000157 
1985.000000	-0.000276 
1984.000000	-0.000399 
1983.000000	-0.000490 
1982.000000	-0.000408 
1981.000000	-0.000121 
1980.000000	0.000191  
1979.000000	0.000339  
1978.000000	0.000362  
1977.000000	0.000452  
1976.000000	0.000630  
1975.000000	0.000700  
1974.000000	0.000537  
1973.000000	0.000241  
1972.000000	-0.000026 
1971.000000	-0.000208 
1970.000000	-0.000285 
1969.000000	-0.000189 
1968.000000	0.000098  
1967.000000	0.000428  
1966.000000	0.000599  
1965.000000	0.000568  
1964.000000	0.000458  
1963.000000	0.000397  
1962.000000	0.000432  
1961.000000	0.000523  
1960.000000	0.000585  
1959.000000	0.000578  
1958.000000	0.000540  
1957.000000	0.000511  
1956.000000	0.000470  
1955.000000	0.000394  
1954.000000	0.000363  
1953.000000	0.000472  
1952.000000	0.000657  
1951.000000	0.000711  
1950.000000	0.000539  
1949.000000	0.000315  
1948.000000	0.000301  
1947.000000	0.000556  
1946.000000	0.000876  
1945.000000	0.001026  
1944.000000	0.000956  
1943.000000	0.000819  
1942.000000	0.000779  
1941.000000	0.000829  
1940.000000	0.000868  
1939.000000	0.000859  
1938.000000	0.000830  
1937.000000	0.000787  
1936.000000	0.000685  
1935.000000	0.000529  
1934.000000	0.000435  
1933.000000	0.000500  
1932.000000	0.000663  
1931.000000	0.000790  
1930.000000	0.000848  
1929.000000	0.000905  
1928.000000	0.000949  
1927.000000	0.000876  
1926.000000	0.000668  
1925.000000	0.000474  
1924.000000	0.000474  
1923.000000	0.000668  
1922.000000	0.000887  
1921.000000	0.001003  
1920.000000	0.001010  
1919.000000	0.000943  
1918.000000	0.000848  
1917.000000	0.000770  
1916.000000	0.000707  
1915.000000	0.000608  
1914.000000	0.000454  
1913.000000	0.000309  
1912.000000	0.000289  
1911.000000	0.000459  
1910.000000	0.000768  
1909.000000	0.001076  
1908.000000	0.001251  
1907.000000	0.001266  
1906.000000	0.001183  
1905.000000	0.001076  
1904.000000	0.000978  
1903.000000	0.000886  
1902.000000	0.000800  
1901.000000	0.000724  
1900.000000	0.000645  
1899.000000	0.000556  
1898.000000	0.000477  
1897.000000	0.000421  
1896.000000	0.000362  
1895.000000	0.000292  
1894.000000	0.000287  
1893.000000	0.000425  
1892.000000	0.000646  
1891.000000	0.000779  
1890.000000	0.000701  
1889.000000	0.000502  
1888.000000	0.000369  
1887.000000	0.000380  
1886.000000	0.000480  
1885.000000	0.000570  
1884.000000	0.000581  
1883.000000	0.000525  
1882.000000	0.000488  
1881.000000	0.000545  
1880.000000	0.000677  
1879.000000	0.000806  
1878.000000	0.000896  
1877.000000	0.000969  
1876.000000	0.001033  
1875.000000	0.001048  
1874.000000	0.001004  
1873.000000	0.000959  
1872.000000	0.000967  
1871.000000	0.001012  
1870.000000	0.001032  
1869.000000	0.000979  
1868.000000	0.000838  
1867.000000	0.000647  
1866.000000	0.000486  
1865.000000	0.000408  
1864.000000	0.000387  
1863.000000	0.000370  
1862.000000	0.000344  
1861.000000	0.000336  
1860.000000	0.000337  
1859.000000	0.000301  
1858.000000	0.000230  
1857.000000	0.000198  
1856.000000	0.000249  
1855.000000	0.000346  
1854.000000	0.000438  
1853.000000	0.000523  
1852.000000	0.000616  
1851.000000	0.000710  
1850.000000	0.000783  
1849.000000	0.000827  
1848.000000	0.000846  
1847.000000	0.000822  
1846.000000	0.000724  
1845.000000	0.000559  
1844.000000	0.000394  
1843.000000	0.000291  
1842.000000	0.000292  
1841.000000	0.000401  
1840.000000	0.000526  
1839.000000	0.000547  
1838.000000	0.000445  
1837.000000	0.000336  
1836.000000	0.000322  
1835.000000	0.000372  
1834.000000	0.000408  
1833.000000	0.000410  
1832.000000	0.000404  
1831.000000	0.000413  
1830.000000	0.000439  
1829.000000	0.000478  
1828.000000	0.000520  
1827.000000	0.000552  
1826.000000	0.000546  
1825.000000	0.000497  
1824.000000	0.000422  
1823.000000	0.000334  
1822.000000	0.000248  
1821.000000	0.000192  
1820.000000	0.000197  
1819.000000	0.000265  
1818.000000	0.000362  
1817.000000	0.000458  
1816.000000	0.000530  
1815.000000	0.000565  
1814.000000	0.000572  
1813.000000	0.000564  
1812.000000	0.000553  
1811.000000	0.000537  
1810.000000	0.000527  
1809.000000	0.000544  
1808.000000	0.000564  
1807.000000	0.000557  
1806.000000	0.000560  
1805.000000	0.000651  
1804.000000	0.000831  
1803.000000	0.000985  
1802.000000	0.001008  
1801.000000	0.000933  
1800.000000	0.000879  
1799.000000	0.000890  
1798.000000	0.000936  
1797.000000	0.001005  
1796.000000	0.001098  
1795.000000	0.001182  
1794.000000	0.001221  
1793.000000	0.001235  
1792.000000	0.001256  
1791.000000	0.001227  
1790.000000	0.001144  
1789.000000	0.001110  
1788.000000	0.001163  
1787.000000	0.001235  
1786.000000	0.001267  
1785.000000	0.001284  
1784.000000	0.001346  
1783.000000	0.001448  
1782.000000	0.001538  
1781.000000	0.001589  
1780.000000	0.001639  
1779.000000	0.001710  
1778.000000	0.001795  
1777.000000	0.001891  
1776.000000	0.001988  
1775.000000	0.002054  
1774.000000	0.002052  
1773.000000	0.002022  
1772.000000	0.002060  
1771.000000	0.002128  
1770.000000	0.002163  
1769.000000	0.002233  
1768.000000	0.002373  
1767.000000	0.002515  
1766.000000	0.002643  
1765.000000	0.002846  
1764.000000	0.003171  
1763.000000	0.003544  
1762.000000	0.003843  
1761.000000	0.004068  
1760.000000	0.004356  
1759.000000	0.004765  
1758.000000	0.005277  
1757.000000	0.005914  
1756.000000	0.006673  
1755.000000	0.007491  
1754.000000	0.008387  
1753.000000	0.009542  
1752.000000	0.011242  
1751.000000	0.013686  
1750.000000	0.016940  
1749.000000	0.021123  
1748.000000	0.026007  
1747.000000	0.030964  
1746.000000	0.035842  
1745.000000	0.041024  
1744.000000	0.046403  
1743.000000	0.050985  
1742.000000	0.053929  
1741.000000	0.055119  
1740.000000	0.054549  
1739.000000	0.052480  
1738.000000	0.049857  
1737.000000	0.047253  
1736.000000	0.044176  
1735.000000	0.039403  
1734.000000	0.033430  
1733.000000	0.028894  
1732.000000	0.026364  
1731.000000	0.024723  
1730.000000	0.023405  
1729.000000	0.022304  
1728.000000	0.021452  
1727.000000	0.020853  
1726.000000	0.020487  
1725.000000	0.020249  
1724.000000	0.020008  
1723.000000	0.019713  
1722.000000	0.019408  
1721.000000	0.019109  
1720.000000	0.018705  
1719.000000	0.018020  
1718.000000	0.016970  
1717.000000	0.015720  
1716.000000	0.014479  
1715.000000	0.013340  
1714.000000	0.012359  
1713.000000	0.011518  
1712.000000	0.010726  
1711.000000	0.009926  
1710.000000	0.009147  
1709.000000	0.008457  
1708.000000	0.007859  
1707.000000	0.007303  
1706.000000	0.006775  
1705.000000	0.006327  
1704.000000	0.005979  
1703.000000	0.005719  
1702.000000	0.005480  
1701.000000	0.005152  
1700.000000	0.004728  
1699.000000	0.004396  
1698.000000	0.004335  
1697.000000	0.004394  
1696.000000	0.004277  
1695.000000	0.003938  
1694.000000	0.003608  
1693.000000	0.003471  
1692.000000	0.003442  
1691.000000	0.003373  
1690.000000	0.003245  
1689.000000	0.003117  
1688.000000	0.003033  
1687.000000	0.003021  
1686.000000	0.003051  
1685.000000	0.003106  
1684.000000	0.003199  
1683.000000	0.003235  
1682.000000	0.003240  
1681.000000	0.003289  
1680.000000	0.003267  
1679.000000	0.003147  
1678.000000	0.003061  
1677.000000	0.003073  
1676.000000	0.003114  
1675.000000	0.003083  
1674.000000	0.002998  
1673.000000	0.002945  
1672.000000	0.002914  
1671.000000	0.002854  
1670.000000	0.002850  
1669.000000	0.002925  
1668.000000	0.002937  
1667.000000	0.002895  
1666.000000	0.002907  
1665.000000	0.002983  
1664.000000	0.003073  
1663.000000	0.003152  
1662.000000	0.003251  
1661.000000	0.003360  
1660.000000	0.003455  
1659.000000	0.003536  
1658.000000	0.003626  
1657.000000	0.003722  
1656.000000	0.003795  
1655.000000	0.003738  
1654.000000	0.003643  
1653.000000	0.003852  
1652.000000	0.003999  
1651.000000	0.003924  
1650.000000	0.003923  
1649.000000	0.003925  
1648.000000	0.003857  
1647.000000	0.003839  
1646.000000	0.003927  
1645.000000	0.003988  
1644.000000	0.003998  
1643.000000	0.004005  
1642.000000	0.004027  
1641.000000	0.004064  
1640.000000	0.004072  
1639.000000	0.004003  
1638.000000	0.003859  
1637.000000	0.003729  
1636.000000	0.003729  
1635.000000	0.003773  
1634.000000	0.003712  
1633.000000	0.003660  
1632.000000	0.003670  
1631.000000	0.003657  
1630.000000	0.003597  
1629.000000	0.003545  
1628.000000	0.003549  
1627.000000	0.003586  
1626.000000	0.003609  
1625.000000	0.003574  
1624.000000	0.003449  
1623.000000	0.003280  
1622.000000	0.003174  
1621.000000	0.003152  
1620.000000	0.003156  
1619.000000	0.003100  
1618.000000	0.002954  
1617.000000	0.002840  
1616.000000	0.002845  
1615.000000	0.002872  
1614.000000	0.002898  
1613.000000	0.002954  
1612.000000	0.003007  
1611.000000	0.003026  
1610.000000	0.003023  
1609.000000	0.003024  
1608.000000	0.003017  
1607.000000	0.002997  
1606.000000	0.003000  
1605.000000	0.003037  
1604.000000	0.003057  
1603.000000	0.003020  
1602.000000	0.002950  
1601.000000	0.002898  
1600.000000	0.002856  
1599.000000	0.002785  
1598.000000	0.002683  
1597.000000	0.002595  
1596.000000	0.002560  
1595.000000	0.002587  
1594.000000	0.002662  
1593.000000	0.002757  
1592.000000	0.002839  
1591.000000	0.002898  
1590.000000	0.002943  
1589.000000	0.002972  
1588.000000	0.002967  
1587.000000	0.002939  
1586.000000	0.002941  
1585.000000	0.002998  
1584.000000	0.003061  
1583.000000	0.003091  
1582.000000	0.003094  
1581.000000	0.003094  
1580.000000	0.003088  
1579.000000	0.003069  
1578.000000	0.003055  
1577.000000	0.003129  
1576.000000	0.003324  
1575.000000	0.003467  
1574.000000	0.003488  
1573.000000	0.003489  
1572.000000	0.003487  
1571.000000	0.003447  
1570.000000	0.003413  
1569.000000	0.003421  
1568.000000	0.003400  
1567.000000	0.003353  
1566.000000	0.003337  
1565.000000	0.003348  
1564.000000	0.003330  
1563.000000	0.003274  
1562.000000	0.003236  
1561.000000	0.003231  
1560.000000	0.003183  
1559.000000	0.003051  
1558.000000	0.002904  
1557.000000	0.002780  
1556.000000	0.002794  
1555.000000	0.002836  
1554.000000	0.002816  
1553.000000	0.002808  
1552.000000	0.002853  
1551.000000	0.002871  
1550.000000	0.002803  
1549.000000	0.002729  
1548.000000	0.002738  
1547.000000	0.002819  
1546.000000	0.002891  
1545.000000	0.002901  
1544.000000	0.002816  
1543.000000	0.002613  
1542.000000	0.002367  
1541.000000	0.002365  
1540.000000	0.002752  
1539.000000	0.003014  
1538.000000	0.002960  
1537.000000	0.002912  
1536.000000	0.002943  
1535.000000	0.002975  
1534.000000	0.003051  
1533.000000	0.003195  
1532.000000	0.003271  
1531.000000	0.003245  
1530.000000	0.003203  
1529.000000	0.003191  
1528.000000	0.003200  
1527.000000	0.003198  
1526.000000	0.003205  
1525.000000	0.003269  
1524.000000	0.003368  
1523.000000	0.003412  
1522.000000	0.003452  
1521.000000	0.003610  
1520.000000	0.003750  
1519.000000	0.003847  
1518.000000	0.004016  
1517.000000	0.004256  
1516.000000	0.004404  
1515.000000	0.004406  
1514.000000	0.004439  
1513.000000	0.004595  
1512.000000	0.004783  
1511.000000	0.004914  
1510.000000	0.005058  
1509.000000	0.005366  
1508.000000	0.005763  
1507.000000	0.005811  
1506.000000	0.005622  
1505.000000	0.005605  
1504.000000	0.005810  
1503.000000	0.006097  
1502.000000	0.006349  
1501.000000	0.006569  
1500.000000	0.006738  
1499.000000	0.006824  
1498.000000	0.006954  
1497.000000	0.007308  
1496.000000	0.007689  
1495.000000	0.007808  
1494.000000	0.007797  
1493.000000	0.007862  
1492.000000	0.008014  
1491.000000	0.008244  
1490.000000	0.008701  
1489.000000	0.009375  
1488.000000	0.009944  
1487.000000	0.010332  
1486.000000	0.010763  
1485.000000	0.011372  
1484.000000	0.012108  
1483.000000	0.012973  
1482.000000	0.014091  
1481.000000	0.015453  
1480.000000	0.016797  
1479.000000	0.018014  
1478.000000	0.019339  
1477.000000	0.021009  
1476.000000	0.022909  
1475.000000	0.025039  
1474.000000	0.028521  
1473.000000	0.034811  
1472.000000	0.042489  
1471.000000	0.048966  
1470.000000	0.054368  
1469.000000	0.059470  
1468.000000	0.064218  
1467.000000	0.068302  
1466.000000	0.071688  
1465.000000	0.074324  
1464.000000	0.075907  
1463.000000	0.076620  
1462.000000	0.077057  
1461.000000	0.077507  
1460.000000	0.077948  
1459.000000	0.078466  
1458.000000	0.079245  
1457.000000	0.079320  
1456.000000	0.077515  
1455.000000	0.074896  
1454.000000	0.072327  
1453.000000	0.069673  
1452.000000	0.066860  
1451.000000	0.064173  
1450.000000	0.061773  
1449.000000	0.059375  
1448.000000	0.056682  
1447.000000	0.053863  
1446.000000	0.051180  
1445.000000	0.048575  
1444.000000	0.045960  
1443.000000	0.043429  
1442.000000	0.041113  
1441.000000	0.039047  
1440.000000	0.037229  
1439.000000	0.035614  
1438.000000	0.033975  
1437.000000	0.032054  
1436.000000	0.030101  
1435.000000	0.028614  
1434.000000	0.027502  
1433.000000	0.026349  
1432.000000	0.024952  
1431.000000	0.023427  
1430.000000	0.021964  
1429.000000	0.020684  
1428.000000	0.019697  
1427.000000	0.019052  
1426.000000	0.018637  
1425.000000	0.018284  
1424.000000	0.017982  
1423.000000	0.017813  
1422.000000	0.017727  
1421.000000	0.017556  
1420.000000	0.017201  
1419.000000	0.016725  
1418.000000	0.016202  
1417.000000	0.015667  
1416.000000	0.015202  
1415.000000	0.014839  
1414.000000	0.014522  
1413.000000	0.014190  
1412.000000	0.013886  
1411.000000	0.013686  
1410.000000	0.013570  
1409.000000	0.013466  
1408.000000	0.013390  
1407.000000	0.013416  
1406.000000	0.013566  
1405.000000	0.013784  
1404.000000	0.014024  
1403.000000	0.014278  
1402.000000	0.014536  
1401.000000	0.014812  
1400.000000	0.015188  
1399.000000	0.015701  
1398.000000	0.016204  
1397.000000	0.016587  
1396.000000	0.016902  
1395.000000	0.017208  
1394.000000	0.017463  
1393.000000	0.017685  
1392.000000	0.018003  
1391.000000	0.018485  
1390.000000	0.019128  
1389.000000	0.020022  
1388.000000	0.021378  
1387.000000	0.023190  
1386.000000	0.025108  
1385.000000	0.026997  
1384.000000	0.029108  
1383.000000	0.031699  
1382.000000	0.034802  
1381.000000	0.038222  
1380.000000	0.041548  
1379.000000	0.044131  
1378.000000	0.045394  
1377.000000	0.045205  
1376.000000	0.043680  
1375.000000	0.040918  
1374.000000	0.037393  
1373.000000	0.034076  
1372.000000	0.031582  
1371.000000	0.029878  
1370.000000	0.028770  
1369.000000	0.028141  
1368.000000	0.027858  
1367.000000	0.027674  
1366.000000	0.027332  
1365.000000	0.026660  
1364.000000	0.025593  
1363.000000	0.024252  
1362.000000	0.022959  
1361.000000	0.021979  
1360.000000	0.021340  
1359.000000	0.020958  
1358.000000	0.020743  
1357.000000	0.020613  
1356.000000	0.020507  
1355.000000	0.020400  
1354.000000	0.020308  
1353.000000	0.020255  
1352.000000	0.020241  
1351.000000	0.020225  
1350.000000	0.020146  
1349.000000	0.019970  
1348.000000	0.019741  
1347.000000	0.019517  
1346.000000	0.019304  
1345.000000	0.019079  
1344.000000	0.018877  
1343.000000	0.018773  
1342.000000	0.018778  
1341.000000	0.018786  
1340.000000	0.018618  
1339.000000	0.018192  
1338.000000	0.017620  
1337.000000	0.017065  
1336.000000	0.016608  
1335.000000	0.016253  
1334.000000	0.015974  
1333.000000	0.015751  
1332.000000	0.015592  
1331.000000	0.015513  
1330.000000	0.015497  
1329.000000	0.015509  
1328.000000	0.015549  
1327.000000	0.015639  
1326.000000	0.015767  
1325.000000	0.015891  
1324.000000	0.016007  
1323.000000	0.016156  
1322.000000	0.016341  
1321.000000	0.016509  
1320.000000	0.016610  
1319.000000	0.016652  
1318.000000	0.016680  
1317.000000	0.016723  
1316.000000	0.016801  
1315.000000	0.016928  
1314.000000	0.017078  
1313.000000	0.017191  
1312.000000	0.017249  
1311.000000	0.017302  
1310.000000	0.017399  
1309.000000	0.017522  
1308.000000	0.017616  
1307.000000	0.017661  
1306.000000	0.017681  
1305.000000	0.017705  
1304.000000	0.017739  
1303.000000	0.017768  
1302.000000	0.017757  
1301.000000	0.017678  
1300.000000	0.017540  
1299.000000	0.017390  
1298.000000	0.017262  
1297.000000	0.017137  
1296.000000	0.016984  
1295.000000	0.016799  
1294.000000	0.016609  
1293.000000	0.016438  
1292.000000	0.016299  
1291.000000	0.016204  
1290.000000	0.016157  
1289.000000	0.016158  
1288.000000	0.016216  
1287.000000	0.016342  
1286.000000	0.016536  
1285.000000	0.016775  
1284.000000	0.017030  
1283.000000	0.017274  
1282.000000	0.017482  
1281.000000	0.017652  
1280.000000	0.017819  
1279.000000	0.018015  
1278.000000	0.018229  
1277.000000	0.018414  
1276.000000	0.018563  
1275.000000	0.018716  
1274.000000	0.018905  
1273.000000	0.019109  
1272.000000	0.019279  
1271.000000	0.019388  
1270.000000	0.019427  
1269.000000	0.019401  
1268.000000	0.019354  
1267.000000	0.019371  
1266.000000	0.019501  
1265.000000	0.019692  
1264.000000	0.019842  
1263.000000	0.019906  
1262.000000	0.019934  
1261.000000	0.019989  
1260.000000	0.020084  
1259.000000	0.020191  
1258.000000	0.020283  
1257.000000	0.020370  
1256.000000	0.020494  
1255.000000	0.020711  
1254.000000	0.021035  
1253.000000	0.021417  
1252.000000	0.021786  
1251.000000	0.022123  
1250.000000	0.022473  
1249.000000	0.022865  
1248.000000	0.023264  
1247.000000	0.023602  
1246.000000	0.023853  
1245.000000	0.024036  
1244.000000	0.024158  
1243.000000	0.024183  
1242.000000	0.024067  
1241.000000	0.023804  
1240.000000	0.023427  
1239.000000	0.022978  
1238.000000	0.022499  
1237.000000	0.022028  
1236.000000	0.021601  
1235.000000	0.021238  
1234.000000	0.020933  
1233.000000	0.020661  
1232.000000	0.020407  
1231.000000	0.020176  
1230.000000	0.019978  
1229.000000	0.019812  
1228.000000	0.019663  
1227.000000	0.019517  
1226.000000	0.019371  
1225.000000	0.019248  
1224.000000	0.019180  
1223.000000	0.019183  
1222.000000	0.019240  
1221.000000	0.019330  
1220.000000	0.019461  
1219.000000	0.019643  
1218.000000	0.019848  
1217.000000	0.020016  
1216.000000	0.020131  
1215.000000	0.020246  
1214.000000	0.020417  
1213.000000	0.020621  
1212.000000	0.020786  
1211.000000	0.020877  
1210.000000	0.020947  
1209.000000	0.021086  
1208.000000	0.021340  
1207.000000	0.021678  
1206.000000	0.022034  
1205.000000	0.022365  
1204.000000	0.022678  
1203.000000	0.023007  
1202.000000	0.023377  
1201.000000	0.023794  
1200.000000	0.024249  
1199.000000	0.024734  
1198.000000	0.025239  
1197.000000	0.025766  
1196.000000	0.026333  
1195.000000	0.026950  
1194.000000	0.027595  
1193.000000	0.028231  
1192.000000	0.028841  
1191.000000	0.029444  
1190.000000	0.030057  
1189.000000	0.030679  
1188.000000	0.031297  
1187.000000	0.031915  
1186.000000	0.032546  
1185.000000	0.033192  
1184.000000	0.033844  
1183.000000	0.034481  
1182.000000	0.035074  
1181.000000	0.035592  
1180.000000	0.036017  
1179.000000	0.036356  
1178.000000	0.036641  
1177.000000	0.036883  
1176.000000	0.037048  
1175.000000	0.037078  
1174.000000	0.036945  
1173.000000	0.036674  
1172.000000	0.036324  
1171.000000	0.035942  
1170.000000	0.035534  
1169.000000	0.035075  
1168.000000	0.034545  
1167.000000	0.033946  
1166.000000	0.033270  
1165.000000	0.032479  
1164.000000	0.031557  
1163.000000	0.030560  
1162.000000	0.029575  
1161.000000	0.028641  
1160.000000	0.027755  
1159.000000	0.026925  
1158.000000	0.026174  
1157.000000	0.025491  
1156.000000	0.024847  
1155.000000	0.024256  
1154.000000	0.023755  
1153.000000	0.023311  
1152.000000	0.022831  
1151.000000	0.022274  
1150.000000	0.021704  
1149.000000	0.021212  
1148.000000	0.020815  
1147.000000	0.020461  
1146.000000	0.020093  
1145.000000	0.019671  
1144.000000	0.019179  
1143.000000	0.018640  
1142.000000	0.018106  
1141.000000	0.017615  
1140.000000	0.017167  
1139.000000	0.016750  
1138.000000	0.016368  
1137.000000	0.016026  
1136.000000	0.015712  
1135.000000	0.015414  
1134.000000	0.015151  
1133.000000	0.014950  
1132.000000	0.014822  
1131.000000	0.014761  
1130.000000	0.014773  
1129.000000	0.014880  
1128.000000	0.015113  
1127.000000	0.015483  
1126.000000	0.015970  
1125.000000	0.016531  
1124.000000	0.017133  
1123.000000	0.017770  
1122.000000	0.018445  
1121.000000	0.019132  
1120.000000	0.019772  
1119.000000	0.020304  
1118.000000	0.020688  
1117.000000	0.020914  
1116.000000	0.020991  
1115.000000	0.020945  
1114.000000	0.020810  
1113.000000	0.020601  
1112.000000	0.020312  
1111.000000	0.019945  
1110.000000	0.019539  
1109.000000	0.019159  
1108.000000	0.018863  
1107.000000	0.018674  
1106.000000	0.018573  
1105.000000	0.018511  
1104.000000	0.018455  
1103.000000	0.018409  
1102.000000	0.018401  
1101.000000	0.018428  
1100.000000	0.018444  
1099.000000	0.018406  
1098.000000	0.018323  
1097.000000	0.018245  
1096.000000	0.018214  
1095.000000	0.018223  
1094.000000	0.018230  
1093.000000	0.018208  
1092.000000	0.018201  
1091.000000	0.018302  
1090.000000	0.018554  
1089.000000	0.018900  
1088.000000	0.019256  
1087.000000	0.019632  
1086.000000	0.020145  
1085.000000	0.020917  
1084.000000	0.021971  
1083.000000	0.023237  
1082.000000	0.024602  
1081.000000	0.025957  
1080.000000	0.027238  
1079.000000	0.028471  
1078.000000	0.029762  
1077.000000	0.031194  
1076.000000	0.032726  
1075.000000	0.034204  
1074.000000	0.035447  
1073.000000	0.036307  
1072.000000	0.036668  
1071.000000	0.036490  
1070.000000	0.035870  
1069.000000	0.035012  
1068.000000	0.034113  
1067.000000	0.033301  
1066.000000	0.032647  
1065.000000	0.032171  
1064.000000	0.031832  
1063.000000	0.031545  
1062.000000	0.031214  
1061.000000	0.030735  
1060.000000	0.030021  
1059.000000	0.029060  
1058.000000	0.027963  
1057.000000	0.026904  
1056.000000	0.026013  
1055.000000	0.025352  
1054.000000	0.024967  
1053.000000	0.024904  
1052.000000	0.025167  
1051.000000	0.025692  
1050.000000	0.026384  
1049.000000	0.027131  
1048.000000	0.027799  
1047.000000	0.028254  
1046.000000	0.028457  
1045.000000	0.028489  
1044.000000	0.028467  
1043.000000	0.028447  
1042.000000	0.028417  
1041.000000	0.028348  
1040.000000	0.028215  
1039.000000	0.028002  
1038.000000	0.027705  
1037.000000	0.027358  
1036.000000	0.027045  
1035.000000	0.026887  
1034.000000	0.027000  
1033.000000	0.027426  
1032.000000	0.028075  
1031.000000	0.028732  
1030.000000	0.029139  
1029.000000	0.029101  
1028.000000	0.028553  
1027.000000	0.027563  
1026.000000	0.026297  
1025.000000	0.024952  
1024.000000	0.023678  
1023.000000	0.022555  
1022.000000	0.021604  
1021.000000	0.020814  
1020.000000	0.020167  
1019.000000	0.019645  
1018.000000	0.019253  
1017.000000	0.019026  
1016.000000	0.019008  
1015.000000	0.019197  
1014.000000	0.019524  
1013.000000	0.019878  
1012.000000	0.020151  
1011.000000	0.020251  
1010.000000	0.020107  
1009.000000	0.019696  
1008.000000	0.019072  
1007.000000	0.018329  
1006.000000	0.017549  
1005.000000	0.016780  
1004.000000	0.016066  
1003.000000	0.015455  
1002.000000	0.014967  
1001.000000	0.014589  
1000.000000	0.014338  
999.000000	 0.014286  
998.000000	 0.014490  
997.000000	 0.014907  
996.000000	 0.015423  
995.000000	 0.015941  
994.000000	 0.016398  
993.000000	 0.016714  
992.000000	 0.016795  
991.000000	 0.016620  
990.000000	 0.016280  
989.000000	 0.015885  
988.000000	 0.015456  
987.000000	 0.014958  
986.000000	 0.014404  
985.000000	 0.013881  
984.000000	 0.013472  
983.000000	 0.013192  
982.000000	 0.013016  
981.000000	 0.012934  
980.000000	 0.012953  
979.000000	 0.013052  
978.000000	 0.013183  
977.000000	 0.013318  
976.000000	 0.013494  
975.000000	 0.013766  
974.000000	 0.014139  
973.000000	 0.014543  
972.000000	 0.014905  
971.000000	 0.015230  
970.000000	 0.015582  
969.000000	 0.015988  
968.000000	 0.016392  
967.000000	 0.016709  
966.000000	 0.016914  
965.000000	 0.017045  
964.000000	 0.017133  
963.000000	 0.017175  
962.000000	 0.017170  
961.000000	 0.017155  
960.000000	 0.017183  
959.000000	 0.017287  
958.000000	 0.017486  
957.000000	 0.017808  
956.000000	 0.018270  
955.000000	 0.018833  
954.000000	 0.019388  
953.000000	 0.019776  
952.000000	 0.019858  
951.000000	 0.019585  
950.000000	 0.019038  
949.000000	 0.018381  
948.000000	 0.017758  
947.000000	 0.017205  
946.000000	 0.016677  
945.000000	 0.016137  
944.000000	 0.015613  
943.000000	 0.015149  
942.000000	 0.014743  
941.000000	 0.014338  
940.000000	 0.013871  
939.000000	 0.013323  
938.000000	 0.012731  
937.000000	 0.012161  
936.000000	 0.011670  
935.000000	 0.011276  
934.000000	 0.010958  
933.000000	 0.010688  
932.000000	 0.010459  
931.000000	 0.010266  
930.000000	 0.010082  
929.000000	 0.009897  
928.000000	 0.009755  
927.000000	 0.009719  
926.000000	 0.009768  
925.000000	 0.009796  
924.000000	 0.009742  
923.000000	 0.009688  
922.000000	 0.009783  
921.000000	 0.010070  
920.000000	 0.010438  
919.000000	 0.010716  
918.000000	 0.010794  
917.000000	 0.010675  
916.000000	 0.010458  
915.000000	 0.010279  
914.000000	 0.010210  
913.000000	 0.010193  
912.000000	 0.010117  
911.000000	 0.009957  
910.000000	 0.009809  
909.000000	 0.009768  
908.000000	 0.009816  
907.000000	 0.009872  
906.000000	 0.009895  
905.000000	 0.009901  
904.000000	 0.009900  
903.000000	 0.009903  
902.000000	 0.009958  
901.000000	 0.010107  
900.000000	 0.010290  
899.000000	 0.010361  
898.000000	 0.010229  
897.000000	 0.009957  
896.000000	 0.009692  
895.000000	 0.009534  
894.000000	 0.009495  
893.000000	 0.009547  
892.000000	 0.009652  
891.000000	 0.009752  
890.000000	 0.009784  
889.000000	 0.009723  
888.000000	 0.009589  
887.000000	 0.009421  
886.000000	 0.009259  
885.000000	 0.009157  
884.000000	 0.009172  
883.000000	 0.009320  
882.000000	 0.009536  
881.000000	 0.009713  
880.000000	 0.009770  
879.000000	 0.009710  
878.000000	 0.009602  
877.000000	 0.009515  
876.000000	 0.009458  
875.000000	 0.009409  
874.000000	 0.009371  
873.000000	 0.009391  
872.000000	 0.009488  
871.000000	 0.009597  
870.000000	 0.009643  
869.000000	 0.009628  
868.000000	 0.009628  
867.000000	 0.009680  
866.000000	 0.009751  
865.000000	 0.009810  
864.000000	 0.009881  
863.000000	 0.009999  
862.000000	 0.010138  
861.000000	 0.010228  
860.000000	 0.010255  
859.000000	 0.010302  
858.000000	 0.010493  
857.000000	 0.010895  
856.000000	 0.011446  
855.000000	 0.012001  
854.000000	 0.012461  
853.000000	 0.012895  
852.000000	 0.013486  
851.000000	 0.014322  
850.000000	 0.015278  
849.000000	 0.016118  
848.000000	 0.016698  
847.000000	 0.017018  
846.000000	 0.017107  
845.000000	 0.016946  
844.000000	 0.016522  
843.000000	 0.015895  
842.000000	 0.015172  
841.000000	 0.014424  
840.000000	 0.013680  
839.000000	 0.012985  
838.000000	 0.012402  
837.000000	 0.011960  
836.000000	 0.011627  
835.000000	 0.011333  
834.000000	 0.011033  
833.000000	 0.010740  
832.000000	 0.010526  
831.000000	 0.010451  
830.000000	 0.010482  
829.000000	 0.010497  
828.000000	 0.010419  
827.000000	 0.010337  
826.000000	 0.010409  
825.000000	 0.010640  
824.000000	 0.010846  
823.000000	 0.010866  
822.000000	 0.010739  
821.000000	 0.010604  
820.000000	 0.010526  
819.000000	 0.010506  
818.000000	 0.010575  
817.000000	 0.010795  
816.000000	 0.011149  
815.000000	 0.011489  
814.000000	 0.011645  
813.000000	 0.011584  
812.000000	 0.011435  
811.000000	 0.011364  
810.000000	 0.011424  
809.000000	 0.011564  
808.000000	 0.011742  
807.000000	 0.011986  
806.000000	 0.012302  
805.000000	 0.012557  
804.000000	 0.012524  
803.000000	 0.012089  
802.000000	 0.011395  
801.000000	 0.010729  
800.000000	 0.010295  
799.000000	 0.010113  
798.000000	 0.010102  
797.000000	 0.010175  
796.000000	 0.010251  
795.000000	 0.010247  
794.000000	 0.010153  
793.000000	 0.010069  
792.000000	 0.010132  
791.000000	 0.010362  
790.000000	 0.010646  
789.000000	 0.010861  
788.000000	 0.010987  
787.000000	 0.011101  
786.000000	 0.011281  
785.000000	 0.011560  
784.000000	 0.011937  
783.000000	 0.012373  
782.000000	 0.012793  
781.000000	 0.013120  
780.000000	 0.013330  
779.000000	 0.013452  
778.000000	 0.013528  
777.000000	 0.013593  
776.000000	 0.013695  
775.000000	 0.013898  
774.000000	 0.014226  
773.000000	 0.014630  
772.000000	 0.015042  
771.000000	 0.015452  
770.000000	 0.015886  
769.000000	 0.016331  
768.000000	 0.016725  
767.000000	 0.017031  
766.000000	 0.017275  
765.000000	 0.017481  
764.000000	 0.017611  
763.000000	 0.017606  
762.000000	 0.017474  
761.000000	 0.017295  
760.000000	 0.017172  
759.000000	 0.017194  
758.000000	 0.017434  
757.000000	 0.017894  
756.000000	 0.018464  
755.000000	 0.018981  
754.000000	 0.019360  
753.000000	 0.019659  
752.000000	 0.020005  
751.000000	 0.020482  
750.000000	 0.021082  
749.000000	 0.021736  
748.000000	 0.022372  
747.000000	 0.023006  
746.000000	 0.023767  
745.000000	 0.024811  
744.000000	 0.026162  
743.000000	 0.027661  
742.000000	 0.029079  
741.000000	 0.030279  
740.000000	 0.031249  
739.000000	 0.032034  
738.000000	 0.032665  
737.000000	 0.033131  
736.000000	 0.033392  
735.000000	 0.033429  
734.000000	 0.033312  
733.000000	 0.033203  
732.000000	 0.033283  
731.000000	 0.033669  
730.000000	 0.034374  
729.000000	 0.035295  
728.000000	 0.036284  
727.000000	 0.037250  
726.000000	 0.038214  
725.000000	 0.039211  
724.000000	 0.040134  
723.000000	 0.040713  
722.000000	 0.040655  
721.000000	 0.039845  
720.000000	 0.038445  
719.000000	 0.036789  
718.000000	 0.035177  
717.000000	 0.033768  
716.000000	 0.032618  
715.000000	 0.031730  
714.000000	 0.031063  
713.000000	 0.030516  
712.000000	 0.029960  
711.000000	 0.029294  
710.000000	 0.028535  
709.000000	 0.027833  
708.000000	 0.027372  
707.000000	 0.027222  
706.000000	 0.027282  
705.000000	 0.027391  
704.000000	 0.027470  
703.000000	 0.027508  
702.000000	 0.027476  
701.000000	 0.027337  
700.000000	 0.027099  
699.000000	 0.026818  
698.000000	 0.026477  
697.000000	 0.025957  
696.000000	 0.025196  
695.000000	 0.024316  
694.000000	 0.023559  
693.000000	 0.023089  
692.000000	 0.022875  
691.000000	 0.022788  
690.000000	 0.022730  
689.000000	 0.022668  
688.000000	 0.022567  
687.000000	 0.022334  
686.000000	 0.021920  
685.000000	 0.021425  
684.000000	 0.021024  
683.000000	 0.020796  
682.000000	 0.020649  
681.000000	 0.020465  
680.000000	 0.020260  
679.000000	 0.020138  
678.000000	 0.020079  
677.000000	 0.019894  
676.000000	 0.019485  
675.000000	 0.019000  
674.000000	 0.018617  
673.000000	 0.018397  
672.000000	 0.018331  
671.000000	 0.018698  
670.000000	 0.019851  
669.000000	 0.021956  
668.000000	 0.023232  
667.000000	 0.021609  
666.000000	 0.018999  
665.000000	 0.017496  
664.000000	 0.016938  
663.000000	 0.016939  
662.000000	 0.017176  
661.000000	 0.017390  
660.000000	 0.017377  
659.000000	 0.017162  
658.000000	 0.016992  
657.000000	 0.017028  
656.000000	 0.017170  
655.000000	 0.017200  
654.000000	 0.017001  
653.000000	 0.016636  
652.000000	 0.016178  
651.000000	 0.015707  
650.000000	 0.015306  

