PE IR                   SPECTRUM    ASCII       PEDS        1.60        
  -1
NB432~1.ASC
17/05/24
07:51:31.00
17/05/24
07:51:31.00
Admin

650.000000
4









SPECTRUM ONE,CPU32 MAIN 00.02.6000 25-JUNE-2003 12:00:00
MIR TGS
MIR
OPTKBR
68128
0.200000

4.000000
STRONG
RATIO
SPECTRUM
MAGNITUDE
UNIVERSAL ATR
DOUBLE

COMBINED


0


#HDR
-1
-1
#GR
CM-1
A
0.00000011920928955078
0.0
4000.000000
-1.000000
3351
8
0.198255
-0.001379
#DATA
4000.000000	0.002946  
3999.000000	0.002998  
3998.000000	0.003068  
3997.000000	0.003089  
3996.000000	0.003025  
3995.000000	0.002895  
3994.000000	0.002758  
3993.000000	0.002669  
3992.000000	0.002654  
3991.000000	0.002700  
3990.000000	0.002774  
3989.000000	0.002840  
3988.000000	0.002871  
3987.000000	0.002863  
3986.000000	0.002833  
3985.000000	0.002808  
3984.000000	0.002812  
3983.000000	0.002853  
3982.000000	0.002919  
3981.000000	0.002977  
3980.000000	0.002983  
3979.000000	0.002899  
3978.000000	0.002731  
3977.000000	0.002539  
3976.000000	0.002414  
3975.000000	0.002410  
3974.000000	0.002504  
3973.000000	0.002621  
3972.000000	0.002707  
3971.000000	0.002764  
3970.000000	0.002817  
3969.000000	0.002873  
3968.000000	0.002904  
3967.000000	0.002892  
3966.000000	0.002850  
3965.000000	0.002808  
3964.000000	0.002781  
3963.000000	0.002756  
3962.000000	0.002712  
3961.000000	0.002644  
3960.000000	0.002567  
3959.000000	0.002498  
3958.000000	0.002460  
3957.000000	0.002480  
3956.000000	0.002567  
3955.000000	0.002685  
3954.000000	0.002751  
3953.000000	0.002696  
3952.000000	0.002525  
3951.000000	0.002324  
3950.000000	0.002203  
3949.000000	0.002196  
3948.000000	0.002253  
3947.000000	0.002308  
3946.000000	0.002342  
3945.000000	0.002370  
3944.000000	0.002410  
3943.000000	0.002473  
3942.000000	0.002564  
3941.000000	0.002675  
3940.000000	0.002767  
3939.000000	0.002782  
3938.000000	0.002713  
3937.000000	0.002627  
3936.000000	0.002621  
3935.000000	0.002730  
3934.000000	0.002879  
3933.000000	0.002949  
3932.000000	0.002892  
3931.000000	0.002783  
3930.000000	0.002720  
3929.000000	0.002732  
3928.000000	0.002776  
3927.000000	0.002785  
3926.000000	0.002702  
3925.000000	0.002538  
3924.000000	0.002385  
3923.000000	0.002327  
3922.000000	0.002375  
3921.000000	0.002489  
3920.000000	0.002630  
3919.000000	0.002764  
3918.000000	0.002835  
3917.000000	0.002810  
3916.000000	0.002745  
3915.000000	0.002745  
3914.000000	0.002845  
3913.000000	0.002980  
3912.000000	0.003049  
3911.000000	0.002994  
3910.000000	0.002822  
3909.000000	0.002579  
3908.000000	0.002335  
3907.000000	0.002170  
3906.000000	0.002144  
3905.000000	0.002236  
3904.000000	0.002355  
3903.000000	0.002437  
3902.000000	0.002515  
3901.000000	0.002629  
3900.000000	0.002735  
3899.000000	0.002765  
3898.000000	0.002716  
3897.000000	0.002633  
3896.000000	0.002561  
3895.000000	0.002541  
3894.000000	0.002608  
3893.000000	0.002749  
3892.000000	0.002849  
3891.000000	0.002814  
3890.000000	0.002697  
3889.000000	0.002603  
3888.000000	0.002535  
3887.000000	0.002417  
3886.000000	0.002238  
3885.000000	0.002132  
3884.000000	0.002215  
3883.000000	0.002436  
3882.000000	0.002609  
3881.000000	0.002588  
3880.000000	0.002413  
3879.000000	0.002251  
3878.000000	0.002201  
3877.000000	0.002213  
3876.000000	0.002172  
3875.000000	0.002027  
3874.000000	0.001872  
3873.000000	0.001864  
3872.000000	0.002026  
3871.000000	0.002196  
3870.000000	0.002231  
3869.000000	0.002223  
3868.000000	0.002347  
3867.000000	0.002573  
3866.000000	0.002699  
3865.000000	0.002642  
3864.000000	0.002547  
3863.000000	0.002533  
3862.000000	0.002528  
3861.000000	0.002429  
3860.000000	0.002233  
3859.000000	0.002020  
3858.000000	0.001868  
3857.000000	0.001799  
3856.000000	0.001774  
3855.000000	0.001730  
3854.000000	0.001673  
3853.000000	0.001702  
3852.000000	0.001854  
3851.000000	0.002093  
3850.000000	0.002321  
3849.000000	0.002454  
3848.000000	0.002469  
3847.000000	0.002383  
3846.000000	0.002215  
3845.000000	0.002024  
3844.000000	0.001926  
3843.000000	0.002032  
3842.000000	0.002357  
3841.000000	0.002776  
3840.000000	0.003088  
3839.000000	0.003189  
3838.000000	0.003139  
3837.000000	0.003026  
3836.000000	0.002879  
3835.000000	0.002696  
3834.000000	0.002480  
3833.000000	0.002255  
3832.000000	0.002072  
3831.000000	0.001996  
3830.000000	0.002055  
3829.000000	0.002193  
3828.000000	0.002270  
3827.000000	0.002156  
3826.000000	0.001877  
3825.000000	0.001620  
3824.000000	0.001561  
3823.000000	0.001718  
3822.000000	0.001927  
3821.000000	0.002025  
3820.000000	0.002087  
3819.000000	0.002291  
3818.000000	0.002593  
3817.000000	0.002743  
3816.000000	0.002614  
3815.000000	0.002387  
3814.000000	0.002291  
3813.000000	0.002315  
3812.000000	0.002314  
3811.000000	0.002238  
3810.000000	0.002162  
3809.000000	0.002135  
3808.000000	0.002083  
3807.000000	0.001951  
3806.000000	0.001861  
3805.000000	0.001995  
3804.000000	0.002336  
3803.000000	0.002634  
3802.000000	0.002636  
3801.000000	0.002388  
3800.000000	0.002173  
3799.000000	0.002160  
3798.000000	0.002290  
3797.000000	0.002422  
3796.000000	0.002480  
3795.000000	0.002482  
3794.000000	0.002455  
3793.000000	0.002383  
3792.000000	0.002253  
3791.000000	0.002084  
3790.000000	0.001899  
3789.000000	0.001721  
3788.000000	0.001614  
3787.000000	0.001673  
3786.000000	0.001919  
3785.000000	0.002238  
3784.000000	0.002466  
3783.000000	0.002540  
3782.000000	0.002491  
3781.000000	0.002364  
3780.000000	0.002208  
3779.000000	0.002079  
3778.000000	0.002003  
3777.000000	0.001960  
3776.000000	0.001886  
3775.000000	0.001753  
3774.000000	0.001624  
3773.000000	0.001599  
3772.000000	0.001689  
3771.000000	0.001784  
3770.000000	0.001806  
3769.000000	0.001828  
3768.000000	0.001951  
3767.000000	0.002132  
3766.000000	0.002211  
3765.000000	0.002109  
3764.000000	0.001930  
3763.000000	0.001826  
3762.000000	0.001826  
3761.000000	0.001865  
3760.000000	0.001893  
3759.000000	0.001901  
3758.000000	0.001881  
3757.000000	0.001848  
3756.000000	0.001848  
3755.000000	0.001897  
3754.000000	0.001939  
3753.000000	0.001930  
3752.000000	0.001985  
3751.000000	0.002238  
3750.000000	0.002526  
3749.000000	0.002645  
3748.000000	0.002640  
3747.000000	0.002585  
3746.000000	0.002400  
3745.000000	0.001993  
3744.000000	0.001574  
3743.000000	0.001451  
3742.000000	0.001587  
3741.000000	0.001708  
3740.000000	0.001659  
3739.000000	0.001544  
3738.000000	0.001579  
3737.000000	0.001818  
3736.000000	0.002086  
3735.000000	0.002216  
3734.000000	0.002254  
3733.000000	0.002276  
3732.000000	0.002243  
3731.000000	0.002142  
3730.000000	0.002028  
3729.000000	0.001926  
3728.000000	0.001788  
3727.000000	0.001583  
3726.000000	0.001390  
3725.000000	0.001328  
3724.000000	0.001420  
3723.000000	0.001588  
3722.000000	0.001752  
3721.000000	0.001882  
3720.000000	0.001965  
3719.000000	0.001968  
3718.000000	0.001851  
3717.000000	0.001637  
3716.000000	0.001414  
3715.000000	0.001238  
3714.000000	0.001087  
3713.000000	0.000951  
3712.000000	0.000944  
3711.000000	0.001160  
3710.000000	0.001475  
3709.000000	0.001713  
3708.000000	0.001806  
3707.000000	0.001775  
3706.000000	0.001698  
3705.000000	0.001666  
3704.000000	0.001736  
3703.000000	0.001884  
3702.000000	0.001999  
3701.000000	0.002002  
3700.000000	0.001938  
3699.000000	0.001905  
3698.000000	0.001936  
3697.000000	0.001984  
3696.000000	0.002017  
3695.000000	0.002054  
3694.000000	0.002126  
3693.000000	0.002245  
3692.000000	0.002391  
3691.000000	0.002506  
3690.000000	0.002528  
3689.000000	0.002467  
3688.000000	0.002402  
3687.000000	0.002428  
3686.000000	0.002541  
3685.000000	0.002614  
3684.000000	0.002514  
3683.000000	0.002232  
3682.000000	0.001882  
3681.000000	0.001590  
3680.000000	0.001440  
3679.000000	0.001489  
3678.000000	0.001713  
3677.000000	0.001902  
3676.000000	0.001788  
3675.000000	0.001452  
3674.000000	0.001265  
3673.000000	0.001406  
3672.000000	0.001720  
3671.000000	0.001986  
3670.000000	0.002148  
3669.000000	0.002273  
3668.000000	0.002389  
3667.000000	0.002422  
3666.000000	0.002289  
3665.000000	0.002033  
3664.000000	0.001821  
3663.000000	0.001782  
3662.000000	0.001880  
3661.000000	0.001954  
3660.000000	0.001888  
3659.000000	0.001698  
3658.000000	0.001509  
3657.000000	0.001458  
3656.000000	0.001601  
3655.000000	0.001889  
3654.000000	0.002233  
3653.000000	0.002533  
3652.000000	0.002714  
3651.000000	0.002852  
3650.000000	0.003224  
3649.000000	0.003821  
3648.000000	0.004153  
3647.000000	0.004033  
3646.000000	0.003695  
3645.000000	0.003358  
3644.000000	0.003079  
3643.000000	0.002849  
3642.000000	0.002678  
3641.000000	0.002598  
3640.000000	0.002599  
3639.000000	0.002618  
3638.000000	0.002606  
3637.000000	0.002563  
3636.000000	0.002495  
3635.000000	0.002371  
3634.000000	0.002191  
3633.000000	0.002034  
3632.000000	0.001991  
3631.000000	0.002067  
3630.000000	0.002170  
3629.000000	0.002228  
3628.000000	0.002276  
3627.000000	0.002397  
3626.000000	0.002586  
3625.000000	0.002783  
3624.000000	0.002988  
3623.000000	0.003238  
3622.000000	0.003514  
3621.000000	0.003686  
3620.000000	0.003615  
3619.000000	0.003355  
3618.000000	0.003127  
3617.000000	0.003087  
3616.000000	0.003207  
3615.000000	0.003332  
3614.000000	0.003312  
3613.000000	0.003122  
3612.000000	0.002867  
3611.000000	0.002666  
3610.000000	0.002578  
3609.000000	0.002630  
3608.000000	0.002815  
3607.000000	0.003060  
3606.000000	0.003276  
3605.000000	0.003414  
3604.000000	0.003470  
3603.000000	0.003466  
3602.000000	0.003435  
3601.000000	0.003411  
3600.000000	0.003424  
3599.000000	0.003456  
3598.000000	0.003451  
3597.000000	0.003365  
3596.000000	0.003227  
3595.000000	0.003106  
3594.000000	0.003070  
3593.000000	0.003142  
3592.000000	0.003302  
3591.000000	0.003503  
3590.000000	0.003684  
3589.000000	0.003801  
3588.000000	0.003882  
3587.000000	0.003999  
3586.000000	0.004154  
3585.000000	0.004278  
3584.000000	0.004311  
3583.000000	0.004253  
3582.000000	0.004164  
3581.000000	0.004124  
3580.000000	0.004180  
3579.000000	0.004313  
3578.000000	0.004437  
3577.000000	0.004467  
3576.000000	0.004406  
3575.000000	0.004343  
3574.000000	0.004361  
3573.000000	0.004461  
3572.000000	0.004576  
3571.000000	0.004653  
3570.000000	0.004691  
3569.000000	0.004733  
3568.000000	0.004840  
3567.000000	0.005018  
3566.000000	0.005163  
3565.000000	0.005169  
3564.000000	0.005041  
3563.000000	0.004874  
3562.000000	0.004785  
3561.000000	0.004845  
3560.000000	0.005027  
3559.000000	0.005233  
3558.000000	0.005364  
3557.000000	0.005381  
3556.000000	0.005325  
3555.000000	0.005293  
3554.000000	0.005343  
3553.000000	0.005424  
3552.000000	0.005412  
3551.000000	0.005259  
3550.000000	0.005045  
3549.000000	0.004900  
3548.000000	0.004910  
3547.000000	0.005064  
3546.000000	0.005263  
3545.000000	0.005407  
3544.000000	0.005477  
3543.000000	0.005525  
3542.000000	0.005606  
3541.000000	0.005742  
3540.000000	0.005907  
3539.000000	0.006040  
3538.000000	0.006069  
3537.000000	0.005964  
3536.000000	0.005776  
3535.000000	0.005599  
3534.000000	0.005502  
3533.000000	0.005476  
3532.000000	0.005466  
3531.000000	0.005427  
3530.000000	0.005370  
3529.000000	0.005365  
3528.000000	0.005485  
3527.000000	0.005750  
3526.000000	0.006094  
3525.000000	0.006390  
3524.000000	0.006537  
3523.000000	0.006536  
3522.000000	0.006486  
3521.000000	0.006482  
3520.000000	0.006527  
3519.000000	0.006552  
3518.000000	0.006504  
3517.000000	0.006432  
3516.000000	0.006449  
3515.000000	0.006623  
3514.000000	0.006893  
3513.000000	0.007123  
3512.000000	0.007222  
3511.000000	0.007220  
3510.000000	0.007214  
3509.000000	0.007259  
3508.000000	0.007330  
3507.000000	0.007392  
3506.000000	0.007442  
3505.000000	0.007491  
3504.000000	0.007530  
3503.000000	0.007534  
3502.000000	0.007497  
3501.000000	0.007442  
3500.000000	0.007397  
3499.000000	0.007382  
3498.000000	0.007417  
3497.000000	0.007509  
3496.000000	0.007624  
3495.000000	0.007705  
3494.000000	0.007742  
3493.000000	0.007807  
3492.000000	0.007994  
3491.000000	0.008296  
3490.000000	0.008571  
3489.000000	0.008654  
3488.000000	0.008535  
3487.000000	0.008377  
3486.000000	0.008345  
3485.000000	0.008441  
3484.000000	0.008529  
3483.000000	0.008495  
3482.000000	0.008363  
3481.000000	0.008262  
3480.000000	0.008292  
3479.000000	0.008455  
3478.000000	0.008689  
3477.000000	0.008927  
3476.000000	0.009129  
3475.000000	0.009268  
3474.000000	0.009324  
3473.000000	0.009284  
3472.000000	0.009172  
3471.000000	0.009045  
3470.000000	0.008962  
3469.000000	0.008932  
3468.000000	0.008921  
3467.000000	0.008917  
3466.000000	0.008961  
3465.000000	0.009093  
3464.000000	0.009274  
3463.000000	0.009395  
3462.000000	0.009394  
3461.000000	0.009330  
3460.000000	0.009323  
3459.000000	0.009429  
3458.000000	0.009600  
3457.000000	0.009742  
3456.000000	0.009806  
3455.000000	0.009812  
3454.000000	0.009809  
3453.000000	0.009837  
3452.000000	0.009915  
3451.000000	0.010057  
3450.000000	0.010270  
3449.000000	0.010547  
3448.000000	0.010845  
3447.000000	0.011077  
3446.000000	0.011151  
3445.000000	0.011017  
3444.000000	0.010717  
3443.000000	0.010395  
3442.000000	0.010231  
3441.000000	0.010307  
3440.000000	0.010540  
3439.000000	0.010744  
3438.000000	0.010784  
3437.000000	0.010673  
3436.000000	0.010536  
3435.000000	0.010500  
3434.000000	0.010594  
3433.000000	0.010749  
3432.000000	0.010870  
3431.000000	0.010915  
3430.000000	0.010920  
3429.000000	0.010953  
3428.000000	0.011048  
3427.000000	0.011179  
3426.000000	0.011300  
3425.000000	0.011386  
3424.000000	0.011432  
3423.000000	0.011418  
3422.000000	0.011320  
3421.000000	0.011161  
3420.000000	0.011030  
3419.000000	0.011009  
3418.000000	0.011088  
3417.000000	0.011191  
3416.000000	0.011262  
3415.000000	0.011316  
3414.000000	0.011395  
3413.000000	0.011500  
3412.000000	0.011587  
3411.000000	0.011611  
3410.000000	0.011573  
3409.000000	0.011523  
3408.000000	0.011527  
3407.000000	0.011617  
3406.000000	0.011770  
3405.000000	0.011924  
3404.000000	0.012034  
3403.000000	0.012095  
3402.000000	0.012111  
3401.000000	0.012082  
3400.000000	0.012019  
3399.000000	0.011959  
3398.000000	0.011933  
3397.000000	0.011938  
3396.000000	0.011950  
3395.000000	0.011960  
3394.000000	0.011975  
3393.000000	0.012008  
3392.000000	0.012069  
3391.000000	0.012170  
3390.000000	0.012304  
3389.000000	0.012422  
3388.000000	0.012465  
3387.000000	0.012428  
3386.000000	0.012377  
3385.000000	0.012386  
3384.000000	0.012464  
3383.000000	0.012551  
3382.000000	0.012585  
3381.000000	0.012545  
3380.000000	0.012457  
3379.000000	0.012372  
3378.000000	0.012336  
3377.000000	0.012364  
3376.000000	0.012433  
3375.000000	0.012489  
3374.000000	0.012488  
3373.000000	0.012424  
3372.000000	0.012348  
3371.000000	0.012327  
3370.000000	0.012392  
3369.000000	0.012514  
3368.000000	0.012635  
3367.000000	0.012726  
3366.000000	0.012790  
3365.000000	0.012822  
3364.000000	0.012795  
3363.000000	0.012709  
3362.000000	0.012622  
3361.000000	0.012615  
3360.000000	0.012717  
3359.000000	0.012872  
3358.000000	0.012987  
3357.000000	0.013005  
3356.000000	0.012938  
3355.000000	0.012840  
3354.000000	0.012757  
3353.000000	0.012701  
3352.000000	0.012665  
3351.000000	0.012645  
3350.000000	0.012654  
3349.000000	0.012701  
3348.000000	0.012772  
3347.000000	0.012831  
3346.000000	0.012852  
3345.000000	0.012859  
3344.000000	0.012906  
3343.000000	0.013011  
3342.000000	0.013119  
3341.000000	0.013151  
3340.000000	0.013090  
3339.000000	0.013010  
3338.000000	0.012987  
3337.000000	0.013021  
3336.000000	0.013051  
3335.000000	0.013040  
3334.000000	0.013012  
3333.000000	0.013008  
3332.000000	0.013028  
3331.000000	0.013031  
3330.000000	0.012968  
3329.000000	0.012822  
3328.000000	0.012636  
3327.000000	0.012506  
3326.000000	0.012525  
3325.000000	0.012709  
3324.000000	0.012975  
3323.000000	0.013214  
3322.000000	0.013368  
3321.000000	0.013449  
3320.000000	0.013501  
3319.000000	0.013548  
3318.000000	0.013575  
3317.000000	0.013554  
3316.000000	0.013484  
3315.000000	0.013413  
3314.000000	0.013397  
3313.000000	0.013433  
3312.000000	0.013449  
3311.000000	0.013380  
3310.000000	0.013245  
3309.000000	0.013144  
3308.000000	0.013160  
3307.000000	0.013279  
3306.000000	0.013402  
3305.000000	0.013432  
3304.000000	0.013352  
3303.000000	0.013234  
3302.000000	0.013162  
3301.000000	0.013139  
3300.000000	0.013103  
3299.000000	0.013007  
3298.000000	0.012892  
3297.000000	0.012837  
3296.000000	0.012872  
3295.000000	0.012950  
3294.000000	0.013003  
3293.000000	0.013015  
3292.000000	0.013023  
3291.000000	0.013063  
3290.000000	0.013117  
3289.000000	0.013137  
3288.000000	0.013102  
3287.000000	0.013049  
3286.000000	0.013025  
3285.000000	0.013020  
3284.000000	0.012968  
3283.000000	0.012838  
3282.000000	0.012694  
3281.000000	0.012631  
3280.000000	0.012665  
3279.000000	0.012708  
3278.000000	0.012674  
3277.000000	0.012563  
3276.000000	0.012436  
3275.000000	0.012339  
3274.000000	0.012282  
3273.000000	0.012268  
3272.000000	0.012309  
3271.000000	0.012389  
3270.000000	0.012452  
3269.000000	0.012452  
3268.000000	0.012396  
3267.000000	0.012325  
3266.000000	0.012262  
3265.000000	0.012199  
3264.000000	0.012131  
3263.000000	0.012095  
3262.000000	0.012131  
3261.000000	0.012229  
3260.000000	0.012326  
3259.000000	0.012365  
3258.000000	0.012342  
3257.000000	0.012285  
3256.000000	0.012208  
3255.000000	0.012113  
3254.000000	0.012023  
3253.000000	0.011975  
3252.000000	0.011979  
3251.000000	0.012002  
3250.000000	0.012008  
3249.000000	0.011995  
3248.000000	0.011983  
3247.000000	0.011977  
3246.000000	0.011977  
3245.000000	0.011997  
3244.000000	0.012051  
3243.000000	0.012107  
3242.000000	0.012088  
3241.000000	0.011946  
3240.000000	0.011729  
3239.000000	0.011563  
3238.000000	0.011544  
3237.000000	0.011667  
3236.000000	0.011836  
3235.000000	0.011946  
3234.000000	0.011963  
3233.000000	0.011922  
3232.000000	0.011874  
3231.000000	0.011825  
3230.000000	0.011748  
3229.000000	0.011641  
3228.000000	0.011565  
3227.000000	0.011588  
3226.000000	0.011709  
3225.000000	0.011835  
3224.000000	0.011864  
3223.000000	0.011764  
3222.000000	0.011579  
3221.000000	0.011382  
3220.000000	0.011242  
3219.000000	0.011204  
3218.000000	0.011264  
3217.000000	0.011360  
3216.000000	0.011398  
3215.000000	0.011336  
3214.000000	0.011215  
3213.000000	0.011111  
3212.000000	0.011053  
3211.000000	0.011013  
3210.000000	0.010953  
3209.000000	0.010860  
3208.000000	0.010751  
3207.000000	0.010662  
3206.000000	0.010640  
3205.000000	0.010712  
3204.000000	0.010860  
3203.000000	0.011012  
3202.000000	0.011088  
3201.000000	0.011050  
3200.000000	0.010917  
3199.000000	0.010751  
3198.000000	0.010604  
3197.000000	0.010487  
3196.000000	0.010367  
3195.000000	0.010228  
3194.000000	0.010104  
3193.000000	0.010061  
3192.000000	0.010103  
3191.000000	0.010158  
3190.000000	0.010141  
3189.000000	0.010046  
3188.000000	0.009936  
3187.000000	0.009865  
3186.000000	0.009839  
3185.000000	0.009845  
3184.000000	0.009897  
3183.000000	0.010009  
3182.000000	0.010151  
3181.000000	0.010238  
3180.000000	0.010203  
3179.000000	0.010052  
3178.000000	0.009866  
3177.000000	0.009725  
3176.000000	0.009650  
3175.000000	0.009611  
3174.000000	0.009580  
3173.000000	0.009555  
3172.000000	0.009534  
3171.000000	0.009498  
3170.000000	0.009421  
3169.000000	0.009318  
3168.000000	0.009241  
3167.000000	0.009233  
3166.000000	0.009283  
3165.000000	0.009337  
3164.000000	0.009345  
3163.000000	0.009291  
3162.000000	0.009196  
3161.000000	0.009097  
3160.000000	0.009023  
3159.000000	0.008973  
3158.000000	0.008918  
3157.000000	0.008843  
3156.000000	0.008789  
3155.000000	0.008827  
3154.000000	0.008969  
3153.000000	0.009131  
3152.000000	0.009202  
3151.000000	0.009141  
3150.000000	0.009003  
3149.000000	0.008868  
3148.000000	0.008771  
3147.000000	0.008700  
3146.000000	0.008627  
3145.000000	0.008532  
3144.000000	0.008420  
3143.000000	0.008316  
3142.000000	0.008257  
3141.000000	0.008249  
3140.000000	0.008252  
3139.000000	0.008218  
3138.000000	0.008150  
3137.000000	0.008117  
3136.000000	0.008190  
3135.000000	0.008365  
3134.000000	0.008542  
3133.000000	0.008595  
3132.000000	0.008482  
3131.000000	0.008283  
3130.000000	0.008128  
3129.000000	0.008078  
3128.000000	0.008094  
3127.000000	0.008096  
3126.000000	0.008055  
3125.000000	0.008001  
3124.000000	0.007979  
3123.000000	0.008015  
3122.000000	0.008105  
3121.000000	0.008225  
3120.000000	0.008329  
3119.000000	0.008373  
3118.000000	0.008349  
3117.000000	0.008291  
3116.000000	0.008232  
3115.000000	0.008182  
3114.000000	0.008142  
3113.000000	0.008126  
3112.000000	0.008140  
3111.000000	0.008153  
3110.000000	0.008105  
3109.000000	0.007970  
3108.000000	0.007793  
3107.000000	0.007647  
3106.000000	0.007559  
3105.000000	0.007497  
3104.000000	0.007432  
3103.000000	0.007390  
3102.000000	0.007421  
3101.000000	0.007533  
3100.000000	0.007661  
3099.000000	0.007735  
3098.000000	0.007736  
3097.000000	0.007699  
3096.000000	0.007658  
3095.000000	0.007618  
3094.000000	0.007567  
3093.000000	0.007507  
3092.000000	0.007455  
3091.000000	0.007435  
3090.000000	0.007458  
3089.000000	0.007516  
3088.000000	0.007578  
3087.000000	0.007605  
3086.000000	0.007574  
3085.000000	0.007487  
3084.000000	0.007367  
3083.000000	0.007249  
3082.000000	0.007163  
3081.000000	0.007123  
3080.000000	0.007129  
3079.000000	0.007163  
3078.000000	0.007212  
3077.000000	0.007268  
3076.000000	0.007330  
3075.000000	0.007387  
3074.000000	0.007422  
3073.000000	0.007425  
3072.000000	0.007399  
3071.000000	0.007336  
3070.000000	0.007227  
3069.000000	0.007097  
3068.000000	0.007026  
3067.000000	0.007090  
3066.000000	0.007259  
3065.000000	0.007409  
3064.000000	0.007444  
3063.000000	0.007382  
3062.000000	0.007304  
3061.000000	0.007258  
3060.000000	0.007243  
3059.000000	0.007266  
3058.000000	0.007334  
3057.000000	0.007405  
3056.000000	0.007400  
3055.000000	0.007297  
3054.000000	0.007177  
3053.000000	0.007142  
3052.000000	0.007214  
3051.000000	0.007328  
3050.000000	0.007407  
3049.000000	0.007421  
3048.000000	0.007378  
3047.000000	0.007314  
3046.000000	0.007277  
3045.000000	0.007311  
3044.000000	0.007423  
3043.000000	0.007570  
3042.000000	0.007681  
3041.000000	0.007703  
3040.000000	0.007630  
3039.000000	0.007514  
3038.000000	0.007446  
3037.000000	0.007502  
3036.000000	0.007691  
3035.000000	0.007944  
3034.000000	0.008166  
3033.000000	0.008310  
3032.000000	0.008395  
3031.000000	0.008467  
3030.000000	0.008541  
3029.000000	0.008612  
3028.000000	0.008696  
3027.000000	0.008846  
3026.000000	0.009088  
3025.000000	0.009374  
3024.000000	0.009626  
3023.000000	0.009832  
3022.000000	0.010066  
3021.000000	0.010414  
3020.000000	0.010885  
3019.000000	0.011426  
3018.000000	0.011975  
3017.000000	0.012496  
3016.000000	0.012962  
3015.000000	0.013352  
3014.000000	0.013669  
3013.000000	0.013952  
3012.000000	0.014243  
3011.000000	0.014536  
3010.000000	0.014776  
3009.000000	0.014904  
3008.000000	0.014903  
3007.000000	0.014799  
3006.000000	0.014613  
3005.000000	0.014348  
3004.000000	0.014024  
3003.000000	0.013698  
3002.000000	0.013435  
3001.000000	0.013254  
3000.000000	0.013137  
2999.000000	0.013072  
2998.000000	0.013064  
2997.000000	0.013105  
2996.000000	0.013168  
2995.000000	0.013250  
2994.000000	0.013388  
2993.000000	0.013607  
2992.000000	0.013886  
2991.000000	0.014192  
2990.000000	0.014540  
2989.000000	0.014979  
2988.000000	0.015534  
2987.000000	0.016183  
2986.000000	0.016912  
2985.000000	0.017742  
2984.000000	0.018701  
2983.000000	0.019766  
2982.000000	0.020890  
2981.000000	0.022066  
2980.000000	0.023376  
2979.000000	0.024928  
2978.000000	0.026773  
2977.000000	0.028861  
2976.000000	0.031118  
2975.000000	0.033544  
2974.000000	0.036245  
2973.000000	0.039361  
2972.000000	0.042959  
2971.000000	0.046984  
2970.000000	0.051326  
2969.000000	0.055910  
2968.000000	0.060737  
2967.000000	0.065811  
2966.000000	0.071057  
2965.000000	0.076306  
2964.000000	0.081389  
2963.000000	0.086217  
2962.000000	0.090766  
2961.000000	0.095000  
2960.000000	0.098831  
2959.000000	0.102133  
2958.000000	0.104785  
2957.000000	0.106717  
2956.000000	0.107917  
2955.000000	0.108394  
2954.000000	0.108145  
2953.000000	0.107183  
2952.000000	0.105614  
2951.000000	0.103657  
2950.000000	0.101574  
2949.000000	0.099604  
2948.000000	0.097952  
2947.000000	0.096789  
2946.000000	0.096224  
2945.000000	0.096302  
2944.000000	0.097058  
2943.000000	0.098568  
2942.000000	0.100911  
2941.000000	0.104074  
2940.000000	0.107958  
2939.000000	0.112465  
2938.000000	0.117543  
2937.000000	0.123123  
2936.000000	0.129071  
2935.000000	0.135254  
2934.000000	0.141617  
2933.000000	0.148168  
2932.000000	0.154888  
2931.000000	0.161675  
2930.000000	0.168372  
2929.000000	0.174822  
2928.000000	0.180885  
2927.000000	0.186406  
2926.000000	0.191170  
2925.000000	0.194896  
2924.000000	0.197311  
2923.000000	0.198255  
2922.000000	0.197746  
2921.000000	0.195952  
2920.000000	0.193098  
2919.000000	0.189388  
2918.000000	0.185006  
2917.000000	0.180159  
2916.000000	0.175055  
2915.000000	0.169837  
2914.000000	0.164572  
2913.000000	0.159327  
2912.000000	0.154223  
2911.000000	0.149380  
2910.000000	0.144833  
2909.000000	0.140524  
2908.000000	0.136385  
2907.000000	0.132411  
2906.000000	0.128643  
2905.000000	0.125086  
2904.000000	0.121678  
2903.000000	0.118330  
2902.000000	0.114999  
2901.000000	0.111696  
2900.000000	0.108441  
2899.000000	0.105236  
2898.000000	0.102086  
2897.000000	0.099008  
2896.000000	0.096011  
2895.000000	0.093086  
2894.000000	0.090240  
2893.000000	0.087508  
2892.000000	0.084909  
2891.000000	0.082404  
2890.000000	0.079944  
2889.000000	0.077553  
2888.000000	0.075329  
2887.000000	0.073377  
2886.000000	0.071759  
2885.000000	0.070515  
2884.000000	0.069682  
2883.000000	0.069288  
2882.000000	0.069367  
2881.000000	0.069973  
2880.000000	0.071183  
2879.000000	0.073027  
2878.000000	0.075435  
2877.000000	0.078245  
2876.000000	0.081246  
2875.000000	0.084191  
2874.000000	0.086803  
2873.000000	0.088848  
2872.000000	0.090231  
2871.000000	0.091050  
2870.000000	0.091516  
2869.000000	0.091839  
2868.000000	0.092182  
2867.000000	0.092701  
2866.000000	0.093582  
2865.000000	0.095016  
2864.000000	0.097140  
2863.000000	0.099985  
2862.000000	0.103484  
2861.000000	0.107483  
2860.000000	0.111750  
2859.000000	0.116004  
2858.000000	0.120000  
2857.000000	0.123563  
2856.000000	0.126513  
2855.000000	0.128535  
2854.000000	0.129197  
2853.000000	0.128162  
2852.000000	0.125391  
2851.000000	0.121121  
2850.000000	0.115709  
2849.000000	0.109506  
2848.000000	0.102850  
2847.000000	0.096059  
2846.000000	0.089406  
2845.000000	0.083063  
2844.000000	0.077094  
2843.000000	0.071471  
2842.000000	0.066141  
2841.000000	0.061085  
2840.000000	0.056332  
2839.000000	0.051943  
2838.000000	0.047978  
2837.000000	0.044483  
2836.000000	0.041466  
2835.000000	0.038870  
2834.000000	0.036577  
2833.000000	0.034472  
2832.000000	0.032515  
2831.000000	0.030747  
2830.000000	0.029215  
2829.000000	0.027904  
2828.000000	0.026734  
2827.000000	0.025627  
2826.000000	0.024546  
2825.000000	0.023497  
2824.000000	0.022501  
2823.000000	0.021574  
2822.000000	0.020726  
2821.000000	0.019955  
2820.000000	0.019251  
2819.000000	0.018608  
2818.000000	0.018035  
2817.000000	0.017531  
2816.000000	0.017072  
2815.000000	0.016626  
2814.000000	0.016186  
2813.000000	0.015776  
2812.000000	0.015414  
2811.000000	0.015083  
2810.000000	0.014745  
2809.000000	0.014387  
2808.000000	0.014043  
2807.000000	0.013758  
2806.000000	0.013552  
2805.000000	0.013395  
2804.000000	0.013238  
2803.000000	0.013048  
2802.000000	0.012817  
2801.000000	0.012552  
2800.000000	0.012274  
2799.000000	0.012024  
2798.000000	0.011848  
2797.000000	0.011762  
2796.000000	0.011731  
2795.000000	0.011707  
2794.000000	0.011664  
2793.000000	0.011595  
2792.000000	0.011502  
2791.000000	0.011381  
2790.000000	0.011231  
2789.000000	0.011057  
2788.000000	0.010873  
2787.000000	0.010706  
2786.000000	0.010589  
2785.000000	0.010524  
2784.000000	0.010465  
2783.000000	0.010355  
2782.000000	0.010186  
2781.000000	0.009993  
2780.000000	0.009809  
2779.000000	0.009632  
2778.000000	0.009453  
2777.000000	0.009267  
2776.000000	0.009072  
2775.000000	0.008870  
2774.000000	0.008682  
2773.000000	0.008541  
2772.000000	0.008452  
2771.000000	0.008378  
2770.000000	0.008285  
2769.000000	0.008182  
2768.000000	0.008084  
2767.000000	0.007977  
2766.000000	0.007838  
2765.000000	0.007702  
2764.000000	0.007638  
2763.000000	0.007661  
2762.000000	0.007693  
2761.000000	0.007637  
2760.000000	0.007476  
2759.000000	0.007276  
2758.000000	0.007109  
2757.000000	0.006997  
2756.000000	0.006922  
2755.000000	0.006857  
2754.000000	0.006769  
2753.000000	0.006639  
2752.000000	0.006480  
2751.000000	0.006345  
2750.000000	0.006277  
2749.000000	0.006273  
2748.000000	0.006293  
2747.000000	0.006310  
2746.000000	0.006333  
2745.000000	0.006371  
2744.000000	0.006406  
2743.000000	0.006405  
2742.000000	0.006369  
2741.000000	0.006339  
2740.000000	0.006358  
2739.000000	0.006413  
2738.000000	0.006444  
2737.000000	0.006410  
2736.000000	0.006346  
2735.000000	0.006329  
2734.000000	0.006390  
2733.000000	0.006487  
2732.000000	0.006558  
2731.000000	0.006594  
2730.000000	0.006616  
2729.000000	0.006624  
2728.000000	0.006589  
2727.000000	0.006506  
2726.000000	0.006406  
2725.000000	0.006326  
2724.000000	0.006280  
2723.000000	0.006269  
2722.000000	0.006285  
2721.000000	0.006301  
2720.000000	0.006281  
2719.000000	0.006225  
2718.000000	0.006173  
2717.000000	0.006143  
2716.000000	0.006096  
2715.000000	0.005988  
2714.000000	0.005836  
2713.000000	0.005707  
2712.000000	0.005645  
2711.000000	0.005636  
2710.000000	0.005637  
2709.000000	0.005614  
2708.000000	0.005556  
2707.000000	0.005475  
2706.000000	0.005394  
2705.000000	0.005327  
2704.000000	0.005270  
2703.000000	0.005218  
2702.000000	0.005189  
2701.000000	0.005192  
2700.000000	0.005208  
2699.000000	0.005195  
2698.000000	0.005145  
2697.000000	0.005088  
2696.000000	0.005064  
2695.000000	0.005088  
2694.000000	0.005153  
2693.000000	0.005232  
2692.000000	0.005285  
2691.000000	0.005277  
2690.000000	0.005214  
2689.000000	0.005130  
2688.000000	0.005059  
2687.000000	0.005003  
2686.000000	0.004959  
2685.000000	0.004939  
2684.000000	0.004963  
2683.000000	0.005028  
2682.000000	0.005099  
2681.000000	0.005138  
2680.000000	0.005129  
2679.000000	0.005095  
2678.000000	0.005082  
2677.000000	0.005119  
2676.000000	0.005192  
2675.000000	0.005255  
2674.000000	0.005275  
2673.000000	0.005256  
2672.000000	0.005220  
2671.000000	0.005190  
2670.000000	0.005174  
2669.000000	0.005169  
2668.000000	0.005165  
2667.000000	0.005145  
2666.000000	0.005095  
2665.000000	0.005018  
2664.000000	0.004936  
2663.000000	0.004869  
2662.000000	0.004823  
2661.000000	0.004775  
2660.000000	0.004703  
2659.000000	0.004622  
2658.000000	0.004578  
2657.000000	0.004604  
2656.000000	0.004664  
2655.000000	0.004676  
2654.000000	0.004581  
2653.000000	0.004395  
2652.000000	0.004192  
2651.000000	0.004043  
2650.000000	0.003969  
2649.000000	0.003939  
2648.000000	0.003910  
2647.000000	0.003871  
2646.000000	0.003845  
2645.000000	0.003859  
2644.000000	0.003905  
2643.000000	0.003962  
2642.000000	0.004018  
2641.000000	0.004070  
2640.000000	0.004094  
2639.000000	0.004050  
2638.000000	0.003930  
2637.000000	0.003781  
2636.000000	0.003668  
2635.000000	0.003618  
2634.000000	0.003612  
2633.000000	0.003615  
2632.000000	0.003604  
2631.000000	0.003574  
2630.000000	0.003528  
2629.000000	0.003475  
2628.000000	0.003430  
2627.000000	0.003402  
2626.000000	0.003390  
2625.000000	0.003391  
2624.000000	0.003408  
2623.000000	0.003448  
2622.000000	0.003504  
2621.000000	0.003551  
2620.000000	0.003559  
2619.000000	0.003521  
2618.000000	0.003448  
2617.000000	0.003353  
2616.000000	0.003252  
2615.000000	0.003178  
2614.000000	0.003168  
2613.000000	0.003217  
2612.000000	0.003265  
2611.000000	0.003247  
2610.000000	0.003172  
2609.000000	0.003123  
2608.000000	0.003166  
2607.000000	0.003291  
2606.000000	0.003424  
2605.000000	0.003494  
2604.000000	0.003463  
2603.000000	0.003322  
2602.000000	0.003090  
2601.000000	0.002830  
2600.000000	0.002632  
2599.000000	0.002549  
2598.000000	0.002554  
2597.000000	0.002574  
2596.000000	0.002576  
2595.000000	0.002579  
2594.000000	0.002607  
2593.000000	0.002631  
2592.000000	0.002615  
2591.000000	0.002582  
2590.000000	0.002607  
2589.000000	0.002724  
2588.000000	0.002885  
2587.000000	0.003011  
2586.000000	0.003071  
2585.000000	0.003090  
2584.000000	0.003099  
2583.000000	0.003089  
2582.000000	0.003024  
2581.000000	0.002879  
2580.000000	0.002682  
2579.000000	0.002499  
2578.000000	0.002386  
2577.000000	0.002351  
2576.000000	0.002358  
2575.000000	0.002376  
2574.000000	0.002395  
2573.000000	0.002412  
2572.000000	0.002413  
2571.000000	0.002389  
2570.000000	0.002345  
2569.000000	0.002304  
2568.000000	0.002301  
2567.000000	0.002339  
2566.000000	0.002358  
2565.000000	0.002263  
2564.000000	0.002034  
2563.000000	0.001774  
2562.000000	0.001616  
2561.000000	0.001588  
2560.000000	0.001633  
2559.000000	0.001721  
2558.000000	0.001883  
2557.000000	0.002107  
2556.000000	0.002287  
2555.000000	0.002323  
2554.000000	0.002218  
2553.000000	0.002058  
2552.000000	0.001935  
2551.000000	0.001908  
2550.000000	0.001969  
2549.000000	0.002026  
2548.000000	0.001976  
2547.000000	0.001825  
2546.000000	0.001714  
2545.000000	0.001747  
2544.000000	0.001867  
2543.000000	0.001945  
2542.000000	0.001939  
2541.000000	0.001899  
2540.000000	0.001856  
2539.000000	0.001781  
2538.000000	0.001662  
2537.000000	0.001528  
2536.000000	0.001409  
2535.000000	0.001318  
2534.000000	0.001277  
2533.000000	0.001305  
2532.000000	0.001370  
2531.000000	0.001427  
2530.000000	0.001485  
2529.000000	0.001603  
2528.000000	0.001784  
2527.000000	0.001936  
2526.000000	0.001960  
2525.000000	0.001834  
2524.000000	0.001609  
2523.000000	0.001358  
2522.000000	0.001152  
2521.000000	0.001051  
2520.000000	0.001058  
2519.000000	0.001111  
2518.000000	0.001144  
2517.000000	0.001145  
2516.000000	0.001157  
2515.000000	0.001224  
2514.000000	0.001351  
2513.000000	0.001502  
2512.000000	0.001620  
2511.000000	0.001658  
2510.000000	0.001615  
2509.000000	0.001544  
2508.000000	0.001514  
2507.000000	0.001549  
2506.000000	0.001596  
2505.000000	0.001583  
2504.000000	0.001491  
2503.000000	0.001380  
2502.000000	0.001335  
2501.000000	0.001384  
2500.000000	0.001495  
2499.000000	0.001608  
2498.000000	0.001672  
2497.000000	0.001660  
2496.000000	0.001607  
2495.000000	0.001597  
2494.000000	0.001665  
2493.000000	0.001725  
2492.000000	0.001650  
2491.000000	0.001442  
2490.000000	0.001258  
2489.000000	0.001234  
2488.000000	0.001350  
2487.000000	0.001482  
2486.000000	0.001527  
2485.000000	0.001447  
2484.000000	0.001261  
2483.000000	0.001049  
2482.000000	0.000924  
2481.000000	0.000932  
2480.000000	0.001005  
2479.000000	0.001050  
2478.000000	0.001062  
2477.000000	0.001089  
2476.000000	0.001135  
2475.000000	0.001150  
2474.000000	0.001101  
2473.000000	0.001003  
2472.000000	0.000891  
2471.000000	0.000801  
2470.000000	0.000772  
2469.000000	0.000819  
2468.000000	0.000899  
2467.000000	0.000948  
2466.000000	0.000932  
2465.000000	0.000856  
2464.000000	0.000744  
2463.000000	0.000646  
2462.000000	0.000615  
2461.000000	0.000642  
2460.000000	0.000650  
2459.000000	0.000597  
2458.000000	0.000543  
2457.000000	0.000560  
2456.000000	0.000628  
2455.000000	0.000679  
2454.000000	0.000710  
2453.000000	0.000773  
2452.000000	0.000863  
2451.000000	0.000921  
2450.000000	0.000930  
2449.000000	0.000936  
2448.000000	0.000950  
2447.000000	0.000913  
2446.000000	0.000787  
2445.000000	0.000639  
2444.000000	0.000584  
2443.000000	0.000673  
2442.000000	0.000842  
2441.000000	0.000948  
2440.000000	0.000885  
2439.000000	0.000690  
2438.000000	0.000522  
2437.000000	0.000507  
2436.000000	0.000613  
2435.000000	0.000707  
2434.000000	0.000712  
2433.000000	0.000654  
2432.000000	0.000596  
2431.000000	0.000596  
2430.000000	0.000693  
2429.000000	0.000850  
2428.000000	0.000932  
2427.000000	0.000825  
2426.000000	0.000599  
2425.000000	0.000460  
2424.000000	0.000515  
2423.000000	0.000680  
2422.000000	0.000835  
2421.000000	0.000958  
2420.000000	0.001081  
2419.000000	0.001182  
2418.000000	0.001222  
2417.000000	0.001228  
2416.000000	0.001260  
2415.000000	0.001316  
2414.000000	0.001334  
2413.000000	0.001276  
2412.000000	0.001159  
2411.000000	0.001003  
2410.000000	0.000815  
2409.000000	0.000628  
2408.000000	0.000503  
2407.000000	0.000467  
2406.000000	0.000464  
2405.000000	0.000417  
2404.000000	0.000328  
2403.000000	0.000291  
2402.000000	0.000400  
2401.000000	0.000628  
2400.000000	0.000849  
2399.000000	0.000963  
2398.000000	0.000983  
2397.000000	0.000985  
2396.000000	0.001001  
2395.000000	0.001001  
2394.000000	0.000954  
2393.000000	0.000877  
2392.000000	0.000822  
2391.000000	0.000818  
2390.000000	0.000837  
2389.000000	0.000794  
2388.000000	0.000617  
2387.000000	0.000340  
2386.000000	0.000103  
2385.000000	0.000038  
2384.000000	0.000170  
2383.000000	0.000443  
2382.000000	0.000809  
2381.000000	0.001230  
2380.000000	0.001609  
2379.000000	0.001812  
2378.000000	0.001768  
2377.000000	0.001508  
2376.000000	0.001100  
2375.000000	0.000633  
2374.000000	0.000291  
2373.000000	0.000290  
2372.000000	0.000635  
2371.000000	0.001060  
2370.000000	0.001327  
2369.000000	0.001465  
2368.000000	0.001600  
2367.000000	0.001722  
2366.000000	0.001745  
2365.000000	0.001620  
2364.000000	0.001234  
2363.000000	0.000500  
2362.000000	-0.000331 
2361.000000	-0.000697 
2360.000000	-0.000341 
2359.000000	0.000342  
2358.000000	0.000887  
2357.000000	0.001234  
2356.000000	0.001528  
2355.000000	0.001807  
2354.000000	0.002020  
2353.000000	0.002092  
2352.000000	0.001885  
2351.000000	0.001422  
2350.000000	0.000997  
2349.000000	0.000924  
2348.000000	0.001237  
2347.000000	0.001571  
2346.000000	0.001510  
2345.000000	0.001079  
2344.000000	0.000692  
2343.000000	0.000587  
2342.000000	0.000642  
2341.000000	0.000738  
2340.000000	0.000863  
2339.000000	0.001029  
2338.000000	0.001188  
2337.000000	0.001270  
2336.000000	0.001219  
2335.000000	0.001080  
2334.000000	0.000959  
2333.000000	0.000930  
2332.000000	0.000922  
2331.000000	0.000861  
2330.000000	0.000781  
2329.000000	0.000743  
2328.000000	0.000753  
2327.000000	0.000745  
2326.000000	0.000727  
2325.000000	0.000715  
2324.000000	0.000694  
2323.000000	0.000636  
2322.000000	0.000558  
2321.000000	0.000534  
2320.000000	0.000553  
2319.000000	0.000546  
2318.000000	0.000453  
2317.000000	0.000336  
2316.000000	0.000305  
2315.000000	0.000424  
2314.000000	0.000637  
2313.000000	0.000805  
2312.000000	0.000818  
2311.000000	0.000687  
2310.000000	0.000502  
2309.000000	0.000312  
2308.000000	0.000105  
2307.000000	-0.000096 
2306.000000	-0.000200 
2305.000000	-0.000155 
2304.000000	-0.000035 
2303.000000	0.000036  
2302.000000	0.000028  
2301.000000	0.000004  
2300.000000	0.000001  
2299.000000	-0.000026 
2298.000000	-0.000139 
2297.000000	-0.000327 
2296.000000	-0.000508 
2295.000000	-0.000581 
2294.000000	-0.000488 
2293.000000	-0.000274 
2292.000000	-0.000071 
2291.000000	0.000027  
2290.000000	0.000059  
2289.000000	0.000123  
2288.000000	0.000232  
2287.000000	0.000303  
2286.000000	0.000281  
2285.000000	0.000186  
2284.000000	0.000043  
2283.000000	-0.000141 
2282.000000	-0.000307 
2281.000000	-0.000351 
2280.000000	-0.000257 
2279.000000	-0.000156 
2278.000000	-0.000166 
2277.000000	-0.000245 
2276.000000	-0.000259 
2275.000000	-0.000161 
2274.000000	-0.000030 
2273.000000	0.000040  
2272.000000	0.000019  
2271.000000	-0.000055 
2270.000000	-0.000105 
2269.000000	-0.000072 
2268.000000	0.000025  
2267.000000	0.000109  
2266.000000	0.000136  
2265.000000	0.000144  
2264.000000	0.000153  
2263.000000	0.000100  
2262.000000	-0.000065 
2261.000000	-0.000270 
2260.000000	-0.000369 
2259.000000	-0.000312 
2258.000000	-0.000201 
2257.000000	-0.000167 
2256.000000	-0.000243 
2255.000000	-0.000347 
2254.000000	-0.000370 
2253.000000	-0.000256 
2252.000000	-0.000051 
2251.000000	0.000132  
2250.000000	0.000191  
2249.000000	0.000110  
2248.000000	-0.000016 
2247.000000	-0.000042 
2246.000000	0.000107  
2245.000000	0.000358  
2244.000000	0.000530  
2243.000000	0.000504  
2242.000000	0.000318  
2241.000000	0.000097  
2240.000000	-0.000066 
2239.000000	-0.000151 
2238.000000	-0.000168 
2237.000000	-0.000158 
2236.000000	-0.000196 
2235.000000	-0.000313 
2234.000000	-0.000430 
2233.000000	-0.000434 
2232.000000	-0.000301 
2231.000000	-0.000093 
2230.000000	0.000121  
2229.000000	0.000262  
2228.000000	0.000206  
2227.000000	-0.000088 
2226.000000	-0.000445 
2225.000000	-0.000584 
2224.000000	-0.000419 
2223.000000	-0.000123 
2222.000000	0.000097  
2221.000000	0.000176  
2220.000000	0.000122  
2219.000000	-0.000061 
2218.000000	-0.000314 
2217.000000	-0.000494 
2216.000000	-0.000495 
2215.000000	-0.000331 
2214.000000	-0.000068 
2213.000000	0.000230  
2212.000000	0.000447  
2211.000000	0.000458  
2210.000000	0.000292  
2209.000000	0.000168  
2208.000000	0.000265  
2207.000000	0.000534  
2206.000000	0.000809  
2205.000000	0.001005  
2204.000000	0.001124  
2203.000000	0.001141  
2202.000000	0.001005  
2201.000000	0.000708  
2200.000000	0.000280  
2199.000000	-0.000229 
2198.000000	-0.000703 
2197.000000	-0.000939 
2196.000000	-0.000813 
2195.000000	-0.000422 
2194.000000	0.000010  
2193.000000	0.000328  
2192.000000	0.000501  
2191.000000	0.000549  
2190.000000	0.000500  
2189.000000	0.000389  
2188.000000	0.000219  
2187.000000	-0.000046 
2186.000000	-0.000383 
2185.000000	-0.000639 
2184.000000	-0.000680 
2183.000000	-0.000564 
2182.000000	-0.000469 
2181.000000	-0.000452 
2180.000000	-0.000380 
2179.000000	-0.000120 
2178.000000	0.000273  
2177.000000	0.000597  
2176.000000	0.000699  
2175.000000	0.000614  
2174.000000	0.000484  
2173.000000	0.000381  
2172.000000	0.000240  
2171.000000	-0.000028 
2170.000000	-0.000381 
2169.000000	-0.000651 
2168.000000	-0.000717 
2167.000000	-0.000594 
2166.000000	-0.000362 
2165.000000	-0.000080 
2164.000000	0.000196  
2163.000000	0.000378  
2162.000000	0.000391  
2161.000000	0.000252  
2160.000000	0.000063  
2159.000000	-0.000088 
2158.000000	-0.000210 
2157.000000	-0.000385 
2156.000000	-0.000654 
2155.000000	-0.000909 
2154.000000	-0.000950 
2153.000000	-0.000685 
2152.000000	-0.000253 
2151.000000	0.000082  
2150.000000	0.000144  
2149.000000	-0.000070 
2148.000000	-0.000414 
2147.000000	-0.000662 
2146.000000	-0.000629 
2145.000000	-0.000323 
2144.000000	0.000036  
2143.000000	0.000228  
2142.000000	0.000231  
2141.000000	0.000180  
2140.000000	0.000187  
2139.000000	0.000250  
2138.000000	0.000310  
2137.000000	0.000293  
2136.000000	0.000144  
2135.000000	-0.000107 
2134.000000	-0.000324 
2133.000000	-0.000404 
2132.000000	-0.000395 
2131.000000	-0.000410 
2130.000000	-0.000469 
2129.000000	-0.000513 
2128.000000	-0.000515 
2127.000000	-0.000497 
2126.000000	-0.000441 
2125.000000	-0.000310 
2124.000000	-0.000144 
2123.000000	-0.000026 
2122.000000	0.000036  
2121.000000	0.000110  
2120.000000	0.000196  
2119.000000	0.000204  
2118.000000	0.000106  
2117.000000	0.000004  
2116.000000	0.000000  
2115.000000	0.000081  
2114.000000	0.000182  
2113.000000	0.000272  
2112.000000	0.000322  
2111.000000	0.000260  
2110.000000	0.000051  
2109.000000	-0.000220 
2108.000000	-0.000420 
2107.000000	-0.000478 
2106.000000	-0.000412 
2105.000000	-0.000273 
2104.000000	-0.000129 
2103.000000	-0.000053 
2102.000000	-0.000065 
2101.000000	-0.000114 
2100.000000	-0.000158 
2099.000000	-0.000239 
2098.000000	-0.000409 
2097.000000	-0.000619 
2096.000000	-0.000735 
2095.000000	-0.000654 
2094.000000	-0.000375 
2093.000000	0.000010  
2092.000000	0.000370  
2091.000000	0.000582  
2090.000000	0.000607  
2089.000000	0.000528  
2088.000000	0.000468  
2087.000000	0.000476  
2086.000000	0.000507  
2085.000000	0.000497  
2084.000000	0.000428  
2083.000000	0.000316  
2082.000000	0.000166  
2081.000000	-0.000042 
2080.000000	-0.000305 
2079.000000	-0.000523 
2078.000000	-0.000545 
2077.000000	-0.000316 
2076.000000	0.000017  
2075.000000	0.000224  
2074.000000	0.000202  
2073.000000	0.000052  
2072.000000	-0.000062 
2071.000000	-0.000080 
2070.000000	-0.000058 
2069.000000	-0.000085 
2068.000000	-0.000201 
2067.000000	-0.000355 
2066.000000	-0.000441 
2065.000000	-0.000382 
2064.000000	-0.000196 
2063.000000	0.000059  
2062.000000	0.000359  
2061.000000	0.000649  
2060.000000	0.000788  
2059.000000	0.000655  
2058.000000	0.000312  
2057.000000	-0.000013 
2056.000000	-0.000137 
2055.000000	-0.000063 
2054.000000	0.000081  
2053.000000	0.000156  
2052.000000	0.000068  
2051.000000	-0.000175 
2050.000000	-0.000433 
2049.000000	-0.000543 
2048.000000	-0.000481 
2047.000000	-0.000349 
2046.000000	-0.000205 
2045.000000	-0.000045 
2044.000000	0.000070  
2043.000000	0.000056  
2042.000000	-0.000013 
2041.000000	0.000049  
2040.000000	0.000253  
2039.000000	0.000347  
2038.000000	0.000161  
2037.000000	-0.000168 
2036.000000	-0.000389 
2035.000000	-0.000428 
2034.000000	-0.000365 
2033.000000	-0.000240 
2032.000000	-0.000046 
2031.000000	0.000159  
2030.000000	0.000267  
2029.000000	0.000213  
2028.000000	0.000015  
2027.000000	-0.000221 
2026.000000	-0.000286 
2025.000000	0.000016  
2024.000000	0.000627  
2023.000000	0.001210  
2022.000000	0.001459  
2021.000000	0.001351  
2020.000000	0.001038  
2019.000000	0.000608  
2018.000000	0.000063  
2017.000000	-0.000516 
2016.000000	-0.000932 
2015.000000	-0.001020 
2014.000000	-0.000775 
2013.000000	-0.000383 
2012.000000	-0.000149 
2011.000000	-0.000261 
2010.000000	-0.000586 
2009.000000	-0.000788 
2008.000000	-0.000699 
2007.000000	-0.000463 
2006.000000	-0.000275 
2005.000000	-0.000151 
2004.000000	-0.000065 
2003.000000	-0.000107 
2002.000000	-0.000368 
2001.000000	-0.000727 
2000.000000	-0.000908 
1999.000000	-0.000752 
1998.000000	-0.000356 
1997.000000	0.000037  
1996.000000	0.000224  
1995.000000	0.000139  
1994.000000	-0.000107 
1993.000000	-0.000269 
1992.000000	-0.000157 
1991.000000	0.000147  
1990.000000	0.000388  
1989.000000	0.000413  
1988.000000	0.000281  
1987.000000	0.000110  
1986.000000	-0.000071 
1985.000000	-0.000281 
1984.000000	-0.000426 
1983.000000	-0.000320 
1982.000000	0.000057  
1981.000000	0.000411  
1980.000000	0.000378  
1979.000000	-0.000057 
1978.000000	-0.000540 
1977.000000	-0.000817 
1976.000000	-0.001002 
1975.000000	-0.001244 
1974.000000	-0.001379 
1973.000000	-0.001167 
1972.000000	-0.000707 
1971.000000	-0.000315 
1970.000000	-0.000096 
1969.000000	0.000115  
1968.000000	0.000392  
1967.000000	0.000550  
1966.000000	0.000456  
1965.000000	0.000255  
1964.000000	0.000143  
1963.000000	0.000137  
1962.000000	0.000160  
1961.000000	0.000178  
1960.000000	0.000171  
1959.000000	0.000106  
1958.000000	0.000002  
1957.000000	-0.000050 
1956.000000	-0.000029 
1955.000000	-0.000032 
1954.000000	-0.000128 
1953.000000	-0.000232 
1952.000000	-0.000237 
1951.000000	-0.000190 
1950.000000	-0.000224 
1949.000000	-0.000350 
1948.000000	-0.000421 
1947.000000	-0.000309 
1946.000000	-0.000054 
1945.000000	0.000192  
1944.000000	0.000322  
1943.000000	0.000344  
1942.000000	0.000301  
1941.000000	0.000200  
1940.000000	0.000058  
1939.000000	-0.000030 
1938.000000	0.000040  
1937.000000	0.000233  
1936.000000	0.000338  
1935.000000	0.000200  
1934.000000	-0.000065 
1933.000000	-0.000191 
1932.000000	-0.000058 
1931.000000	0.000200  
1930.000000	0.000402  
1929.000000	0.000479  
1928.000000	0.000466  
1927.000000	0.000402  
1926.000000	0.000305  
1925.000000	0.000188  
1924.000000	0.000064  
1923.000000	-0.000026 
1922.000000	-0.000038 
1921.000000	0.000018  
1920.000000	0.000068  
1919.000000	0.000069  
1918.000000	0.000094  
1917.000000	0.000225  
1916.000000	0.000379  
1915.000000	0.000391  
1914.000000	0.000203  
1913.000000	-0.000069 
1912.000000	-0.000249 
1911.000000	-0.000233 
1910.000000	-0.000030 
1909.000000	0.000249  
1908.000000	0.000454  
1907.000000	0.000487  
1906.000000	0.000355  
1905.000000	0.000148  
1904.000000	-0.000040 
1903.000000	-0.000140 
1902.000000	-0.000112 
1901.000000	0.000006  
1900.000000	0.000114  
1899.000000	0.000127  
1898.000000	0.000049  
1897.000000	-0.000046 
1896.000000	-0.000107 
1895.000000	-0.000100 
1894.000000	0.000005  
1893.000000	0.000193  
1892.000000	0.000363  
1891.000000	0.000402  
1890.000000	0.000304  
1889.000000	0.000181  
1888.000000	0.000109  
1887.000000	0.000087  
1886.000000	0.000110  
1885.000000	0.000166  
1884.000000	0.000197  
1883.000000	0.000150  
1882.000000	0.000075  
1881.000000	0.000066  
1880.000000	0.000130  
1879.000000	0.000183  
1878.000000	0.000188  
1877.000000	0.000197  
1876.000000	0.000245  
1875.000000	0.000302  
1874.000000	0.000361  
1873.000000	0.000453  
1872.000000	0.000550  
1871.000000	0.000534  
1870.000000	0.000327  
1869.000000	0.000055  
1868.000000	-0.000081 
1867.000000	-0.000073 
1866.000000	-0.000011 
1865.000000	0.000051  
1864.000000	0.000078  
1863.000000	0.000054  
1862.000000	0.000028  
1861.000000	0.000070  
1860.000000	0.000152  
1859.000000	0.000151  
1858.000000	0.000018  
1857.000000	-0.000133 
1856.000000	-0.000179 
1855.000000	-0.000107 
1854.000000	0.000032  
1853.000000	0.000208  
1852.000000	0.000378  
1851.000000	0.000466  
1850.000000	0.000419  
1849.000000	0.000295  
1848.000000	0.000210  
1847.000000	0.000183  
1846.000000	0.000123  
1845.000000	-0.000020 
1844.000000	-0.000157 
1843.000000	-0.000179 
1842.000000	-0.000075 
1841.000000	0.000093  
1840.000000	0.000240  
1839.000000	0.000301  
1838.000000	0.000273  
1837.000000	0.000212  
1836.000000	0.000158  
1835.000000	0.000110  
1834.000000	0.000071  
1833.000000	0.000051  
1832.000000	0.000049  
1831.000000	0.000037  
1830.000000	0.000006  
1829.000000	-0.000031 
1828.000000	-0.000074 
1827.000000	-0.000120 
1826.000000	-0.000141 
1825.000000	-0.000099 
1824.000000	-0.000032 
1823.000000	-0.000018 
1822.000000	-0.000056 
1821.000000	-0.000072 
1820.000000	-0.000027 
1819.000000	0.000043  
1818.000000	0.000109  
1817.000000	0.000201  
1816.000000	0.000322  
1815.000000	0.000413  
1814.000000	0.000432  
1813.000000	0.000398  
1812.000000	0.000342  
1811.000000	0.000244  
1810.000000	0.000111  
1809.000000	0.000013  
1808.000000	-0.000012 
1807.000000	-0.000002 
1806.000000	0.000014  
1805.000000	0.000067  
1804.000000	0.000181  
1803.000000	0.000333  
1802.000000	0.000475  
1801.000000	0.000575  
1800.000000	0.000605  
1799.000000	0.000544  
1798.000000	0.000460  
1797.000000	0.000482  
1796.000000	0.000652  
1795.000000	0.000865  
1794.000000	0.000977  
1793.000000	0.000962  
1792.000000	0.000906  
1791.000000	0.000855  
1790.000000	0.000832  
1789.000000	0.000869  
1788.000000	0.000939  
1787.000000	0.000987  
1786.000000	0.001020  
1785.000000	0.001108  
1784.000000	0.001268  
1783.000000	0.001420  
1782.000000	0.001480  
1781.000000	0.001476  
1780.000000	0.001506  
1779.000000	0.001580  
1778.000000	0.001652  
1777.000000	0.001720  
1776.000000	0.001800  
1775.000000	0.001867  
1774.000000	0.001855  
1773.000000	0.001815  
1772.000000	0.001879  
1771.000000	0.001970  
1770.000000	0.001991  
1769.000000	0.002055  
1768.000000	0.002248  
1767.000000	0.002500  
1766.000000	0.002722  
1765.000000	0.002949  
1764.000000	0.003248  
1763.000000	0.003610  
1762.000000	0.003951  
1761.000000	0.004260  
1760.000000	0.004629  
1759.000000	0.005102  
1758.000000	0.005690  
1757.000000	0.006440  
1756.000000	0.007319  
1755.000000	0.008190  
1754.000000	0.009051  
1753.000000	0.010168  
1752.000000	0.011988  
1751.000000	0.014820  
1750.000000	0.018741  
1749.000000	0.023843  
1748.000000	0.029802  
1747.000000	0.035845  
1746.000000	0.041797  
1745.000000	0.048168  
1744.000000	0.054847  
1743.000000	0.060593  
1742.000000	0.064325  
1741.000000	0.065859  
1740.000000	0.065117  
1739.000000	0.062401  
1738.000000	0.058963  
1737.000000	0.055493  
1736.000000	0.051297  
1735.000000	0.044698  
1734.000000	0.036486  
1733.000000	0.030376  
1732.000000	0.026988  
1731.000000	0.024565  
1730.000000	0.022387  
1729.000000	0.020428  
1728.000000	0.018819  
1727.000000	0.017519  
1726.000000	0.016454  
1725.000000	0.015527  
1724.000000	0.014657  
1723.000000	0.013858  
1722.000000	0.013224  
1721.000000	0.012714  
1720.000000	0.012112  
1719.000000	0.011139  
1718.000000	0.009891  
1717.000000	0.008927  
1716.000000	0.008370  
1715.000000	0.007925  
1714.000000	0.007501  
1713.000000	0.007096  
1712.000000	0.006671  
1711.000000	0.006215  
1710.000000	0.005789  
1709.000000	0.005460  
1708.000000	0.005211  
1707.000000	0.004964  
1706.000000	0.004719  
1705.000000	0.004556  
1704.000000	0.004481  
1703.000000	0.004466  
1702.000000	0.004458  
1701.000000	0.004347  
1700.000000	0.004073  
1699.000000	0.003795  
1698.000000	0.003698  
1697.000000	0.003717  
1696.000000	0.003674  
1695.000000	0.003542  
1694.000000	0.003523  
1693.000000	0.003662  
1692.000000	0.003771  
1691.000000	0.003724  
1690.000000	0.003581  
1689.000000	0.003489  
1688.000000	0.003497  
1687.000000	0.003590  
1686.000000	0.003710  
1685.000000	0.003862  
1684.000000	0.003975  
1683.000000	0.003920  
1682.000000	0.003883  
1681.000000	0.003953  
1680.000000	0.004004  
1679.000000	0.004015  
1678.000000	0.004052  
1677.000000	0.004146  
1676.000000	0.004240  
1675.000000	0.004266  
1674.000000	0.004243  
1673.000000	0.004241  
1672.000000	0.004246  
1671.000000	0.004237  
1670.000000	0.004365  
1669.000000	0.004669  
1668.000000	0.004969  
1667.000000	0.005216  
1666.000000	0.005471  
1665.000000	0.005745  
1664.000000	0.006022  
1663.000000	0.006320  
1662.000000	0.006652  
1661.000000	0.006961  
1660.000000	0.007231  
1659.000000	0.007439  
1658.000000	0.007621  
1657.000000	0.007750  
1656.000000	0.007875  
1655.000000	0.007912  
1654.000000	0.008076  
1653.000000	0.008542  
1652.000000	0.008737  
1651.000000	0.008818  
1650.000000	0.009041  
1649.000000	0.009201  
1648.000000	0.009227  
1647.000000	0.009305  
1646.000000	0.009540  
1645.000000	0.009756  
1644.000000	0.009910  
1643.000000	0.010008  
1642.000000	0.010057  
1641.000000	0.010116  
1640.000000	0.010196  
1639.000000	0.010272  
1638.000000	0.010325  
1637.000000	0.010419  
1636.000000	0.010582  
1635.000000	0.010577  
1634.000000	0.010388  
1633.000000	0.010289  
1632.000000	0.010296  
1631.000000	0.010290  
1630.000000	0.010209  
1629.000000	0.010046  
1628.000000	0.009841  
1627.000000	0.009647  
1626.000000	0.009493  
1625.000000	0.009337  
1624.000000	0.009104  
1623.000000	0.008808  
1622.000000	0.008544  
1621.000000	0.008354  
1620.000000	0.008193  
1619.000000	0.007955  
1618.000000	0.007569  
1617.000000	0.007139  
1616.000000	0.006833  
1615.000000	0.006687  
1614.000000	0.006656  
1613.000000	0.006643  
1612.000000	0.006539  
1611.000000	0.006334  
1610.000000	0.006116  
1609.000000	0.005964  
1608.000000	0.005875  
1607.000000	0.005818  
1606.000000	0.005778  
1605.000000	0.005730  
1604.000000	0.005659  
1603.000000	0.005575  
1602.000000	0.005515  
1601.000000	0.005472  
1600.000000	0.005392  
1599.000000	0.005249  
1598.000000	0.005095  
1597.000000	0.005028  
1596.000000	0.005110  
1595.000000	0.005319  
1594.000000	0.005551  
1593.000000	0.005709  
1592.000000	0.005784  
1591.000000	0.005852  
1590.000000	0.005990  
1589.000000	0.006185  
1588.000000	0.006374  
1587.000000	0.006541  
1586.000000	0.006728  
1585.000000	0.006948  
1584.000000	0.007172  
1583.000000	0.007391  
1582.000000	0.007609  
1581.000000	0.007819  
1580.000000	0.007993  
1579.000000	0.008118  
1578.000000	0.008203  
1577.000000	0.008334  
1576.000000	0.008550  
1575.000000	0.008723  
1574.000000	0.008847  
1573.000000	0.008978  
1572.000000	0.009068  
1571.000000	0.009070  
1570.000000	0.009079  
1569.000000	0.009161  
1568.000000	0.009231  
1567.000000	0.009253  
1566.000000	0.009259  
1565.000000	0.009240  
1564.000000	0.009185  
1563.000000	0.009094  
1562.000000	0.009020  
1561.000000	0.008986  
1560.000000	0.008812  
1559.000000	0.008332  
1558.000000	0.007737  
1557.000000	0.007321  
1556.000000	0.007131  
1555.000000	0.007008  
1554.000000	0.006845  
1553.000000	0.006713  
1552.000000	0.006618  
1551.000000	0.006512  
1550.000000	0.006370  
1549.000000	0.006231  
1548.000000	0.006081  
1547.000000	0.005871  
1546.000000	0.005572  
1545.000000	0.005259  
1544.000000	0.004987  
1543.000000	0.004751  
1542.000000	0.004529  
1541.000000	0.004606  
1540.000000	0.004984  
1539.000000	0.005002  
1538.000000	0.004776  
1537.000000	0.004731  
1536.000000	0.004776  
1535.000000	0.004754  
1534.000000	0.004718  
1533.000000	0.004827  
1532.000000	0.004958  
1531.000000	0.004957  
1530.000000	0.004852  
1529.000000	0.004712  
1528.000000	0.004598  
1527.000000	0.004523  
1526.000000	0.004493  
1525.000000	0.004507  
1524.000000	0.004516  
1523.000000	0.004440  
1522.000000	0.004435  
1521.000000	0.004635  
1520.000000	0.004800  
1519.000000	0.004817  
1518.000000	0.004793  
1517.000000	0.004881  
1516.000000	0.005074  
1515.000000	0.005224  
1514.000000	0.005354  
1513.000000	0.005526  
1512.000000	0.005707  
1511.000000	0.005828  
1510.000000	0.005937  
1509.000000	0.006155  
1508.000000	0.006547  
1507.000000	0.006881  
1506.000000	0.006840  
1505.000000	0.006723  
1504.000000	0.006833  
1503.000000	0.007054  
1502.000000	0.007294  
1501.000000	0.007551  
1500.000000	0.007773  
1499.000000	0.007879  
1498.000000	0.007991  
1497.000000	0.008382  
1496.000000	0.008884  
1495.000000	0.009146  
1494.000000	0.009240  
1493.000000	0.009329  
1492.000000	0.009384  
1491.000000	0.009385  
1490.000000	0.009623  
1489.000000	0.010289  
1488.000000	0.011018  
1487.000000	0.011548  
1486.000000	0.012054  
1485.000000	0.012684  
1484.000000	0.013411  
1483.000000	0.014227  
1482.000000	0.015278  
1481.000000	0.016595  
1480.000000	0.017929  
1479.000000	0.019134  
1478.000000	0.020456  
1477.000000	0.022161  
1476.000000	0.024123  
1475.000000	0.026281  
1474.000000	0.029780  
1473.000000	0.036274  
1472.000000	0.044384  
1471.000000	0.051300  
1470.000000	0.056992  
1469.000000	0.062284  
1468.000000	0.067154  
1467.000000	0.071362  
1466.000000	0.074899  
1465.000000	0.077734  
1464.000000	0.079483  
1463.000000	0.080240  
1462.000000	0.080600  
1461.000000	0.080865  
1460.000000	0.081027  
1459.000000	0.081131  
1458.000000	0.081531  
1457.000000	0.081645  
1456.000000	0.080328  
1455.000000	0.078184  
1454.000000	0.075910  
1453.000000	0.073362  
1452.000000	0.070573  
1451.000000	0.067867  
1450.000000	0.065445  
1449.000000	0.063041  
1448.000000	0.060398  
1447.000000	0.057677  
1446.000000	0.055058  
1445.000000	0.052418  
1444.000000	0.049667  
1443.000000	0.046945  
1442.000000	0.044435  
1441.000000	0.042185  
1440.000000	0.040155  
1439.000000	0.038258  
1438.000000	0.036272  
1437.000000	0.034033  
1436.000000	0.031925  
1435.000000	0.030409  
1434.000000	0.029263  
1433.000000	0.028032  
1432.000000	0.026551  
1431.000000	0.024956  
1430.000000	0.023437  
1429.000000	0.022121  
1428.000000	0.021121  
1427.000000	0.020464  
1426.000000	0.020010  
1425.000000	0.019606  
1424.000000	0.019294  
1423.000000	0.019143  
1422.000000	0.019023  
1421.000000	0.018736  
1420.000000	0.018269  
1419.000000	0.017831  
1418.000000	0.017516  
1417.000000	0.017219  
1416.000000	0.016907  
1415.000000	0.016595  
1414.000000	0.016259  
1413.000000	0.015900  
1412.000000	0.015604  
1411.000000	0.015446  
1410.000000	0.015365  
1409.000000	0.015276  
1408.000000	0.015211  
1407.000000	0.015267  
1406.000000	0.015456  
1405.000000	0.015702  
1404.000000	0.015978  
1403.000000	0.016294  
1402.000000	0.016622  
1401.000000	0.016942  
1400.000000	0.017318  
1399.000000	0.017783  
1398.000000	0.018207  
1397.000000	0.018491  
1396.000000	0.018718  
1395.000000	0.019002  
1394.000000	0.019300  
1393.000000	0.019553  
1392.000000	0.019825  
1391.000000	0.020170  
1390.000000	0.020615  
1389.000000	0.021306  
1388.000000	0.022535  
1387.000000	0.024349  
1386.000000	0.026353  
1385.000000	0.028281  
1384.000000	0.030302  
1383.000000	0.032692  
1382.000000	0.035565  
1381.000000	0.038817  
1380.000000	0.042084  
1379.000000	0.044706  
1378.000000	0.046042  
1377.000000	0.045888  
1376.000000	0.044357  
1375.000000	0.041621  
1374.000000	0.038217  
1373.000000	0.035062  
1372.000000	0.032676  
1371.000000	0.030992  
1370.000000	0.029843  
1369.000000	0.029176  
1368.000000	0.028905  
1367.000000	0.028763  
1366.000000	0.028434  
1365.000000	0.027713  
1364.000000	0.026567  
1363.000000	0.025198  
1362.000000	0.023981  
1361.000000	0.023125  
1360.000000	0.022569  
1359.000000	0.022197  
1358.000000	0.021941  
1357.000000	0.021759  
1356.000000	0.021623  
1355.000000	0.021529  
1354.000000	0.021487  
1353.000000	0.021494  
1352.000000	0.021516  
1351.000000	0.021500  
1350.000000	0.021394  
1349.000000	0.021184  
1348.000000	0.020922  
1347.000000	0.020657  
1346.000000	0.020378  
1345.000000	0.020052  
1344.000000	0.019701  
1343.000000	0.019387  
1342.000000	0.019121  
1341.000000	0.018843  
1340.000000	0.018488  
1339.000000	0.018066  
1338.000000	0.017635  
1337.000000	0.017225  
1336.000000	0.016836  
1335.000000	0.016468  
1334.000000	0.016124  
1333.000000	0.015814  
1332.000000	0.015581  
1331.000000	0.015462  
1330.000000	0.015432  
1329.000000	0.015429  
1328.000000	0.015437  
1327.000000	0.015500  
1326.000000	0.015642  
1325.000000	0.015828  
1324.000000	0.016017  
1323.000000	0.016205  
1322.000000	0.016386  
1321.000000	0.016527  
1320.000000	0.016603  
1319.000000	0.016639  
1318.000000	0.016678  
1317.000000	0.016748  
1316.000000	0.016867  
1315.000000	0.017056  
1314.000000	0.017301  
1313.000000	0.017544  
1312.000000	0.017738  
1311.000000	0.017892  
1310.000000	0.018041  
1309.000000	0.018187  
1308.000000	0.018299  
1307.000000	0.018350  
1306.000000	0.018346  
1305.000000	0.018324  
1304.000000	0.018325  
1303.000000	0.018363  
1302.000000	0.018393  
1301.000000	0.018349  
1300.000000	0.018201  
1299.000000	0.017977  
1298.000000	0.017732  
1297.000000	0.017494  
1296.000000	0.017266  
1295.000000	0.017035  
1294.000000	0.016784  
1293.000000	0.016518  
1292.000000	0.016275  
1291.000000	0.016107  
1290.000000	0.016041  
1289.000000	0.016063  
1288.000000	0.016155  
1287.000000	0.016315  
1286.000000	0.016546  
1285.000000	0.016846  
1284.000000	0.017195  
1283.000000	0.017546  
1282.000000	0.017840  
1281.000000	0.018057  
1280.000000	0.018237  
1279.000000	0.018435  
1278.000000	0.018655  
1277.000000	0.018876  
1276.000000	0.019106  
1275.000000	0.019371  
1274.000000	0.019662  
1273.000000	0.019933  
1272.000000	0.020160  
1271.000000	0.020361  
1270.000000	0.020541  
1269.000000	0.020673  
1268.000000	0.020753  
1267.000000	0.020834  
1266.000000	0.020969  
1265.000000	0.021142  
1264.000000	0.021298  
1263.000000	0.021428  
1262.000000	0.021569  
1261.000000	0.021734  
1260.000000	0.021877  
1259.000000	0.021947  
1258.000000	0.021943  
1257.000000	0.021914  
1256.000000	0.021918  
1255.000000	0.021993  
1254.000000	0.022157  
1253.000000	0.022402  
1252.000000	0.022709  
1251.000000	0.023067  
1250.000000	0.023488  
1249.000000	0.023976  
1248.000000	0.024499  
1247.000000	0.024986  
1246.000000	0.025380  
1245.000000	0.025675  
1244.000000	0.025877  
1243.000000	0.025970  
1242.000000	0.025931  
1241.000000	0.025774  
1240.000000	0.025540  
1239.000000	0.025240  
1238.000000	0.024852  
1237.000000	0.024375  
1236.000000	0.023869  
1235.000000	0.023410  
1234.000000	0.023019  
1233.000000	0.022653  
1232.000000	0.022268  
1231.000000	0.021854  
1230.000000	0.021431  
1229.000000	0.021036  
1228.000000	0.020708  
1227.000000	0.020463  
1226.000000	0.020265  
1225.000000	0.020061  
1224.000000	0.019841  
1223.000000	0.019643  
1222.000000	0.019515  
1221.000000	0.019479  
1220.000000	0.019535  
1219.000000	0.019652  
1218.000000	0.019764  
1217.000000	0.019814  
1216.000000	0.019814  
1215.000000	0.019840  
1214.000000	0.019951  
1213.000000	0.020136  
1212.000000	0.020340  
1211.000000	0.020520  
1210.000000	0.020665  
1209.000000	0.020799  
1208.000000	0.020967  
1207.000000	0.021197  
1206.000000	0.021483  
1205.000000	0.021806  
1204.000000	0.022179  
1203.000000	0.022632  
1202.000000	0.023161  
1201.000000	0.023710  
1200.000000	0.024229  
1199.000000	0.024722  
1198.000000	0.025245  
1197.000000	0.025860  
1196.000000	0.026586  
1195.000000	0.027390  
1194.000000	0.028210  
1193.000000	0.029018  
1192.000000	0.029837  
1191.000000	0.030690  
1190.000000	0.031562  
1189.000000	0.032429  
1188.000000	0.033302  
1187.000000	0.034209  
1186.000000	0.035144  
1185.000000	0.036079  
1184.000000	0.037010  
1183.000000	0.037960  
1182.000000	0.038913  
1181.000000	0.039797  
1180.000000	0.040534  
1179.000000	0.041103  
1178.000000	0.041535  
1177.000000	0.041858  
1176.000000	0.042074  
1175.000000	0.042172  
1174.000000	0.042155  
1173.000000	0.042033  
1172.000000	0.041814  
1171.000000	0.041497  
1170.000000	0.041065  
1169.000000	0.040499  
1168.000000	0.039818  
1167.000000	0.039077  
1166.000000	0.038309  
1165.000000	0.037478  
1164.000000	0.036522  
1163.000000	0.035439  
1162.000000	0.034283  
1161.000000	0.033107  
1160.000000	0.031950  
1159.000000	0.030872  
1158.000000	0.029912  
1157.000000	0.029032  
1156.000000	0.028160  
1155.000000	0.027299  
1154.000000	0.026524  
1153.000000	0.025852  
1152.000000	0.025198  
1151.000000	0.024483  
1150.000000	0.023731  
1149.000000	0.023035  
1148.000000	0.022444  
1147.000000	0.021936  
1146.000000	0.021459  
1145.000000	0.020971  
1144.000000	0.020439  
1143.000000	0.019856  
1142.000000	0.019249  
1141.000000	0.018666  
1140.000000	0.018150  
1139.000000	0.017711  
1138.000000	0.017330  
1137.000000	0.016977  
1136.000000	0.016639  
1135.000000	0.016330  
1134.000000	0.016068  
1133.000000	0.015859  
1132.000000	0.015705  
1131.000000	0.015622  
1130.000000	0.015638  
1129.000000	0.015792  
1128.000000	0.016120  
1127.000000	0.016624  
1126.000000	0.017249  
1125.000000	0.017919  
1124.000000	0.018595  
1123.000000	0.019277  
1122.000000	0.019946  
1121.000000	0.020540  
1120.000000	0.021000  
1119.000000	0.021316  
1118.000000	0.021498  
1117.000000	0.021529  
1116.000000	0.021393  
1115.000000	0.021119  
1114.000000	0.020783  
1113.000000	0.020433  
1112.000000	0.020064  
1111.000000	0.019660  
1110.000000	0.019251  
1109.000000	0.018903  
1108.000000	0.018685  
1107.000000	0.018623  
1106.000000	0.018671  
1105.000000	0.018741  
1104.000000	0.018776  
1103.000000	0.018798  
1102.000000	0.018851  
1101.000000	0.018913  
1100.000000	0.018915  
1099.000000	0.018835  
1098.000000	0.018739  
1097.000000	0.018709  
1096.000000	0.018736  
1095.000000	0.018730  
1094.000000	0.018619  
1093.000000	0.018424  
1092.000000	0.018254  
1091.000000	0.018213  
1090.000000	0.018305  
1089.000000	0.018440  
1088.000000	0.018534  
1087.000000	0.018586  
1086.000000	0.018664  
1085.000000	0.018805  
1084.000000	0.018992  
1083.000000	0.019191  
1082.000000	0.019404  
1081.000000	0.019653  
1080.000000	0.019955  
1079.000000	0.020317  
1078.000000	0.020752  
1077.000000	0.021266  
1076.000000	0.021845  
1075.000000	0.022448  
1074.000000	0.023020  
1073.000000	0.023504  
1072.000000	0.023872  
1071.000000	0.024143  
1070.000000	0.024371  
1069.000000	0.024599  
1068.000000	0.024834  
1067.000000	0.025074  
1066.000000	0.025328  
1065.000000	0.025578  
1064.000000	0.025755  
1063.000000	0.025768  
1062.000000	0.025582  
1061.000000	0.025219  
1060.000000	0.024728  
1059.000000	0.024175  
1058.000000	0.023657  
1057.000000	0.023280  
1056.000000	0.023098  
1055.000000	0.023086  
1054.000000	0.023157  
1053.000000	0.023213  
1052.000000	0.023191  
1051.000000	0.023101  
1050.000000	0.023029  
1049.000000	0.023057  
1048.000000	0.023187  
1047.000000	0.023357  
1046.000000	0.023528  
1045.000000	0.023713  
1044.000000	0.023918  
1043.000000	0.024095  
1042.000000	0.024186  
1041.000000	0.024188  
1040.000000	0.024138  
1039.000000	0.024046  
1038.000000	0.023882  
1037.000000	0.023634  
1036.000000	0.023356  
1035.000000	0.023123  
1034.000000	0.022978  
1033.000000	0.022909  
1032.000000	0.022874  
1031.000000	0.022810  
1030.000000	0.022638  
1029.000000	0.022299  
1028.000000	0.021808  
1027.000000	0.021253  
1026.000000	0.020720  
1025.000000	0.020243  
1024.000000	0.019793  
1023.000000	0.019323  
1022.000000	0.018797  
1021.000000	0.018207  
1020.000000	0.017590  
1019.000000	0.017014  
1018.000000	0.016538  
1017.000000	0.016184  
1016.000000	0.015948  
1015.000000	0.015821  
1014.000000	0.015777  
1013.000000	0.015757  
1012.000000	0.015693  
1011.000000	0.015547  
1010.000000	0.015318  
1009.000000	0.015045  
1008.000000	0.014782  
1007.000000	0.014568  
1006.000000	0.014391  
1005.000000	0.014207  
1004.000000	0.014003  
1003.000000	0.013820  
1002.000000	0.013695  
1001.000000	0.013600  
1000.000000	0.013490  
999.000000	 0.013381  
998.000000	 0.013342  
997.000000	 0.013400  
996.000000	 0.013497  
995.000000	 0.013552  
994.000000	 0.013537  
993.000000	 0.013468  
992.000000	 0.013369  
991.000000	 0.013249  
990.000000	 0.013125  
989.000000	 0.013012  
988.000000	 0.012910  
987.000000	 0.012811  
986.000000	 0.012716  
985.000000	 0.012643  
984.000000	 0.012598  
983.000000	 0.012568  
982.000000	 0.012554  
981.000000	 0.012595  
980.000000	 0.012735  
979.000000	 0.012966  
978.000000	 0.013217  
977.000000	 0.013424  
976.000000	 0.013596  
975.000000	 0.013799  
974.000000	 0.014070  
973.000000	 0.014367  
972.000000	 0.014602  
971.000000	 0.014735  
970.000000	 0.014800  
969.000000	 0.014870  
968.000000	 0.014978  
967.000000	 0.015092  
966.000000	 0.015136  
965.000000	 0.015045  
964.000000	 0.014808  
963.000000	 0.014482  
962.000000	 0.014164  
961.000000	 0.013940  
960.000000	 0.013832  
959.000000	 0.013800  
958.000000	 0.013777  
957.000000	 0.013725  
956.000000	 0.013663  
955.000000	 0.013642  
954.000000	 0.013691  
953.000000	 0.013779  
952.000000	 0.013838  
951.000000	 0.013817  
950.000000	 0.013726  
949.000000	 0.013624  
948.000000	 0.013557  
947.000000	 0.013503  
946.000000	 0.013388  
945.000000	 0.013169  
944.000000	 0.012886  
943.000000	 0.012626  
942.000000	 0.012425  
941.000000	 0.012240  
940.000000	 0.012011  
939.000000	 0.011734  
938.000000	 0.011464  
937.000000	 0.011247  
936.000000	 0.011092  
935.000000	 0.010990  
934.000000	 0.010924  
933.000000	 0.010866  
932.000000	 0.010778  
931.000000	 0.010640  
930.000000	 0.010474  
929.000000	 0.010343  
928.000000	 0.010309  
927.000000	 0.010390  
926.000000	 0.010531  
925.000000	 0.010652  
924.000000	 0.010726  
923.000000	 0.010811  
922.000000	 0.010965  
921.000000	 0.011174  
920.000000	 0.011364  
919.000000	 0.011486  
918.000000	 0.011527  
917.000000	 0.011466  
916.000000	 0.011288  
915.000000	 0.011054  
914.000000	 0.010898  
913.000000	 0.010877  
912.000000	 0.010888  
911.000000	 0.010785  
910.000000	 0.010561  
909.000000	 0.010340  
908.000000	 0.010212  
907.000000	 0.010134  
906.000000	 0.010024  
905.000000	 0.009865  
904.000000	 0.009700  
903.000000	 0.009581  
902.000000	 0.009553  
901.000000	 0.009639  
900.000000	 0.009790  
899.000000	 0.009894  
898.000000	 0.009882  
897.000000	 0.009793  
896.000000	 0.009704  
895.000000	 0.009640  
894.000000	 0.009583  
893.000000	 0.009555  
892.000000	 0.009609  
891.000000	 0.009744  
890.000000	 0.009889  
889.000000	 0.009978  
888.000000	 0.009996  
887.000000	 0.009959  
886.000000	 0.009889  
885.000000	 0.009836  
884.000000	 0.009868  
883.000000	 0.010010  
882.000000	 0.010208  
881.000000	 0.010361  
880.000000	 0.010391  
879.000000	 0.010290  
878.000000	 0.010149  
877.000000	 0.010107  
876.000000	 0.010228  
875.000000	 0.010410  
874.000000	 0.010495  
873.000000	 0.010454  
872.000000	 0.010406  
871.000000	 0.010442  
870.000000	 0.010536  
869.000000	 0.010635  
868.000000	 0.010745  
867.000000	 0.010866  
866.000000	 0.010924  
865.000000	 0.010859  
864.000000	 0.010726  
863.000000	 0.010649  
862.000000	 0.010668  
861.000000	 0.010702  
860.000000	 0.010683  
859.000000	 0.010658  
858.000000	 0.010755  
857.000000	 0.011049  
856.000000	 0.011477  
855.000000	 0.011873  
854.000000	 0.012112  
853.000000	 0.012243  
852.000000	 0.012452  
851.000000	 0.012867  
850.000000	 0.013415  
849.000000	 0.013911  
848.000000	 0.014248  
847.000000	 0.014452  
846.000000	 0.014574  
845.000000	 0.014606  
844.000000	 0.014523  
843.000000	 0.014357  
842.000000	 0.014184  
841.000000	 0.014047  
840.000000	 0.013911  
839.000000	 0.013694  
838.000000	 0.013342  
837.000000	 0.012895  
836.000000	 0.012477  
835.000000	 0.012189  
834.000000	 0.012004  
833.000000	 0.011816  
832.000000	 0.011588  
831.000000	 0.011418  
830.000000	 0.011406  
829.000000	 0.011501  
828.000000	 0.011545  
827.000000	 0.011475  
826.000000	 0.011392  
825.000000	 0.011403  
824.000000	 0.011461  
823.000000	 0.011448  
822.000000	 0.011358  
821.000000	 0.011283  
820.000000	 0.011270  
819.000000	 0.011295  
818.000000	 0.011366  
817.000000	 0.011550  
816.000000	 0.011853  
815.000000	 0.012130  
814.000000	 0.012206  
813.000000	 0.012075  
812.000000	 0.011909  
811.000000	 0.011876  
810.000000	 0.011988  
809.000000	 0.012166  
808.000000	 0.012375  
807.000000	 0.012633  
806.000000	 0.012912  
805.000000	 0.013105  
804.000000	 0.013110  
803.000000	 0.012913  
802.000000	 0.012588  
801.000000	 0.012221  
800.000000	 0.011862  
799.000000	 0.011545  
798.000000	 0.011317  
797.000000	 0.011210  
796.000000	 0.011183  
795.000000	 0.011123  
794.000000	 0.010968  
793.000000	 0.010799  
792.000000	 0.010762  
791.000000	 0.010891  
790.000000	 0.011071  
789.000000	 0.011191  
788.000000	 0.011269  
787.000000	 0.011393  
786.000000	 0.011606  
785.000000	 0.011909  
784.000000	 0.012319  
783.000000	 0.012849  
782.000000	 0.013441  
781.000000	 0.013985  
780.000000	 0.014397  
779.000000	 0.014656  
778.000000	 0.014787  
777.000000	 0.014862  
776.000000	 0.015001  
775.000000	 0.015288  
774.000000	 0.015685  
773.000000	 0.016072  
772.000000	 0.016391  
771.000000	 0.016693  
770.000000	 0.017041  
769.000000	 0.017412  
768.000000	 0.017733  
767.000000	 0.017960  
766.000000	 0.018100  
765.000000	 0.018179  
764.000000	 0.018223  
763.000000	 0.018253  
762.000000	 0.018276  
761.000000	 0.018289  
760.000000	 0.018297  
759.000000	 0.018334  
758.000000	 0.018450  
757.000000	 0.018686  
756.000000	 0.019044  
755.000000	 0.019477  
754.000000	 0.019910  
753.000000	 0.020300  
752.000000	 0.020677  
751.000000	 0.021094  
750.000000	 0.021551  
749.000000	 0.021991  
748.000000	 0.022399  
747.000000	 0.022891  
746.000000	 0.023673  
745.000000	 0.024873  
744.000000	 0.026390  
743.000000	 0.027926  
742.000000	 0.029203  
741.000000	 0.030158  
740.000000	 0.030926  
739.000000	 0.031618  
738.000000	 0.032198  
737.000000	 0.032585  
736.000000	 0.032818  
735.000000	 0.033043  
734.000000	 0.033347  
733.000000	 0.033712  
732.000000	 0.034136  
731.000000	 0.034727  
730.000000	 0.035593  
729.000000	 0.036687  
728.000000	 0.037847  
727.000000	 0.038972  
726.000000	 0.040059  
725.000000	 0.041090  
724.000000	 0.041938  
723.000000	 0.042406  
722.000000	 0.042317  
721.000000	 0.041589  
720.000000	 0.040313  
719.000000	 0.038727  
718.000000	 0.037079  
717.000000	 0.035513  
716.000000	 0.034098  
715.000000	 0.032891  
714.000000	 0.031939  
713.000000	 0.031221  
712.000000	 0.030638  
711.000000	 0.030070  
710.000000	 0.029471  
709.000000	 0.028900  
708.000000	 0.028445  
707.000000	 0.028117  
706.000000	 0.027841  
705.000000	 0.027596  
704.000000	 0.027497  
703.000000	 0.027636  
702.000000	 0.027910  
701.000000	 0.028108  
700.000000	 0.028123  
699.000000	 0.027962  
698.000000	 0.027553  
697.000000	 0.026740  
696.000000	 0.025561  
695.000000	 0.024325  
694.000000	 0.023341  
693.000000	 0.022638  
692.000000	 0.022080  
691.000000	 0.021645  
690.000000	 0.021410  
689.000000	 0.021327  
688.000000	 0.021197  
687.000000	 0.020909  
686.000000	 0.020571  
685.000000	 0.020343  
684.000000	 0.020242  
683.000000	 0.020170  
682.000000	 0.020015  
681.000000	 0.019708  
680.000000	 0.019261  
679.000000	 0.018785  
678.000000	 0.018399  
677.000000	 0.018117  
676.000000	 0.017913  
675.000000	 0.017756  
674.000000	 0.017565  
673.000000	 0.017270  
672.000000	 0.017005  
671.000000	 0.017170  
670.000000	 0.018189  
669.000000	 0.019963  
668.000000	 0.020754  
667.000000	 0.018951  
666.000000	 0.016565  
665.000000	 0.015252  
664.000000	 0.014923  
663.000000	 0.015047  
662.000000	 0.015149  
661.000000	 0.014987  
660.000000	 0.014710  
659.000000	 0.014431  
658.000000	 0.014387  
657.000000	 0.014112  
656.000000	 0.014124  
655.000000	 0.013110  
654.000000	 0.009362  
653.000000	 0.009685  
652.000000	 0.009676  
651.000000	 0.010130  
650.000000	 0.010445  

