PE IR                   SPECTRUM    ASCII       PEDS        1.60        
  -1
NB451~1.ASC
17/05/24
07:56:03.00
17/05/24
07:56:03.00
Admin

650.000000
4









SPECTRUM ONE,CPU32 MAIN 00.02.6000 25-JUNE-2003 12:00:00
MIR TGS
MIR
OPTKBR
68128
0.200000

4.000000
STRONG
RATIO
SPECTRUM
MAGNITUDE
UNIVERSAL ATR
DOUBLE

COMBINED


0


#HDR
-1
-1
#GR
CM-1
A
0.00000011920928955078
0.0
4000.000000
-1.000000
3351
8
0.194380
-0.001319
#DATA
4000.000000	0.003455  
3999.000000	0.003506  
3998.000000	0.003567  
3997.000000	0.003588  
3996.000000	0.003527  
3995.000000	0.003397  
3994.000000	0.003259  
3993.000000	0.003180  
3992.000000	0.003185  
3991.000000	0.003257  
3990.000000	0.003357  
3989.000000	0.003450  
3988.000000	0.003509  
3987.000000	0.003519  
3986.000000	0.003479  
3985.000000	0.003401  
3984.000000	0.003299  
3983.000000	0.003188  
3982.000000	0.003082  
3981.000000	0.002993  
3980.000000	0.002926  
3979.000000	0.002879  
3978.000000	0.002848  
3977.000000	0.002842  
3976.000000	0.002882  
3975.000000	0.002980  
3974.000000	0.003118  
3973.000000	0.003246  
3972.000000	0.003317  
3971.000000	0.003313  
3970.000000	0.003249  
3969.000000	0.003160  
3968.000000	0.003078  
3967.000000	0.003034  
3966.000000	0.003054  
3965.000000	0.003139  
3964.000000	0.003254  
3963.000000	0.003333  
3962.000000	0.003334  
3961.000000	0.003261  
3960.000000	0.003151  
3959.000000	0.003042  
3958.000000	0.002957  
3957.000000	0.002911  
3956.000000	0.002907  
3955.000000	0.002923  
3954.000000	0.002926  
3953.000000	0.002909  
3952.000000	0.002907  
3951.000000	0.002971  
3950.000000	0.003105  
3949.000000	0.003246  
3948.000000	0.003312  
3947.000000	0.003283  
3946.000000	0.003200  
3945.000000	0.003119  
3944.000000	0.003079  
3943.000000	0.003103  
3942.000000	0.003195  
3941.000000	0.003327  
3940.000000	0.003435  
3939.000000	0.003460  
3938.000000	0.003397  
3937.000000	0.003306  
3936.000000	0.003262  
3935.000000	0.003290  
3934.000000	0.003346  
3933.000000	0.003374  
3932.000000	0.003375  
3931.000000	0.003391  
3930.000000	0.003424  
3929.000000	0.003432  
3928.000000	0.003386  
3927.000000	0.003298  
3926.000000	0.003210  
3925.000000	0.003153  
3924.000000	0.003115  
3923.000000	0.003053  
3922.000000	0.002967  
3921.000000	0.002915  
3920.000000	0.002967  
3919.000000	0.003122  
3918.000000	0.003288  
3917.000000	0.003373  
3916.000000	0.003385  
3915.000000	0.003403  
3914.000000	0.003481  
3913.000000	0.003607  
3912.000000	0.003711  
3911.000000	0.003708  
3910.000000	0.003552  
3909.000000	0.003270  
3908.000000	0.002950  
3907.000000	0.002716  
3906.000000	0.002702  
3905.000000	0.002982  
3904.000000	0.003471  
3903.000000	0.003932  
3902.000000	0.004156  
3901.000000	0.004112  
3900.000000	0.003931  
3899.000000	0.003752  
3898.000000	0.003604  
3897.000000	0.003447  
3896.000000	0.003267  
3895.000000	0.003114  
3894.000000	0.003054  
3893.000000	0.003107  
3892.000000	0.003226  
3891.000000	0.003324  
3890.000000	0.003349  
3889.000000	0.003319  
3888.000000	0.003264  
3887.000000	0.003185  
3886.000000	0.003108  
3885.000000	0.003083  
3884.000000	0.003104  
3883.000000	0.003121  
3882.000000	0.003099  
3881.000000	0.003068  
3880.000000	0.003086  
3879.000000	0.003152  
3878.000000	0.003224  
3877.000000	0.003266  
3876.000000	0.003258  
3875.000000	0.003224  
3874.000000	0.003226  
3873.000000	0.003278  
3872.000000	0.003300  
3871.000000	0.003232  
3870.000000	0.003160  
3869.000000	0.003207  
3868.000000	0.003370  
3867.000000	0.003546  
3866.000000	0.003626  
3865.000000	0.003588  
3864.000000	0.003508  
3863.000000	0.003443  
3862.000000	0.003375  
3861.000000	0.003270  
3860.000000	0.003127  
3859.000000	0.002976  
3858.000000	0.002885  
3857.000000	0.002919  
3856.000000	0.003052  
3855.000000	0.003068  
3854.000000	0.002972  
3853.000000	0.003074  
3852.000000	0.003337  
3851.000000	0.003540  
3850.000000	0.003613  
3849.000000	0.003590  
3848.000000	0.003520  
3847.000000	0.003412  
3846.000000	0.003250  
3845.000000	0.003057  
3844.000000	0.002956  
3843.000000	0.003116  
3842.000000	0.003577  
3841.000000	0.004154  
3840.000000	0.004547  
3839.000000	0.004612  
3838.000000	0.004494  
3837.000000	0.004391  
3836.000000	0.004320  
3835.000000	0.004184  
3834.000000	0.003924  
3833.000000	0.003598  
3832.000000	0.003353  
3831.000000	0.003282  
3830.000000	0.003353  
3829.000000	0.003438  
3828.000000	0.003419  
3827.000000	0.003298  
3826.000000	0.003197  
3825.000000	0.003237  
3824.000000	0.003405  
3823.000000	0.003514  
3822.000000	0.003430  
3821.000000	0.003321  
3820.000000	0.003362  
3819.000000	0.003504  
3818.000000	0.003593  
3817.000000	0.003540  
3816.000000	0.003438  
3815.000000	0.003394  
3814.000000	0.003384  
3813.000000	0.003331  
3812.000000	0.003223  
3811.000000	0.003117  
3810.000000	0.003069  
3809.000000	0.003039  
3808.000000	0.002975  
3807.000000	0.002950  
3806.000000	0.003089  
3805.000000	0.003391  
3804.000000	0.003677  
3803.000000	0.003677  
3802.000000	0.003384  
3801.000000	0.003116  
3800.000000	0.003049  
3799.000000	0.003095  
3798.000000	0.003105  
3797.000000	0.003034  
3796.000000	0.002957  
3795.000000	0.002950  
3794.000000	0.003002  
3793.000000	0.003056  
3792.000000	0.003076  
3791.000000	0.003059  
3790.000000	0.003021  
3789.000000	0.002984  
3788.000000	0.002971  
3787.000000	0.002999  
3786.000000	0.003059  
3785.000000	0.003119  
3784.000000	0.003152  
3783.000000	0.003167  
3782.000000	0.003173  
3781.000000	0.003145  
3780.000000	0.003071  
3779.000000	0.002993  
3778.000000	0.002957  
3777.000000	0.002958  
3776.000000	0.002960  
3775.000000	0.002943  
3774.000000	0.002932  
3773.000000	0.002955  
3772.000000	0.002972  
3771.000000	0.002910  
3770.000000	0.002783  
3769.000000	0.002707  
3768.000000	0.002778  
3767.000000	0.002964  
3766.000000	0.003141  
3765.000000	0.003212  
3764.000000	0.003192  
3763.000000	0.003140  
3762.000000	0.003080  
3761.000000	0.003001  
3760.000000	0.002931  
3759.000000	0.002924  
3758.000000	0.002975  
3757.000000	0.003028  
3756.000000	0.003053  
3755.000000	0.003068  
3754.000000	0.003098  
3753.000000	0.003153  
3752.000000	0.003279  
3751.000000	0.003531  
3750.000000	0.003795  
3749.000000	0.003940  
3748.000000	0.003986  
3747.000000	0.003942  
3746.000000	0.003687  
3745.000000	0.003214  
3744.000000	0.002785  
3743.000000	0.002559  
3742.000000	0.002434  
3741.000000	0.002282  
3740.000000	0.002089  
3739.000000	0.001977  
3738.000000	0.002114  
3737.000000	0.002554  
3736.000000	0.003099  
3735.000000	0.003388  
3734.000000	0.003274  
3733.000000	0.002951  
3732.000000	0.002683  
3731.000000	0.002581  
3730.000000	0.002602  
3729.000000	0.002632  
3728.000000	0.002573  
3727.000000	0.002421  
3726.000000	0.002255  
3725.000000	0.002130  
3724.000000	0.002044  
3723.000000	0.002027  
3722.000000	0.002143  
3721.000000	0.002385  
3720.000000	0.002603  
3719.000000	0.002617  
3718.000000	0.002387  
3717.000000	0.002051  
3716.000000	0.001813  
3715.000000	0.001770  
3714.000000	0.001844  
3713.000000	0.001875  
3712.000000	0.001878  
3711.000000	0.002013  
3710.000000	0.002274  
3709.000000	0.002517  
3708.000000	0.002664  
3707.000000	0.002732  
3706.000000	0.002771  
3705.000000	0.002803  
3704.000000	0.002808  
3703.000000	0.002748  
3702.000000	0.002641  
3701.000000	0.002560  
3700.000000	0.002555  
3699.000000	0.002632  
3698.000000	0.002756  
3697.000000	0.002890  
3696.000000	0.003019  
3695.000000	0.003150  
3694.000000	0.003296  
3693.000000	0.003447  
3692.000000	0.003532  
3691.000000	0.003473  
3690.000000	0.003301  
3689.000000	0.003143  
3688.000000	0.003055  
3687.000000	0.003009  
3686.000000	0.002968  
3685.000000	0.002898  
3684.000000	0.002782  
3683.000000	0.002634  
3682.000000	0.002480  
3681.000000	0.002360  
3680.000000	0.002355  
3679.000000	0.002552  
3678.000000	0.002949  
3677.000000	0.003372  
3676.000000	0.003644  
3675.000000	0.003716  
3674.000000	0.003632  
3673.000000	0.003474  
3672.000000	0.003300  
3671.000000	0.003198  
3670.000000	0.003286  
3669.000000	0.003464  
3668.000000	0.003501  
3667.000000	0.003303  
3666.000000	0.002937  
3665.000000	0.002558  
3664.000000	0.002318  
3663.000000	0.002274  
3662.000000	0.002358  
3661.000000	0.002453  
3660.000000	0.002496  
3659.000000	0.002482  
3658.000000	0.002417  
3657.000000	0.002323  
3656.000000	0.002278  
3655.000000	0.002355  
3654.000000	0.002582  
3653.000000	0.002945  
3652.000000	0.003370  
3651.000000	0.003799  
3650.000000	0.004357  
3649.000000	0.005033  
3648.000000	0.005392  
3647.000000	0.005198  
3646.000000	0.004644  
3645.000000	0.004004  
3644.000000	0.003470  
3643.000000	0.003153  
3642.000000	0.003072  
3641.000000	0.003132  
3640.000000	0.003173  
3639.000000	0.003092  
3638.000000	0.002914  
3637.000000	0.002746  
3636.000000	0.002651  
3635.000000	0.002610  
3634.000000	0.002590  
3633.000000	0.002614  
3632.000000	0.002755  
3631.000000	0.003022  
3630.000000	0.003287  
3629.000000	0.003430  
3628.000000	0.003436  
3627.000000	0.003334  
3626.000000	0.003177  
3625.000000	0.003039  
3624.000000	0.003002  
3623.000000	0.003121  
3622.000000	0.003391  
3621.000000	0.003705  
3620.000000	0.003911  
3619.000000	0.003944  
3618.000000	0.003868  
3617.000000	0.003753  
3616.000000	0.003597  
3615.000000	0.003378  
3614.000000	0.003141  
3613.000000	0.003005  
3612.000000	0.003042  
3611.000000	0.003212  
3610.000000	0.003414  
3609.000000	0.003583  
3608.000000	0.003716  
3607.000000	0.003810  
3606.000000	0.003838  
3605.000000	0.003809  
3604.000000	0.003767  
3603.000000	0.003751  
3602.000000	0.003759  
3601.000000	0.003776  
3600.000000	0.003808  
3599.000000	0.003866  
3598.000000	0.003935  
3597.000000	0.003971  
3596.000000	0.003924  
3595.000000	0.003791  
3594.000000	0.003627  
3593.000000	0.003489  
3592.000000	0.003400  
3591.000000	0.003358  
3590.000000	0.003348  
3589.000000	0.003357  
3588.000000	0.003432  
3587.000000	0.003630  
3586.000000	0.003879  
3585.000000	0.004046  
3584.000000	0.004080  
3583.000000	0.004019  
3582.000000	0.003933  
3581.000000	0.003888  
3580.000000	0.003934  
3579.000000	0.004092  
3578.000000	0.004321  
3577.000000	0.004520  
3576.000000	0.004596  
3575.000000	0.004546  
3574.000000	0.004449  
3573.000000	0.004385  
3572.000000	0.004366  
3571.000000	0.004358  
3570.000000	0.004323  
3569.000000	0.004259  
3568.000000	0.004257  
3567.000000	0.004448  
3566.000000	0.004776  
3565.000000	0.005034  
3564.000000	0.005114  
3563.000000	0.005061  
3562.000000	0.004977  
3561.000000	0.004931  
3560.000000	0.004933  
3559.000000	0.004956  
3558.000000	0.004968  
3557.000000	0.004956  
3556.000000	0.004943  
3555.000000	0.004966  
3554.000000	0.005027  
3553.000000	0.005060  
3552.000000	0.004985  
3551.000000	0.004806  
3550.000000	0.004624  
3549.000000	0.004568  
3548.000000	0.004699  
3547.000000	0.004957  
3546.000000	0.005198  
3545.000000	0.005314  
3544.000000	0.005303  
3543.000000	0.005253  
3542.000000	0.005259  
3541.000000	0.005364  
3540.000000	0.005538  
3539.000000	0.005693  
3538.000000	0.005749  
3537.000000	0.005700  
3536.000000	0.005617  
3535.000000	0.005574  
3534.000000	0.005582  
3533.000000	0.005602  
3532.000000	0.005583  
3531.000000	0.005500  
3530.000000	0.005352  
3529.000000	0.005174  
3528.000000	0.005034  
3527.000000	0.005002  
3526.000000	0.005102  
3525.000000	0.005283  
3524.000000	0.005462  
3523.000000	0.005592  
3522.000000	0.005697  
3521.000000	0.005812  
3520.000000	0.005919  
3519.000000	0.005953  
3518.000000	0.005879  
3517.000000	0.005762  
3516.000000	0.005727  
3515.000000	0.005844  
3514.000000	0.006057  
3513.000000	0.006242  
3512.000000	0.006327  
3511.000000	0.006353  
3510.000000	0.006400  
3509.000000	0.006476  
3508.000000	0.006519  
3507.000000	0.006492  
3506.000000	0.006427  
3505.000000	0.006394  
3504.000000	0.006431  
3503.000000	0.006515  
3502.000000	0.006596  
3501.000000	0.006644  
3500.000000	0.006661  
3499.000000	0.006658  
3498.000000	0.006657  
3497.000000	0.006676  
3496.000000	0.006705  
3495.000000	0.006709  
3494.000000	0.006672  
3493.000000	0.006641  
3492.000000	0.006701  
3491.000000	0.006886  
3490.000000	0.007116  
3489.000000	0.007265  
3488.000000	0.007288  
3487.000000	0.007261  
3486.000000	0.007280  
3485.000000	0.007351  
3484.000000	0.007396  
3483.000000	0.007351  
3482.000000	0.007236  
3481.000000	0.007125  
3480.000000	0.007077  
3479.000000	0.007107  
3478.000000	0.007200  
3477.000000	0.007348  
3476.000000	0.007549  
3475.000000	0.007792  
3474.000000	0.008033  
3473.000000	0.008210  
3472.000000	0.008286  
3471.000000	0.008277  
3470.000000	0.008226  
3469.000000	0.008160  
3468.000000	0.008079  
3467.000000	0.007997  
3466.000000	0.007949  
3465.000000	0.007954  
3464.000000	0.007977  
3463.000000	0.007971  
3462.000000	0.007939  
3461.000000	0.007945  
3460.000000	0.008046  
3459.000000	0.008221  
3458.000000	0.008384  
3457.000000	0.008463  
3456.000000	0.008462  
3455.000000	0.008449  
3454.000000	0.008473  
3453.000000	0.008529  
3452.000000	0.008592  
3451.000000	0.008673  
3450.000000	0.008808  
3449.000000	0.008998  
3448.000000	0.009178  
3447.000000	0.009264  
3446.000000	0.009217  
3445.000000	0.009068  
3444.000000	0.008879  
3443.000000	0.008719  
3442.000000	0.008639  
3441.000000	0.008651  
3440.000000	0.008725  
3439.000000	0.008825  
3438.000000	0.008927  
3437.000000	0.009014  
3436.000000	0.009068  
3435.000000	0.009082  
3434.000000	0.009080  
3433.000000	0.009102  
3432.000000	0.009172  
3431.000000	0.009280  
3430.000000	0.009389  
3429.000000	0.009461  
3428.000000	0.009479  
3427.000000	0.009461  
3426.000000	0.009445  
3425.000000	0.009464  
3424.000000	0.009512  
3423.000000	0.009547  
3422.000000	0.009532  
3421.000000	0.009475  
3420.000000	0.009419  
3419.000000	0.009383  
3418.000000	0.009342  
3417.000000	0.009277  
3416.000000	0.009225  
3415.000000	0.009261  
3414.000000	0.009412  
3413.000000	0.009602  
3412.000000	0.009693  
3411.000000	0.009604  
3410.000000	0.009384  
3409.000000	0.009191  
3408.000000	0.009196  
3407.000000	0.009457  
3406.000000	0.009870  
3405.000000	0.010236  
3404.000000	0.010403  
3403.000000	0.010368  
3402.000000	0.010235  
3401.000000	0.010109  
3400.000000	0.010025  
3399.000000	0.009978  
3398.000000	0.009956  
3397.000000	0.009950  
3396.000000	0.009962  
3395.000000	0.010019  
3394.000000	0.010163  
3393.000000	0.010390  
3392.000000	0.010624  
3391.000000	0.010765  
3390.000000	0.010766  
3389.000000	0.010669  
3388.000000	0.010574  
3387.000000	0.010586  
3386.000000	0.010736  
3385.000000	0.010946  
3384.000000	0.011072  
3383.000000	0.011025  
3382.000000	0.010850  
3381.000000	0.010683  
3380.000000	0.010637  
3379.000000	0.010707  
3378.000000	0.010808  
3377.000000	0.010868  
3376.000000	0.010883  
3375.000000	0.010877  
3374.000000	0.010853  
3373.000000	0.010793  
3372.000000	0.010719  
3371.000000	0.010706  
3370.000000	0.010808  
3369.000000	0.010971  
3368.000000	0.011064  
3367.000000	0.011008  
3366.000000	0.010842  
3365.000000	0.010675  
3364.000000	0.010576  
3363.000000	0.010554  
3362.000000	0.010591  
3361.000000	0.010676  
3360.000000	0.010792  
3359.000000	0.010916  
3358.000000	0.011025  
3357.000000	0.011107  
3356.000000	0.011153  
3355.000000	0.011164  
3354.000000	0.011154  
3353.000000	0.011146  
3352.000000	0.011147  
3351.000000	0.011149  
3350.000000	0.011142  
3349.000000	0.011114  
3348.000000	0.011050  
3347.000000	0.010936  
3346.000000	0.010799  
3345.000000	0.010727  
3344.000000	0.010812  
3343.000000	0.011060  
3342.000000	0.011358  
3341.000000	0.011556  
3340.000000	0.011574  
3339.000000	0.011451  
3338.000000	0.011285  
3337.000000	0.011158  
3336.000000	0.011105  
3335.000000	0.011124  
3334.000000	0.011183  
3333.000000	0.011224  
3332.000000	0.011202  
3331.000000	0.011115  
3330.000000	0.010993  
3329.000000	0.010861  
3328.000000	0.010729  
3327.000000	0.010619  
3326.000000	0.010577  
3325.000000	0.010645  
3324.000000	0.010821  
3323.000000	0.011053  
3322.000000	0.011259  
3321.000000	0.011369  
3320.000000	0.011368  
3319.000000	0.011304  
3318.000000	0.011230  
3317.000000	0.011153  
3316.000000	0.011055  
3315.000000	0.010951  
3314.000000	0.010890  
3313.000000	0.010885  
3312.000000	0.010888  
3311.000000	0.010847  
3310.000000	0.010769  
3309.000000	0.010701  
3308.000000	0.010670  
3307.000000	0.010666  
3306.000000	0.010672  
3305.000000	0.010670  
3304.000000	0.010631  
3303.000000	0.010534  
3302.000000	0.010399  
3301.000000	0.010281  
3300.000000	0.010226  
3299.000000	0.010241  
3298.000000	0.010300  
3297.000000	0.010359  
3296.000000	0.010377  
3295.000000	0.010342  
3294.000000	0.010291  
3293.000000	0.010278  
3292.000000	0.010315  
3291.000000	0.010352  
3290.000000	0.010308  
3289.000000	0.010153  
3288.000000	0.009944  
3287.000000	0.009799  
3286.000000	0.009806  
3285.000000	0.009934  
3284.000000	0.010056  
3283.000000	0.010057  
3282.000000	0.009944  
3281.000000	0.009815  
3280.000000	0.009745  
3279.000000	0.009723  
3278.000000	0.009684  
3277.000000	0.009584  
3276.000000	0.009439  
3275.000000	0.009309  
3274.000000	0.009253  
3273.000000	0.009278  
3272.000000	0.009332  
3271.000000	0.009344  
3270.000000	0.009284  
3269.000000	0.009179  
3268.000000	0.009072  
3267.000000	0.008984  
3266.000000	0.008912  
3265.000000	0.008845  
3264.000000	0.008770  
3263.000000	0.008683  
3262.000000	0.008594  
3261.000000	0.008517  
3260.000000	0.008448  
3259.000000	0.008367  
3258.000000	0.008277  
3257.000000	0.008220  
3256.000000	0.008244  
3255.000000	0.008341  
3254.000000	0.008433  
3253.000000	0.008431  
3252.000000	0.008312  
3251.000000	0.008143  
3250.000000	0.008012  
3249.000000	0.007960  
3248.000000	0.007956  
3247.000000	0.007949  
3246.000000	0.007928  
3245.000000	0.007923  
3244.000000	0.007942  
3243.000000	0.007946  
3242.000000	0.007880  
3241.000000	0.007727  
3240.000000	0.007530  
3239.000000	0.007352  
3238.000000	0.007247  
3237.000000	0.007235  
3236.000000	0.007313  
3235.000000	0.007454  
3234.000000	0.007609  
3233.000000	0.007719  
3232.000000	0.007736  
3231.000000	0.007648  
3230.000000	0.007486  
3229.000000	0.007313  
3228.000000	0.007207  
3227.000000	0.007225  
3226.000000	0.007359  
3225.000000	0.007534  
3224.000000	0.007662  
3223.000000	0.007697  
3222.000000	0.007640  
3221.000000	0.007503  
3220.000000	0.007302  
3219.000000	0.007092  
3218.000000	0.006955  
3217.000000	0.006923  
3216.000000	0.006930  
3215.000000	0.006887  
3214.000000	0.006786  
3213.000000	0.006701  
3212.000000	0.006688  
3211.000000	0.006716  
3210.000000	0.006704  
3209.000000	0.006622  
3208.000000	0.006515  
3207.000000	0.006450  
3206.000000	0.006449  
3205.000000	0.006475  
3204.000000	0.006485  
3203.000000	0.006477  
3202.000000	0.006478  
3201.000000	0.006483  
3200.000000	0.006436  
3199.000000	0.006300  
3198.000000	0.006117  
3197.000000	0.005971  
3196.000000	0.005892  
3195.000000	0.005837  
3194.000000	0.005770  
3193.000000	0.005721  
3192.000000	0.005742  
3191.000000	0.005832  
3190.000000	0.005929  
3189.000000	0.005963  
3188.000000	0.005906  
3187.000000	0.005791  
3186.000000	0.005690  
3185.000000	0.005672  
3184.000000	0.005750  
3183.000000	0.005874  
3182.000000	0.005974  
3181.000000	0.006002  
3180.000000	0.005946  
3179.000000	0.005827  
3178.000000	0.005685  
3177.000000	0.005556  
3176.000000	0.005452  
3175.000000	0.005366  
3174.000000	0.005287  
3173.000000	0.005226  
3172.000000	0.005192  
3171.000000	0.005174  
3170.000000	0.005144  
3169.000000	0.005095  
3168.000000	0.005051  
3167.000000	0.005056  
3166.000000	0.005121  
3165.000000	0.005210  
3164.000000	0.005249  
3163.000000	0.005188  
3162.000000	0.005039  
3161.000000	0.004870  
3160.000000	0.004747  
3159.000000	0.004693  
3158.000000	0.004683  
3157.000000	0.004675  
3156.000000	0.004652  
3155.000000	0.004636  
3154.000000	0.004672  
3153.000000	0.004769  
3152.000000	0.004867  
3151.000000	0.004877  
3150.000000	0.004771  
3149.000000	0.004616  
3148.000000	0.004512  
3147.000000	0.004493  
3146.000000	0.004503  
3145.000000	0.004460  
3144.000000	0.004341  
3143.000000	0.004191  
3142.000000	0.004081  
3141.000000	0.004041  
3140.000000	0.004058  
3139.000000	0.004096  
3138.000000	0.004146  
3137.000000	0.004221  
3136.000000	0.004330  
3135.000000	0.004448  
3134.000000	0.004525  
3133.000000	0.004518  
3132.000000	0.004436  
3131.000000	0.004326  
3130.000000	0.004236  
3129.000000	0.004176  
3128.000000	0.004139  
3127.000000	0.004121  
3126.000000	0.004123  
3125.000000	0.004122  
3124.000000	0.004078  
3123.000000	0.003983  
3122.000000	0.003896  
3121.000000	0.003890  
3120.000000	0.003983  
3119.000000	0.004132  
3118.000000	0.004270  
3117.000000	0.004352  
3116.000000	0.004364  
3115.000000	0.004330  
3114.000000	0.004298  
3113.000000	0.004298  
3112.000000	0.004311  
3111.000000	0.004284  
3110.000000	0.004192  
3109.000000	0.004062  
3108.000000	0.003943  
3107.000000	0.003864  
3106.000000	0.003827  
3105.000000	0.003814  
3104.000000	0.003801  
3103.000000	0.003781  
3102.000000	0.003782  
3101.000000	0.003840  
3100.000000	0.003945  
3099.000000	0.004040  
3098.000000	0.004071  
3097.000000	0.004042  
3096.000000	0.003998  
3095.000000	0.003971  
3094.000000	0.003963  
3093.000000	0.003960  
3092.000000	0.003955  
3091.000000	0.003958  
3090.000000	0.003995  
3089.000000	0.004069  
3088.000000	0.004136  
3087.000000	0.004134  
3086.000000	0.004052  
3085.000000	0.003963  
3084.000000	0.003948  
3083.000000	0.004015  
3082.000000	0.004089  
3081.000000	0.004100  
3080.000000	0.004040  
3079.000000	0.003957  
3078.000000	0.003911  
3077.000000	0.003941  
3076.000000	0.004047  
3075.000000	0.004180  
3074.000000	0.004275  
3073.000000	0.004296  
3072.000000	0.004255  
3071.000000	0.004173  
3070.000000	0.004072  
3069.000000	0.004005  
3068.000000	0.004040  
3067.000000	0.004172  
3066.000000	0.004287  
3065.000000	0.004263  
3064.000000	0.004115  
3063.000000	0.003990  
3062.000000	0.004000  
3061.000000	0.004117  
3060.000000	0.004227  
3059.000000	0.004267  
3058.000000	0.004252  
3057.000000	0.004215  
3056.000000	0.004157  
3055.000000	0.004090  
3054.000000	0.004061  
3053.000000	0.004121  
3052.000000	0.004264  
3051.000000	0.004430  
3050.000000	0.004559  
3049.000000	0.004629  
3048.000000	0.004653  
3047.000000	0.004655  
3046.000000	0.004656  
3045.000000	0.004669  
3044.000000	0.004693  
3043.000000	0.004716  
3042.000000	0.004731  
3041.000000	0.004739  
3040.000000	0.004749  
3039.000000	0.004768  
3038.000000	0.004806  
3037.000000	0.004877  
3036.000000	0.004986  
3035.000000	0.005121  
3034.000000	0.005264  
3033.000000	0.005413  
3032.000000	0.005572  
3031.000000	0.005729  
3030.000000	0.005862  
3029.000000	0.005976  
3028.000000	0.006125  
3027.000000	0.006358  
3026.000000	0.006656  
3025.000000	0.006931  
3024.000000	0.007109  
3023.000000	0.007211  
3022.000000	0.007335  
3021.000000	0.007575  
3020.000000	0.007962  
3019.000000	0.008466  
3018.000000	0.009039  
3017.000000	0.009632  
3016.000000	0.010195  
3015.000000	0.010685  
3014.000000	0.011082  
3013.000000	0.011405  
3012.000000	0.011685  
3011.000000	0.011925  
3010.000000	0.012089  
3009.000000	0.012139  
3008.000000	0.012080  
3007.000000	0.011945  
3006.000000	0.011753  
3005.000000	0.011495  
3004.000000	0.011179  
3003.000000	0.010859  
3002.000000	0.010606  
3001.000000	0.010450  
3000.000000	0.010368  
2999.000000	0.010330  
2998.000000	0.010339  
2997.000000	0.010414  
2996.000000	0.010553  
2995.000000	0.010728  
2994.000000	0.010906  
2993.000000	0.011079  
2992.000000	0.011273  
2991.000000	0.011537  
2990.000000	0.011926  
2989.000000	0.012474  
2988.000000	0.013162  
2987.000000	0.013925  
2986.000000	0.014693  
2985.000000	0.015458  
2984.000000	0.016290  
2983.000000	0.017278  
2982.000000	0.018464  
2981.000000	0.019836  
2980.000000	0.021386  
2979.000000	0.023144  
2978.000000	0.025139  
2977.000000	0.027359  
2976.000000	0.029778  
2975.000000	0.032435  
2974.000000	0.035443  
2973.000000	0.038905  
2972.000000	0.042825  
2971.000000	0.047119  
2970.000000	0.051708  
2969.000000	0.056601  
2968.000000	0.061854  
2967.000000	0.067460  
2966.000000	0.073273  
2965.000000	0.079065  
2964.000000	0.084642  
2963.000000	0.089889  
2962.000000	0.094741  
2961.000000	0.099148  
2960.000000	0.103059  
2959.000000	0.106390  
2958.000000	0.108981  
2957.000000	0.110654  
2956.000000	0.111335  
2955.000000	0.111097  
2954.000000	0.110069  
2953.000000	0.108357  
2952.000000	0.106096  
2951.000000	0.103527  
2950.000000	0.100968  
2949.000000	0.098693  
2948.000000	0.096872  
2947.000000	0.095604  
2946.000000	0.094977  
2945.000000	0.095082  
2944.000000	0.095997  
2943.000000	0.097761  
2942.000000	0.100359  
2941.000000	0.103737  
2940.000000	0.107833  
2939.000000	0.112607  
2938.000000	0.118003  
2937.000000	0.123894  
2936.000000	0.130091  
2935.000000	0.136429  
2934.000000	0.142823  
2933.000000	0.149256  
2932.000000	0.155702  
2931.000000	0.162091  
2930.000000	0.168309  
2929.000000	0.174220  
2928.000000	0.179680  
2927.000000	0.184537  
2926.000000	0.188616  
2925.000000	0.191733  
2924.000000	0.193711  
2923.000000	0.194380  
2922.000000	0.193635  
2921.000000	0.191526  
2920.000000	0.188289  
2919.000000	0.184229  
2918.000000	0.179591  
2917.000000	0.174551  
2916.000000	0.169282  
2915.000000	0.163967  
2914.000000	0.158751  
2913.000000	0.153711  
2912.000000	0.148872  
2911.000000	0.144230  
2910.000000	0.139784  
2909.000000	0.135561  
2908.000000	0.131605  
2907.000000	0.127906  
2906.000000	0.124373  
2905.000000	0.120892  
2904.000000	0.117428  
2903.000000	0.114038  
2902.000000	0.110791  
2901.000000	0.107688  
2900.000000	0.104662  
2899.000000	0.101633  
2898.000000	0.098569  
2897.000000	0.095506  
2896.000000	0.092519  
2895.000000	0.089669  
2894.000000	0.086953  
2893.000000	0.084326  
2892.000000	0.081754  
2891.000000	0.079261  
2890.000000	0.076909  
2889.000000	0.074747  
2888.000000	0.072799  
2887.000000	0.071095  
2886.000000	0.069699  
2885.000000	0.068692  
2884.000000	0.068134  
2883.000000	0.068060  
2882.000000	0.068515  
2881.000000	0.069565  
2880.000000	0.071264  
2879.000000	0.073610  
2878.000000	0.076522  
2877.000000	0.079830  
2876.000000	0.083263  
2875.000000	0.086478  
2874.000000	0.089139  
2873.000000	0.091037  
2872.000000	0.092153  
2871.000000	0.092638  
2870.000000	0.092740  
2869.000000	0.092723  
2868.000000	0.092811  
2867.000000	0.093171  
2866.000000	0.093937  
2865.000000	0.095234  
2864.000000	0.097140  
2863.000000	0.099630  
2862.000000	0.102587  
2861.000000	0.105878  
2860.000000	0.109391  
2859.000000	0.112968  
2858.000000	0.116356  
2857.000000	0.119266  
2856.000000	0.121447  
2855.000000	0.122663  
2854.000000	0.122632  
2853.000000	0.121110  
2852.000000	0.118039  
2851.000000	0.113606  
2850.000000	0.108156  
2849.000000	0.102069  
2848.000000	0.095699  
2847.000000	0.089331  
2846.000000	0.083149  
2845.000000	0.077242  
2844.000000	0.071631  
2843.000000	0.066293  
2842.000000	0.061183  
2841.000000	0.056282  
2840.000000	0.051640  
2839.000000	0.047359  
2838.000000	0.043526  
2837.000000	0.040162  
2836.000000	0.037226  
2835.000000	0.034644  
2834.000000	0.032336  
2833.000000	0.030238  
2832.000000	0.028318  
2831.000000	0.026580  
2830.000000	0.025029  
2829.000000	0.023633  
2828.000000	0.022346  
2827.000000	0.021141  
2826.000000	0.020032  
2825.000000	0.019043  
2824.000000	0.018183  
2823.000000	0.017432  
2822.000000	0.016752  
2821.000000	0.016116  
2820.000000	0.015519  
2819.000000	0.014972  
2818.000000	0.014481  
2817.000000	0.014030  
2816.000000	0.013600  
2815.000000	0.013181  
2814.000000	0.012766  
2813.000000	0.012348  
2812.000000	0.011938  
2811.000000	0.011563  
2810.000000	0.011244  
2809.000000	0.010967  
2808.000000	0.010698  
2807.000000	0.010429  
2806.000000	0.010181  
2805.000000	0.009973  
2804.000000	0.009806  
2803.000000	0.009660  
2802.000000	0.009498  
2801.000000	0.009280  
2800.000000	0.009007  
2799.000000	0.008748  
2798.000000	0.008584  
2797.000000	0.008522  
2796.000000	0.008482  
2795.000000	0.008397  
2794.000000	0.008272  
2793.000000	0.008149  
2792.000000	0.008038  
2791.000000	0.007912  
2790.000000	0.007760  
2789.000000	0.007603  
2788.000000	0.007463  
2787.000000	0.007336  
2786.000000	0.007199  
2785.000000	0.007031  
2784.000000	0.006830  
2783.000000	0.006624  
2782.000000	0.006458  
2781.000000	0.006353  
2780.000000	0.006287  
2779.000000	0.006213  
2778.000000	0.006104  
2777.000000	0.005957  
2776.000000	0.005780  
2775.000000	0.005593  
2774.000000	0.005432  
2773.000000	0.005329  
2772.000000	0.005278  
2771.000000	0.005240  
2770.000000	0.005190  
2769.000000	0.005140  
2768.000000	0.005121  
2767.000000	0.005147  
2766.000000	0.005199  
2765.000000	0.005241  
2764.000000	0.005249  
2763.000000	0.005221  
2762.000000	0.005165  
2761.000000	0.005087  
2760.000000	0.004984  
2759.000000	0.004863  
2758.000000	0.004748  
2757.000000	0.004668  
2756.000000	0.004641  
2755.000000	0.004656  
2754.000000	0.004675  
2753.000000	0.004656  
2752.000000	0.004587  
2751.000000	0.004507  
2750.000000	0.004473  
2749.000000	0.004502  
2748.000000	0.004557  
2747.000000	0.004585  
2746.000000	0.004563  
2745.000000	0.004501  
2744.000000	0.004421  
2743.000000	0.004359  
2742.000000	0.004349  
2741.000000	0.004399  
2740.000000	0.004485  
2739.000000	0.004575  
2738.000000	0.004655  
2737.000000	0.004720  
2736.000000	0.004755  
2735.000000	0.004755  
2734.000000	0.004749  
2733.000000	0.004772  
2732.000000	0.004831  
2731.000000	0.004893  
2730.000000	0.004921  
2729.000000	0.004898  
2728.000000	0.004829  
2727.000000	0.004745  
2726.000000	0.004682  
2725.000000	0.004660  
2724.000000	0.004668  
2723.000000	0.004686  
2722.000000	0.004710  
2721.000000	0.004739  
2720.000000	0.004753  
2719.000000	0.004722  
2718.000000	0.004638  
2717.000000	0.004528  
2716.000000	0.004434  
2715.000000	0.004384  
2714.000000	0.004370  
2713.000000	0.004363  
2712.000000	0.004321  
2711.000000	0.004227  
2710.000000	0.004095  
2709.000000	0.003950  
2708.000000	0.003805  
2707.000000	0.003672  
2706.000000	0.003582  
2705.000000	0.003558  
2704.000000	0.003586  
2703.000000	0.003620  
2702.000000	0.003633  
2701.000000	0.003628  
2700.000000	0.003610  
2699.000000	0.003576  
2698.000000	0.003535  
2697.000000	0.003524  
2696.000000	0.003582  
2695.000000	0.003707  
2694.000000	0.003853  
2693.000000	0.003963  
2692.000000	0.003993  
2691.000000	0.003929  
2690.000000	0.003801  
2689.000000	0.003671  
2688.000000	0.003605  
2687.000000	0.003614  
2686.000000	0.003643  
2685.000000	0.003636  
2684.000000	0.003598  
2683.000000	0.003594  
2682.000000	0.003664  
2681.000000	0.003769  
2680.000000	0.003826  
2679.000000	0.003802  
2678.000000	0.003736  
2677.000000	0.003687  
2676.000000	0.003674  
2675.000000	0.003697  
2674.000000	0.003756  
2673.000000	0.003840  
2672.000000	0.003905  
2671.000000	0.003905  
2670.000000	0.003836  
2669.000000	0.003737  
2668.000000	0.003649  
2667.000000	0.003588  
2666.000000	0.003555  
2665.000000	0.003554  
2664.000000	0.003585  
2663.000000	0.003634  
2662.000000	0.003668  
2661.000000	0.003650  
2660.000000	0.003561  
2659.000000	0.003434  
2658.000000	0.003339  
2657.000000	0.003338  
2656.000000	0.003420  
2655.000000	0.003506  
2654.000000	0.003515  
2653.000000	0.003427  
2652.000000	0.003300  
2651.000000	0.003216  
2650.000000	0.003197  
2649.000000	0.003184  
2648.000000	0.003100  
2647.000000	0.002949  
2646.000000	0.002818  
2645.000000	0.002775  
2644.000000	0.002805  
2643.000000	0.002852  
2642.000000	0.002901  
2641.000000	0.002964  
2640.000000	0.003014  
2639.000000	0.002989  
2638.000000	0.002868  
2637.000000	0.002705  
2636.000000	0.002573  
2635.000000	0.002499  
2634.000000	0.002481  
2633.000000	0.002506  
2632.000000	0.002562  
2631.000000	0.002626  
2630.000000	0.002668  
2629.000000	0.002675  
2628.000000	0.002650  
2627.000000	0.002622  
2626.000000	0.002617  
2625.000000	0.002632  
2624.000000	0.002626  
2623.000000	0.002575  
2622.000000	0.002501  
2621.000000	0.002443  
2620.000000	0.002403  
2619.000000	0.002360  
2618.000000	0.002328  
2617.000000	0.002341  
2616.000000	0.002399  
2615.000000	0.002461  
2614.000000	0.002505  
2613.000000	0.002541  
2612.000000	0.002560  
2611.000000	0.002513  
2610.000000	0.002383  
2609.000000	0.002240  
2608.000000	0.002191  
2607.000000	0.002283  
2606.000000	0.002465  
2605.000000	0.002629  
2604.000000	0.002668  
2603.000000	0.002535  
2602.000000	0.002285  
2601.000000	0.002044  
2600.000000	0.001917  
2599.000000	0.001906  
2598.000000	0.001936  
2597.000000	0.001947  
2596.000000	0.001940  
2595.000000	0.001949  
2594.000000	0.001988  
2593.000000	0.002023  
2592.000000	0.002016  
2591.000000	0.001972  
2590.000000	0.001962  
2589.000000	0.002047  
2588.000000	0.002201  
2587.000000	0.002320  
2586.000000	0.002336  
2585.000000	0.002273  
2584.000000	0.002186  
2583.000000	0.002075  
2582.000000	0.001924  
2581.000000	0.001771  
2580.000000	0.001693  
2579.000000	0.001706  
2578.000000	0.001737  
2577.000000	0.001718  
2576.000000	0.001677  
2575.000000	0.001691  
2574.000000	0.001784  
2573.000000	0.001891  
2572.000000	0.001904  
2571.000000	0.001751  
2570.000000	0.001448  
2569.000000	0.001109  
2568.000000	0.000895  
2567.000000	0.000915  
2566.000000	0.001144  
2565.000000	0.001431  
2564.000000	0.001617  
2563.000000	0.001631  
2562.000000	0.001515  
2561.000000	0.001371  
2560.000000	0.001307  
2559.000000	0.001387  
2558.000000	0.001594  
2557.000000	0.001815  
2556.000000	0.001924  
2555.000000	0.001876  
2554.000000	0.001738  
2553.000000	0.001606  
2552.000000	0.001528  
2551.000000	0.001487  
2550.000000	0.001446  
2549.000000	0.001377  
2548.000000	0.001273  
2547.000000	0.001170  
2546.000000	0.001134  
2545.000000	0.001198  
2544.000000	0.001320  
2543.000000	0.001427  
2542.000000	0.001485  
2541.000000	0.001512  
2540.000000	0.001516  
2539.000000	0.001475  
2538.000000	0.001372  
2537.000000	0.001232  
2536.000000	0.001103  
2535.000000	0.001008  
2534.000000	0.000939  
2533.000000	0.000874  
2532.000000	0.000817  
2531.000000	0.000822  
2530.000000	0.000970  
2529.000000	0.001277  
2528.000000	0.001630  
2527.000000	0.001843  
2526.000000	0.001809  
2525.000000	0.001583  
2524.000000	0.001321  
2523.000000	0.001146  
2522.000000	0.001090  
2521.000000	0.001118  
2520.000000	0.001169  
2519.000000	0.001189  
2518.000000	0.001162  
2517.000000	0.001121  
2516.000000	0.001121  
2515.000000	0.001180  
2514.000000	0.001261  
2513.000000	0.001304  
2512.000000	0.001266  
2511.000000	0.001142  
2510.000000	0.000974  
2509.000000	0.000848  
2508.000000	0.000842  
2507.000000	0.000958  
2506.000000	0.001102  
2505.000000	0.001176  
2504.000000	0.001162  
2503.000000	0.001116  
2502.000000	0.001089  
2501.000000	0.001096  
2500.000000	0.001144  
2499.000000	0.001228  
2498.000000	0.001294  
2497.000000	0.001271  
2496.000000	0.001155  
2495.000000	0.001033  
2494.000000	0.000965  
2493.000000	0.000911  
2492.000000	0.000810  
2491.000000	0.000697  
2490.000000	0.000665  
2489.000000	0.000747  
2488.000000	0.000882  
2487.000000	0.001012  
2486.000000	0.001111  
2485.000000	0.001141  
2484.000000	0.001051  
2483.000000	0.000862  
2482.000000	0.000683  
2481.000000	0.000600  
2480.000000	0.000597  
2479.000000	0.000622  
2478.000000	0.000674  
2477.000000	0.000766  
2476.000000	0.000855  
2475.000000	0.000858  
2474.000000	0.000755  
2473.000000	0.000611  
2472.000000	0.000511  
2471.000000	0.000503  
2470.000000	0.000584  
2469.000000	0.000702  
2468.000000	0.000773  
2467.000000	0.000739  
2466.000000	0.000609  
2465.000000	0.000447  
2464.000000	0.000308  
2463.000000	0.000223  
2462.000000	0.000204  
2461.000000	0.000239  
2460.000000	0.000287  
2459.000000	0.000308  
2458.000000	0.000302  
2457.000000	0.000292  
2456.000000	0.000283  
2455.000000	0.000267  
2454.000000	0.000257  
2453.000000	0.000279  
2452.000000	0.000342  
2451.000000	0.000428  
2450.000000	0.000531  
2449.000000	0.000652  
2448.000000	0.000757  
2447.000000	0.000774  
2446.000000	0.000652  
2445.000000	0.000430  
2444.000000	0.000237  
2443.000000	0.000214  
2442.000000	0.000402  
2441.000000	0.000683  
2440.000000	0.000861  
2439.000000	0.000835  
2438.000000	0.000705  
2437.000000	0.000663  
2436.000000	0.000787  
2435.000000	0.000955  
2434.000000	0.000984  
2433.000000	0.000821  
2432.000000	0.000605  
2431.000000	0.000527  
2430.000000	0.000659  
2429.000000	0.000885  
2428.000000	0.001013  
2427.000000	0.000940  
2426.000000	0.000737  
2425.000000	0.000565  
2424.000000	0.000541  
2423.000000	0.000653  
2422.000000	0.000805  
2421.000000	0.000901  
2420.000000	0.000903  
2419.000000	0.000837  
2418.000000	0.000745  
2417.000000	0.000659  
2416.000000	0.000597  
2415.000000	0.000586  
2414.000000	0.000653  
2413.000000	0.000785  
2412.000000	0.000908  
2411.000000	0.000931  
2410.000000	0.000821  
2409.000000	0.000650  
2408.000000	0.000542  
2407.000000	0.000555  
2406.000000	0.000614  
2405.000000	0.000584  
2404.000000	0.000439  
2403.000000	0.000295  
2402.000000	0.000275  
2401.000000	0.000369  
2400.000000	0.000480  
2399.000000	0.000576  
2398.000000	0.000703  
2397.000000	0.000865  
2396.000000	0.000973  
2395.000000	0.000955  
2394.000000	0.000834  
2393.000000	0.000695  
2392.000000	0.000597  
2391.000000	0.000567  
2390.000000	0.000606  
2389.000000	0.000666  
2388.000000	0.000668  
2387.000000	0.000586  
2386.000000	0.000473  
2385.000000	0.000377  
2384.000000	0.000296  
2383.000000	0.000235  
2382.000000	0.000252  
2381.000000	0.000376  
2380.000000	0.000518  
2379.000000	0.000549  
2378.000000	0.000456  
2377.000000	0.000323  
2376.000000	0.000162  
2375.000000	-0.000077 
2374.000000	-0.000323 
2373.000000	-0.000355 
2372.000000	-0.000098 
2371.000000	0.000233  
2370.000000	0.000418  
2369.000000	0.000510  
2368.000000	0.000695  
2367.000000	0.001014  
2366.000000	0.001393  
2365.000000	0.001744  
2364.000000	0.001867  
2363.000000	0.001464  
2362.000000	0.000515  
2361.000000	-0.000535 
2360.000000	-0.001187 
2359.000000	-0.001319 
2358.000000	-0.001081 
2357.000000	-0.000628 
2356.000000	-0.000105 
2355.000000	0.000348  
2354.000000	0.000691  
2353.000000	0.000899  
2352.000000	0.000882  
2351.000000	0.000624  
2350.000000	0.000301  
2349.000000	0.000139  
2348.000000	0.000212  
2347.000000	0.000390  
2346.000000	0.000469  
2345.000000	0.000384  
2344.000000	0.000177  
2343.000000	-0.000118 
2342.000000	-0.000386 
2341.000000	-0.000442 
2340.000000	-0.000241 
2339.000000	0.000051  
2338.000000	0.000254  
2337.000000	0.000298  
2336.000000	0.000191  
2335.000000	-0.000012 
2334.000000	-0.000203 
2333.000000	-0.000292 
2332.000000	-0.000295 
2331.000000	-0.000265 
2330.000000	-0.000194 
2329.000000	-0.000067 
2328.000000	0.000036  
2327.000000	0.000021  
2326.000000	-0.000100 
2325.000000	-0.000219 
2324.000000	-0.000247 
2323.000000	-0.000172 
2322.000000	-0.000035 
2321.000000	0.000088  
2320.000000	0.000090  
2319.000000	-0.000076 
2318.000000	-0.000317 
2317.000000	-0.000460 
2316.000000	-0.000437 
2315.000000	-0.000339 
2314.000000	-0.000313 
2313.000000	-0.000411 
2312.000000	-0.000556 
2311.000000	-0.000612 
2310.000000	-0.000505 
2309.000000	-0.000286 
2308.000000	-0.000102 
2307.000000	-0.000072 
2306.000000	-0.000197 
2305.000000	-0.000384 
2304.000000	-0.000531 
2303.000000	-0.000585 
2302.000000	-0.000558 
2301.000000	-0.000512 
2300.000000	-0.000523 
2299.000000	-0.000622 
2298.000000	-0.000761 
2297.000000	-0.000862 
2296.000000	-0.000884 
2295.000000	-0.000816 
2294.000000	-0.000662 
2293.000000	-0.000458 
2292.000000	-0.000296 
2291.000000	-0.000245 
2290.000000	-0.000261 
2289.000000	-0.000234 
2288.000000	-0.000138 
2287.000000	-0.000071 
2286.000000	-0.000127 
2285.000000	-0.000281 
2284.000000	-0.000416 
2283.000000	-0.000441 
2282.000000	-0.000342 
2281.000000	-0.000177 
2280.000000	-0.000034 
2279.000000	0.000023  
2278.000000	0.000003  
2277.000000	-0.000028 
2276.000000	-0.000012 
2275.000000	0.000060  
2274.000000	0.000157  
2273.000000	0.000225  
2272.000000	0.000205  
2271.000000	0.000097  
2270.000000	0.000019  
2269.000000	0.000138  
2268.000000	0.000472  
2267.000000	0.000823  
2266.000000	0.000940  
2265.000000	0.000729  
2264.000000	0.000285  
2263.000000	-0.000239 
2262.000000	-0.000729 
2261.000000	-0.001069 
2260.000000	-0.001142 
2259.000000	-0.000913 
2258.000000	-0.000519 
2257.000000	-0.000222 
2256.000000	-0.000207 
2255.000000	-0.000405 
2254.000000	-0.000549 
2253.000000	-0.000420 
2252.000000	-0.000048 
2251.000000	0.000333  
2250.000000	0.000490  
2249.000000	0.000361  
2248.000000	0.000075  
2247.000000	-0.000162 
2246.000000	-0.000236 
2245.000000	-0.000193 
2244.000000	-0.000151 
2243.000000	-0.000133 
2242.000000	-0.000058 
2241.000000	0.000099  
2240.000000	0.000240  
2239.000000	0.000278  
2238.000000	0.000267  
2237.000000	0.000301  
2236.000000	0.000333  
2235.000000	0.000221  
2234.000000	-0.000055 
2233.000000	-0.000323 
2232.000000	-0.000372 
2231.000000	-0.000160 
2230.000000	0.000152  
2229.000000	0.000303  
2228.000000	0.000113  
2227.000000	-0.000341 
2226.000000	-0.000755 
2225.000000	-0.000849 
2224.000000	-0.000627 
2223.000000	-0.000322 
2222.000000	-0.000154 
2221.000000	-0.000215 
2220.000000	-0.000508 
2219.000000	-0.000930 
2218.000000	-0.001239 
2217.000000	-0.001192 
2216.000000	-0.000794 
2215.000000	-0.000289 
2214.000000	0.000100  
2213.000000	0.000328  
2212.000000	0.000426  
2211.000000	0.000415  
2210.000000	0.000365  
2209.000000	0.000401  
2208.000000	0.000554  
2207.000000	0.000684  
2206.000000	0.000644  
2205.000000	0.000455  
2204.000000	0.000248  
2203.000000	0.000106  
2202.000000	0.000046  
2201.000000	0.000081  
2200.000000	0.000227  
2199.000000	0.000452  
2198.000000	0.000679  
2197.000000	0.000799  
2196.000000	0.000697  
2195.000000	0.000344  
2194.000000	-0.000086 
2193.000000	-0.000288 
2192.000000	-0.000113 
2191.000000	0.000257  
2190.000000	0.000500  
2189.000000	0.000469  
2188.000000	0.000268  
2187.000000	0.000060  
2186.000000	-0.000079 
2185.000000	-0.000144 
2184.000000	-0.000148 
2183.000000	-0.000136 
2182.000000	-0.000163 
2181.000000	-0.000230 
2180.000000	-0.000261 
2179.000000	-0.000160 
2178.000000	0.000110  
2177.000000	0.000501  
2176.000000	0.000884  
2175.000000	0.001107  
2174.000000	0.001081  
2173.000000	0.000829  
2172.000000	0.000462  
2171.000000	0.000126  
2170.000000	-0.000036 
2169.000000	0.000065  
2168.000000	0.000386  
2167.000000	0.000699  
2166.000000	0.000745  
2165.000000	0.000479  
2164.000000	0.000137  
2163.000000	-0.000032 
2162.000000	-0.000042 
2161.000000	-0.000099 
2160.000000	-0.000274 
2159.000000	-0.000395 
2158.000000	-0.000353 
2157.000000	-0.000312 
2156.000000	-0.000448 
2155.000000	-0.000675 
2154.000000	-0.000775 
2153.000000	-0.000681 
2152.000000	-0.000489 
2151.000000	-0.000268 
2150.000000	-0.000030 
2149.000000	0.000147  
2148.000000	0.000173  
2147.000000	0.000137  
2146.000000	0.000255  
2145.000000	0.000570  
2144.000000	0.000862  
2143.000000	0.000931  
2142.000000	0.000811  
2141.000000	0.000643  
2140.000000	0.000484  
2139.000000	0.000327  
2138.000000	0.000187  
2137.000000	0.000051  
2136.000000	-0.000146 
2135.000000	-0.000398 
2134.000000	-0.000559 
2133.000000	-0.000524 
2132.000000	-0.000381 
2131.000000	-0.000288 
2130.000000	-0.000277 
2129.000000	-0.000284 
2128.000000	-0.000281 
2127.000000	-0.000276 
2126.000000	-0.000244 
2125.000000	-0.000158 
2124.000000	-0.000062 
2123.000000	-0.000006 
2122.000000	0.000051  
2121.000000	0.000169  
2120.000000	0.000284  
2119.000000	0.000274  
2118.000000	0.000135  
2117.000000	0.000002  
2116.000000	-0.000019 
2115.000000	0.000054  
2114.000000	0.000170  
2113.000000	0.000288  
2112.000000	0.000350  
2111.000000	0.000292  
2110.000000	0.000123  
2109.000000	-0.000058 
2108.000000	-0.000174 
2107.000000	-0.000219 
2106.000000	-0.000211 
2105.000000	-0.000153 
2104.000000	-0.000060 
2103.000000	0.000046  
2102.000000	0.000172  
2101.000000	0.000313  
2100.000000	0.000395  
2099.000000	0.000331  
2098.000000	0.000145  
2097.000000	-0.000032 
2096.000000	-0.000106 
2095.000000	-0.000077 
2094.000000	0.000027  
2093.000000	0.000196  
2092.000000	0.000387  
2091.000000	0.000537  
2090.000000	0.000618  
2089.000000	0.000644  
2088.000000	0.000587  
2087.000000	0.000390  
2086.000000	0.000080  
2085.000000	-0.000207 
2084.000000	-0.000366 
2083.000000	-0.000415 
2082.000000	-0.000428 
2081.000000	-0.000421 
2080.000000	-0.000343 
2079.000000	-0.000157 
2078.000000	0.000097  
2077.000000	0.000292  
2076.000000	0.000270  
2075.000000	0.000002  
2074.000000	-0.000350 
2073.000000	-0.000570 
2072.000000	-0.000601 
2071.000000	-0.000564 
2070.000000	-0.000582 
2069.000000	-0.000670 
2068.000000	-0.000784 
2067.000000	-0.000881 
2066.000000	-0.000902 
2065.000000	-0.000812 
2064.000000	-0.000670 
2063.000000	-0.000540 
2062.000000	-0.000361 
2061.000000	-0.000019 
2060.000000	0.000414  
2059.000000	0.000670  
2058.000000	0.000563  
2057.000000	0.000202  
2056.000000	-0.000153 
2055.000000	-0.000350 
2054.000000	-0.000410 
2053.000000	-0.000428 
2052.000000	-0.000470 
2051.000000	-0.000521 
2050.000000	-0.000495 
2049.000000	-0.000334 
2048.000000	-0.000131 
2047.000000	-0.000034 
2046.000000	-0.000043 
2045.000000	-0.000020 
2044.000000	0.000090  
2043.000000	0.000189  
2042.000000	0.000199  
2041.000000	0.000156  
2040.000000	0.000091  
2039.000000	0.000000  
2038.000000	-0.000028 
2037.000000	0.000162  
2036.000000	0.000512  
2035.000000	0.000698  
2034.000000	0.000541  
2033.000000	0.000294  
2032.000000	0.000311  
2031.000000	0.000548  
2030.000000	0.000635  
2029.000000	0.000362  
2028.000000	-0.000066 
2027.000000	-0.000270 
2026.000000	-0.000058 
2025.000000	0.000438  
2024.000000	0.000892  
2023.000000	0.001052  
2022.000000	0.000945  
2021.000000	0.000815  
2020.000000	0.000857  
2019.000000	0.001012  
2018.000000	0.001029  
2017.000000	0.000691  
2016.000000	0.000050  
2015.000000	-0.000553 
2014.000000	-0.000738 
2013.000000	-0.000430 
2012.000000	0.000013  
2011.000000	0.000152  
2010.000000	-0.000056 
2009.000000	-0.000269 
2008.000000	-0.000241 
2007.000000	-0.000088 
2006.000000	0.000008  
2005.000000	0.000070  
2004.000000	0.000173  
2003.000000	0.000236  
2002.000000	0.000148  
2001.000000	-0.000013 
2000.000000	-0.000050 
1999.000000	0.000105  
1998.000000	0.000322  
1997.000000	0.000430  
1996.000000	0.000365  
1995.000000	0.000179  
1994.000000	0.000006  
1993.000000	-0.000004 
1992.000000	0.000178  
1991.000000	0.000424  
1990.000000	0.000592  
1989.000000	0.000659  
1988.000000	0.000647  
1987.000000	0.000539  
1986.000000	0.000314  
1985.000000	0.000028  
1984.000000	-0.000210 
1983.000000	-0.000326 
1982.000000	-0.000306 
1981.000000	-0.000180 
1980.000000	-0.000008 
1979.000000	0.000141  
1978.000000	0.000216  
1977.000000	0.000185  
1976.000000	0.000035  
1975.000000	-0.000176 
1974.000000	-0.000309 
1973.000000	-0.000251 
1972.000000	-0.000040 
1971.000000	0.000218  
1970.000000	0.000506  
1969.000000	0.000849  
1968.000000	0.001139  
1967.000000	0.001188  
1966.000000	0.001012  
1965.000000	0.000861  
1964.000000	0.000887  
1963.000000	0.000997  
1962.000000	0.001044  
1961.000000	0.001028  
1960.000000	0.001030  
1959.000000	0.001050  
1958.000000	0.001015  
1957.000000	0.000884  
1956.000000	0.000670  
1955.000000	0.000421  
1954.000000	0.000225  
1953.000000	0.000164  
1952.000000	0.000188  
1951.000000	0.000118  
1950.000000	-0.000139 
1949.000000	-0.000427 
1948.000000	-0.000463 
1947.000000	-0.000133 
1946.000000	0.000381  
1945.000000	0.000787  
1944.000000	0.000908  
1943.000000	0.000772  
1942.000000	0.000516  
1941.000000	0.000264  
1940.000000	0.000096  
1939.000000	0.000103  
1938.000000	0.000329  
1937.000000	0.000650  
1936.000000	0.000814  
1935.000000	0.000701  
1934.000000	0.000465  
1933.000000	0.000348  
1932.000000	0.000396  
1931.000000	0.000472  
1930.000000	0.000496  
1929.000000	0.000502  
1928.000000	0.000506  
1927.000000	0.000449  
1926.000000	0.000327  
1925.000000	0.000237  
1924.000000	0.000250  
1923.000000	0.000319  
1922.000000	0.000348  
1921.000000	0.000321  
1920.000000	0.000284  
1919.000000	0.000288  
1918.000000	0.000400  
1917.000000	0.000616  
1916.000000	0.000794  
1915.000000	0.000783  
1914.000000	0.000580  
1913.000000	0.000361  
1912.000000	0.000314  
1911.000000	0.000467  
1910.000000	0.000702  
1909.000000	0.000885  
1908.000000	0.000939  
1907.000000	0.000825  
1906.000000	0.000560  
1905.000000	0.000244  
1904.000000	0.000008  
1903.000000	-0.000077 
1902.000000	-0.000031 
1901.000000	0.000064  
1900.000000	0.000127  
1899.000000	0.000119  
1898.000000	0.000070  
1897.000000	0.000035  
1896.000000	0.000027  
1895.000000	0.000022  
1894.000000	0.000029  
1893.000000	0.000087  
1892.000000	0.000202  
1891.000000	0.000322  
1890.000000	0.000384  
1889.000000	0.000367  
1888.000000	0.000295  
1887.000000	0.000224  
1886.000000	0.000212  
1885.000000	0.000263  
1884.000000	0.000291  
1883.000000	0.000212  
1882.000000	0.000073  
1881.000000	0.000001  
1880.000000	0.000040  
1879.000000	0.000113  
1878.000000	0.000160  
1877.000000	0.000227  
1876.000000	0.000352  
1875.000000	0.000466  
1874.000000	0.000486  
1873.000000	0.000425  
1872.000000	0.000344  
1871.000000	0.000263  
1870.000000	0.000176  
1869.000000	0.000145  
1868.000000	0.000200  
1867.000000	0.000251  
1866.000000	0.000228  
1865.000000	0.000161  
1864.000000	0.000101  
1863.000000	0.000061  
1862.000000	0.000046  
1861.000000	0.000066  
1860.000000	0.000100  
1859.000000	0.000089  
1858.000000	0.000019  
1857.000000	-0.000032 
1856.000000	-0.000001 
1855.000000	0.000084  
1854.000000	0.000158  
1853.000000	0.000208  
1852.000000	0.000277  
1851.000000	0.000363  
1850.000000	0.000396  
1849.000000	0.000357  
1848.000000	0.000316  
1847.000000	0.000338  
1846.000000	0.000382  
1845.000000	0.000358  
1844.000000	0.000259  
1843.000000	0.000166  
1842.000000	0.000138  
1841.000000	0.000164  
1840.000000	0.000191  
1839.000000	0.000155  
1838.000000	0.000057  
1837.000000	-0.000038 
1836.000000	-0.000073 
1835.000000	-0.000049 
1834.000000	-0.000004 
1833.000000	0.000044  
1832.000000	0.000103  
1831.000000	0.000161  
1830.000000	0.000199  
1829.000000	0.000216  
1828.000000	0.000215  
1827.000000	0.000204  
1826.000000	0.000196  
1825.000000	0.000231  
1824.000000	0.000312  
1823.000000	0.000357  
1822.000000	0.000303  
1821.000000	0.000179  
1820.000000	0.000083  
1819.000000	0.000080  
1818.000000	0.000157  
1817.000000	0.000256  
1816.000000	0.000315  
1815.000000	0.000314  
1814.000000	0.000281  
1813.000000	0.000267  
1812.000000	0.000296  
1811.000000	0.000334  
1810.000000	0.000348  
1809.000000	0.000331  
1808.000000	0.000289  
1807.000000	0.000240  
1806.000000	0.000234  
1805.000000	0.000322  
1804.000000	0.000483  
1803.000000	0.000633  
1802.000000	0.000694  
1801.000000	0.000685  
1800.000000	0.000670  
1799.000000	0.000660  
1798.000000	0.000651  
1797.000000	0.000665  
1796.000000	0.000712  
1795.000000	0.000754  
1794.000000	0.000734  
1793.000000	0.000685  
1792.000000	0.000705  
1791.000000	0.000781  
1790.000000	0.000839  
1789.000000	0.000878  
1788.000000	0.000908  
1787.000000	0.000920  
1786.000000	0.000920  
1785.000000	0.000950  
1784.000000	0.001021  
1783.000000	0.001095  
1782.000000	0.001097  
1781.000000	0.001043  
1780.000000	0.001038  
1779.000000	0.001107  
1778.000000	0.001185  
1777.000000	0.001222  
1776.000000	0.001247  
1775.000000	0.001299  
1774.000000	0.001342  
1773.000000	0.001361  
1772.000000	0.001442  
1771.000000	0.001579  
1770.000000	0.001730  
1769.000000	0.001923  
1768.000000	0.002126  
1767.000000	0.002258  
1766.000000	0.002319  
1765.000000	0.002422  
1764.000000	0.002656  
1763.000000	0.002985  
1762.000000	0.003289  
1761.000000	0.003541  
1760.000000	0.003818  
1759.000000	0.004178  
1758.000000	0.004626  
1757.000000	0.005190  
1756.000000	0.005885  
1755.000000	0.006646  
1754.000000	0.007483  
1753.000000	0.008570  
1752.000000	0.010173  
1751.000000	0.012431  
1750.000000	0.015382  
1749.000000	0.019166  
1748.000000	0.023642  
1747.000000	0.028264  
1746.000000	0.032836  
1745.000000	0.037653  
1744.000000	0.042597  
1743.000000	0.046776  
1742.000000	0.049459  
1741.000000	0.050537  
1740.000000	0.049972  
1739.000000	0.048035  
1738.000000	0.045622  
1737.000000	0.043272  
1736.000000	0.040502  
1735.000000	0.036205  
1734.000000	0.030866  
1733.000000	0.026952  
1732.000000	0.024811  
1731.000000	0.023405  
1730.000000	0.022282  
1729.000000	0.021394  
1728.000000	0.020755  
1727.000000	0.020360  
1726.000000	0.020178  
1725.000000	0.020131  
1724.000000	0.020063  
1723.000000	0.019869  
1722.000000	0.019589  
1721.000000	0.019279  
1720.000000	0.018877  
1719.000000	0.018199  
1718.000000	0.017220  
1717.000000	0.016211  
1716.000000	0.015220  
1715.000000	0.014161  
1714.000000	0.013117  
1713.000000	0.012165  
1712.000000	0.011265  
1711.000000	0.010366  
1710.000000	0.009490  
1709.000000	0.008686  
1708.000000	0.007941  
1707.000000	0.007159  
1706.000000	0.006353  
1705.000000	0.005736  
1704.000000	0.005409  
1703.000000	0.005289  
1702.000000	0.005200  
1701.000000	0.004887  
1700.000000	0.004388  
1699.000000	0.004039  
1698.000000	0.003950  
1697.000000	0.003920  
1696.000000	0.003694  
1695.000000	0.003341  
1694.000000	0.003104  
1693.000000	0.003043  
1692.000000	0.003034  
1691.000000	0.002961  
1690.000000	0.002819  
1689.000000	0.002665  
1688.000000	0.002556  
1687.000000	0.002514  
1686.000000	0.002516  
1685.000000	0.002502  
1684.000000	0.002508  
1683.000000	0.002521  
1682.000000	0.002567  
1681.000000	0.002627  
1680.000000	0.002593  
1679.000000	0.002484  
1678.000000	0.002431  
1677.000000	0.002493  
1676.000000	0.002563  
1675.000000	0.002540  
1674.000000	0.002447  
1673.000000	0.002379  
1672.000000	0.002337  
1671.000000	0.002289  
1670.000000	0.002312  
1669.000000	0.002437  
1668.000000	0.002517  
1667.000000	0.002501  
1666.000000	0.002456  
1665.000000	0.002434  
1664.000000	0.002436  
1663.000000	0.002514  
1662.000000	0.002710  
1661.000000	0.002929  
1660.000000	0.003077  
1659.000000	0.003127  
1658.000000	0.003114  
1657.000000	0.003108  
1656.000000	0.003175  
1655.000000	0.003225  
1654.000000	0.003168  
1653.000000	0.003330  
1652.000000	0.003486  
1651.000000	0.003472  
1650.000000	0.003493  
1649.000000	0.003561  
1648.000000	0.003541  
1647.000000	0.003440  
1646.000000	0.003420  
1645.000000	0.003445  
1644.000000	0.003432  
1643.000000	0.003395  
1642.000000	0.003379  
1641.000000	0.003405  
1640.000000	0.003453  
1639.000000	0.003508  
1638.000000	0.003602  
1637.000000	0.003734  
1636.000000	0.003794  
1635.000000	0.003634  
1634.000000	0.003383  
1633.000000	0.003244  
1632.000000	0.003193  
1631.000000	0.003127  
1630.000000	0.002993  
1629.000000	0.002820  
1628.000000	0.002669  
1627.000000	0.002592  
1626.000000	0.002591  
1625.000000	0.002628  
1624.000000	0.002635  
1623.000000	0.002602  
1622.000000	0.002573  
1621.000000	0.002572  
1620.000000	0.002602  
1619.000000	0.002631  
1618.000000	0.002627  
1617.000000	0.002617  
1616.000000	0.002609  
1615.000000	0.002548  
1614.000000	0.002486  
1613.000000	0.002475  
1612.000000	0.002491  
1611.000000	0.002506  
1610.000000	0.002517  
1609.000000	0.002525  
1608.000000	0.002522  
1607.000000	0.002525  
1606.000000	0.002542  
1605.000000	0.002552  
1604.000000	0.002521  
1603.000000	0.002447  
1602.000000	0.002369  
1601.000000	0.002318  
1600.000000	0.002269  
1599.000000	0.002182  
1598.000000	0.002061  
1597.000000	0.001963  
1596.000000	0.001942  
1595.000000	0.002012  
1594.000000	0.002135  
1593.000000	0.002242  
1592.000000	0.002297  
1591.000000	0.002329  
1590.000000	0.002390  
1589.000000	0.002480  
1588.000000	0.002543  
1587.000000	0.002556  
1586.000000	0.002560  
1585.000000	0.002580  
1584.000000	0.002613  
1583.000000	0.002651  
1582.000000	0.002688  
1581.000000	0.002709  
1580.000000	0.002714  
1579.000000	0.002717  
1578.000000	0.002714  
1577.000000	0.002705  
1576.000000	0.002715  
1575.000000	0.002714  
1574.000000	0.002696  
1573.000000	0.002706  
1572.000000	0.002714  
1571.000000	0.002671  
1570.000000	0.002670  
1569.000000	0.002799  
1568.000000	0.002944  
1567.000000	0.003002  
1566.000000	0.002984  
1565.000000	0.002892  
1564.000000	0.002746  
1563.000000	0.002589  
1562.000000	0.002519  
1561.000000	0.002571  
1560.000000	0.002619  
1559.000000	0.002481  
1558.000000	0.002289  
1557.000000	0.002204  
1556.000000	0.002274  
1555.000000	0.002361  
1554.000000	0.002350  
1553.000000	0.002288  
1552.000000	0.002257  
1551.000000	0.002254  
1550.000000	0.002265  
1549.000000	0.002281  
1548.000000	0.002274  
1547.000000	0.002224  
1546.000000	0.002150  
1545.000000	0.002126  
1544.000000	0.002183  
1543.000000	0.002222  
1542.000000	0.002169  
1541.000000	0.002166  
1540.000000	0.002347  
1539.000000	0.002448  
1538.000000	0.002406  
1537.000000	0.002409  
1536.000000	0.002467  
1535.000000	0.002497  
1534.000000	0.002505  
1533.000000	0.002632  
1532.000000	0.002811  
1531.000000	0.002895  
1530.000000	0.002893  
1529.000000	0.002883  
1528.000000	0.002907  
1527.000000	0.002934  
1526.000000	0.002923  
1525.000000	0.002901  
1524.000000	0.002902  
1523.000000	0.002922  
1522.000000	0.003053  
1521.000000	0.003328  
1520.000000	0.003510  
1519.000000	0.003555  
1518.000000	0.003630  
1517.000000	0.003836  
1516.000000	0.004045  
1515.000000	0.004118  
1514.000000	0.004149  
1513.000000	0.004268  
1512.000000	0.004461  
1511.000000	0.004663  
1510.000000	0.004901  
1509.000000	0.005272  
1508.000000	0.005682  
1507.000000	0.005802  
1506.000000	0.005696  
1505.000000	0.005644  
1504.000000	0.005684  
1503.000000	0.005761  
1502.000000	0.005881  
1501.000000	0.006072  
1500.000000	0.006291  
1499.000000	0.006452  
1498.000000	0.006621  
1497.000000	0.006989  
1496.000000	0.007403  
1495.000000	0.007572  
1494.000000	0.007586  
1493.000000	0.007659  
1492.000000	0.007830  
1491.000000	0.008085  
1490.000000	0.008570  
1489.000000	0.009326  
1488.000000	0.010025  
1487.000000	0.010518  
1486.000000	0.011004  
1485.000000	0.011612  
1484.000000	0.012320  
1483.000000	0.013141  
1482.000000	0.014200  
1481.000000	0.015497  
1480.000000	0.016790  
1479.000000	0.017967  
1478.000000	0.019266  
1477.000000	0.020918  
1476.000000	0.022801  
1475.000000	0.024919  
1474.000000	0.028376  
1473.000000	0.034597  
1472.000000	0.042211  
1471.000000	0.048687  
1470.000000	0.054072  
1469.000000	0.059142  
1468.000000	0.063882  
1467.000000	0.068035  
1466.000000	0.071530  
1465.000000	0.074226  
1464.000000	0.075774  
1463.000000	0.076369  
1462.000000	0.076628  
1461.000000	0.076870  
1460.000000	0.077160  
1459.000000	0.077669  
1458.000000	0.078654  
1457.000000	0.079009  
1456.000000	0.077372  
1455.000000	0.074739  
1454.000000	0.072072  
1453.000000	0.069321  
1452.000000	0.066461  
1451.000000	0.063745  
1450.000000	0.061345  
1449.000000	0.058983  
1448.000000	0.056351  
1447.000000	0.053590  
1446.000000	0.050924  
1445.000000	0.048299  
1444.000000	0.045660  
1443.000000	0.043124  
1442.000000	0.040810  
1441.000000	0.038724  
1440.000000	0.036863  
1439.000000	0.035221  
1438.000000	0.033647  
1437.000000	0.031926  
1436.000000	0.030228  
1435.000000	0.028882  
1434.000000	0.027766  
1433.000000	0.026559  
1432.000000	0.025145  
1431.000000	0.023641  
1430.000000	0.022208  
1429.000000	0.020944  
1428.000000	0.019951  
1427.000000	0.019289  
1426.000000	0.018857  
1425.000000	0.018482  
1424.000000	0.018127  
1423.000000	0.017855  
1422.000000	0.017643  
1421.000000	0.017392  
1420.000000	0.017092  
1419.000000	0.016820  
1418.000000	0.016538  
1417.000000	0.016156  
1416.000000	0.015733  
1415.000000	0.015340  
1414.000000	0.014946  
1413.000000	0.014513  
1412.000000	0.014108  
1411.000000	0.013842  
1410.000000	0.013703  
1409.000000	0.013603  
1408.000000	0.013531  
1407.000000	0.013563  
1406.000000	0.013728  
1405.000000	0.013965  
1404.000000	0.014217  
1403.000000	0.014467  
1402.000000	0.014709  
1401.000000	0.014967  
1400.000000	0.015315  
1399.000000	0.015782  
1398.000000	0.016257  
1397.000000	0.016652  
1396.000000	0.017010  
1395.000000	0.017368  
1394.000000	0.017669  
1393.000000	0.017914  
1392.000000	0.018215  
1391.000000	0.018646  
1390.000000	0.019236  
1389.000000	0.020106  
1388.000000	0.021487  
1387.000000	0.023377  
1386.000000	0.025404  
1385.000000	0.027373  
1384.000000	0.029501  
1383.000000	0.032043  
1382.000000	0.035058  
1381.000000	0.038401  
1380.000000	0.041710  
1379.000000	0.044341  
1378.000000	0.045654  
1377.000000	0.045434  
1376.000000	0.043769  
1375.000000	0.040821  
1374.000000	0.037194  
1373.000000	0.033914  
1372.000000	0.031515  
1371.000000	0.029871  
1370.000000	0.028757  
1369.000000	0.028075  
1368.000000	0.027733  
1367.000000	0.027504  
1366.000000	0.027120  
1365.000000	0.026404  
1364.000000	0.025309  
1363.000000	0.023989  
1362.000000	0.022775  
1361.000000	0.021881  
1360.000000	0.021275  
1359.000000	0.020864  
1358.000000	0.020585  
1357.000000	0.020382  
1356.000000	0.020221  
1355.000000	0.020114  
1354.000000	0.020082  
1353.000000	0.020107  
1352.000000	0.020128  
1351.000000	0.020096  
1350.000000	0.019985  
1349.000000	0.019798  
1348.000000	0.019576  
1347.000000	0.019360  
1346.000000	0.019160  
1345.000000	0.018957  
1344.000000	0.018767  
1343.000000	0.018640  
1342.000000	0.018602  
1341.000000	0.018593  
1340.000000	0.018476  
1339.000000	0.018168  
1338.000000	0.017722  
1337.000000	0.017249  
1336.000000	0.016815  
1335.000000	0.016446  
1334.000000	0.016154  
1333.000000	0.015951  
1332.000000	0.015849  
1331.000000	0.015840  
1330.000000	0.015873  
1329.000000	0.015883  
1328.000000	0.015858  
1327.000000	0.015845  
1326.000000	0.015882  
1325.000000	0.015954  
1324.000000	0.016031  
1323.000000	0.016105  
1322.000000	0.016186  
1321.000000	0.016269  
1320.000000	0.016347  
1319.000000	0.016423  
1318.000000	0.016507  
1317.000000	0.016614  
1316.000000	0.016757  
1315.000000	0.016939  
1314.000000	0.017118  
1313.000000	0.017237  
1312.000000	0.017286  
1311.000000	0.017319  
1310.000000	0.017390  
1309.000000	0.017490  
1308.000000	0.017570  
1307.000000	0.017599  
1306.000000	0.017579  
1305.000000	0.017536  
1304.000000	0.017493  
1303.000000	0.017465  
1302.000000	0.017441  
1301.000000	0.017382  
1300.000000	0.017266  
1299.000000	0.017111  
1298.000000	0.016961  
1297.000000	0.016846  
1296.000000	0.016753  
1295.000000	0.016649  
1294.000000	0.016507  
1293.000000	0.016336  
1292.000000	0.016180  
1291.000000	0.016091  
1290.000000	0.016090  
1289.000000	0.016158  
1288.000000	0.016262  
1287.000000	0.016375  
1286.000000	0.016489  
1285.000000	0.016623  
1284.000000	0.016803  
1283.000000	0.017029  
1282.000000	0.017258  
1281.000000	0.017448  
1280.000000	0.017602  
1279.000000	0.017759  
1278.000000	0.017932  
1277.000000	0.018097  
1276.000000	0.018235  
1275.000000	0.018353  
1274.000000	0.018456  
1273.000000	0.018533  
1272.000000	0.018583  
1271.000000	0.018627  
1270.000000	0.018668  
1269.000000	0.018677  
1268.000000	0.018645  
1267.000000	0.018625  
1266.000000	0.018687  
1265.000000	0.018828  
1264.000000	0.018985  
1263.000000	0.019117  
1262.000000	0.019246  
1261.000000	0.019407  
1260.000000	0.019579  
1259.000000	0.019705  
1258.000000	0.019756  
1257.000000	0.019782  
1256.000000	0.019880  
1255.000000	0.020117  
1254.000000	0.020474  
1253.000000	0.020864  
1252.000000	0.021213  
1251.000000	0.021523  
1250.000000	0.021848  
1249.000000	0.022209  
1248.000000	0.022556  
1247.000000	0.022820  
1246.000000	0.022983  
1245.000000	0.023079  
1244.000000	0.023134  
1243.000000	0.023130  
1242.000000	0.023034  
1241.000000	0.022837  
1240.000000	0.022553  
1239.000000	0.022199  
1238.000000	0.021797  
1237.000000	0.021377  
1236.000000	0.020975  
1235.000000	0.020612  
1234.000000	0.020283  
1233.000000	0.019977  
1232.000000	0.019694  
1231.000000	0.019442  
1230.000000	0.019224  
1229.000000	0.019039  
1228.000000	0.018896  
1227.000000	0.018799  
1226.000000	0.018724  
1225.000000	0.018638  
1224.000000	0.018546  
1223.000000	0.018497  
1222.000000	0.018537  
1221.000000	0.018668  
1220.000000	0.018864  
1219.000000	0.019100  
1218.000000	0.019340  
1217.000000	0.019540  
1216.000000	0.019684  
1215.000000	0.019813  
1214.000000	0.019991  
1213.000000	0.020234  
1212.000000	0.020483  
1211.000000	0.020673  
1210.000000	0.020806  
1209.000000	0.020946  
1208.000000	0.021147  
1207.000000	0.021408  
1206.000000	0.021692  
1205.000000	0.021974  
1204.000000	0.022254  
1203.000000	0.022543  
1202.000000	0.022848  
1201.000000	0.023173  
1200.000000	0.023530  
1199.000000	0.023931  
1198.000000	0.024384  
1197.000000	0.024899  
1196.000000	0.025474  
1195.000000	0.026087  
1194.000000	0.026695  
1193.000000	0.027265  
1192.000000	0.027792  
1191.000000	0.028300  
1190.000000	0.028821  
1189.000000	0.029373  
1188.000000	0.029961  
1187.000000	0.030572  
1186.000000	0.031191  
1185.000000	0.031800  
1184.000000	0.032380  
1183.000000	0.032908  
1182.000000	0.033374  
1181.000000	0.033779  
1180.000000	0.034124  
1179.000000	0.034399  
1178.000000	0.034589  
1177.000000	0.034692  
1176.000000	0.034711  
1175.000000	0.034659  
1174.000000	0.034548  
1173.000000	0.034393  
1172.000000	0.034188  
1171.000000	0.033913  
1170.000000	0.033540  
1169.000000	0.033042  
1168.000000	0.032427  
1167.000000	0.031738  
1166.000000	0.031020  
1165.000000	0.030283  
1164.000000	0.029501  
1163.000000	0.028665  
1162.000000	0.027802  
1161.000000	0.026947  
1160.000000	0.026125  
1159.000000	0.025356  
1158.000000	0.024641  
1157.000000	0.023959  
1156.000000	0.023295  
1155.000000	0.022688  
1154.000000	0.022198  
1153.000000	0.021824  
1152.000000	0.021477  
1151.000000	0.021072  
1150.000000	0.020606  
1149.000000	0.020138  
1148.000000	0.019707  
1147.000000	0.019312  
1146.000000	0.018937  
1145.000000	0.018568  
1144.000000	0.018186  
1143.000000	0.017780  
1142.000000	0.017364  
1141.000000	0.016979  
1140.000000	0.016645  
1139.000000	0.016338  
1138.000000	0.016022  
1137.000000	0.015686  
1136.000000	0.015353  
1135.000000	0.015050  
1134.000000	0.014789  
1133.000000	0.014573  
1132.000000	0.014413  
1131.000000	0.014323  
1130.000000	0.014310  
1129.000000	0.014390  
1128.000000	0.014595  
1127.000000	0.014950  
1126.000000	0.015442  
1125.000000	0.016027  
1124.000000	0.016673  
1123.000000	0.017368  
1122.000000	0.018092  
1121.000000	0.018803  
1120.000000	0.019451  
1119.000000	0.020005  
1118.000000	0.020454  
1117.000000	0.020784  
1116.000000	0.020975  
1115.000000	0.021014  
1114.000000	0.020906  
1113.000000	0.020672  
1112.000000	0.020336  
1111.000000	0.019934  
1110.000000	0.019529  
1109.000000	0.019184  
1108.000000	0.018936  
1107.000000	0.018771  
1106.000000	0.018651  
1105.000000	0.018543  
1104.000000	0.018446  
1103.000000	0.018380  
1102.000000	0.018354  
1101.000000	0.018349  
1100.000000	0.018326  
1099.000000	0.018252  
1098.000000	0.018139  
1097.000000	0.018031  
1096.000000	0.017968  
1095.000000	0.017942  
1094.000000	0.017921  
1093.000000	0.017912  
1092.000000	0.017984  
1091.000000	0.018198  
1090.000000	0.018539  
1089.000000	0.018935  
1088.000000	0.019370  
1087.000000	0.019919  
1086.000000	0.020701  
1085.000000	0.021792  
1084.000000	0.023194  
1083.000000	0.024825  
1082.000000	0.026550  
1081.000000	0.028246  
1080.000000	0.029884  
1079.000000	0.031527  
1078.000000	0.033255  
1077.000000	0.035073  
1076.000000	0.036883  
1075.000000	0.038531  
1074.000000	0.039860  
1073.000000	0.040731  
1072.000000	0.041043  
1071.000000	0.040768  
1070.000000	0.039988  
1069.000000	0.038875  
1068.000000	0.037631  
1067.000000	0.036463  
1066.000000	0.035534  
1065.000000	0.034897  
1064.000000	0.034486  
1063.000000	0.034181  
1062.000000	0.033857  
1061.000000	0.033382  
1060.000000	0.032626  
1059.000000	0.031545  
1058.000000	0.030248  
1057.000000	0.028946  
1056.000000	0.027834  
1055.000000	0.027026  
1054.000000	0.026587  
1053.000000	0.026562  
1052.000000	0.026957  
1051.000000	0.027688  
1050.000000	0.028587  
1049.000000	0.029470  
1048.000000	0.030215  
1047.000000	0.030783  
1046.000000	0.031187  
1045.000000	0.031441  
1044.000000	0.031534  
1043.000000	0.031457  
1042.000000	0.031230  
1041.000000	0.030905  
1040.000000	0.030530  
1039.000000	0.030136  
1038.000000	0.029741  
1037.000000	0.029371  
1036.000000	0.029086  
1035.000000	0.028983  
1034.000000	0.029176  
1033.000000	0.029732  
1032.000000	0.030593  
1031.000000	0.031535  
1030.000000	0.032205  
1029.000000	0.032265  
1028.000000	0.031573  
1027.000000	0.030255  
1026.000000	0.028599  
1025.000000	0.026878  
1024.000000	0.025260  
1023.000000	0.023849  
1022.000000	0.022707  
1021.000000	0.021830  
1020.000000	0.021152  
1019.000000	0.020620  
1018.000000	0.020244  
1017.000000	0.020073  
1016.000000	0.020145  
1015.000000	0.020453  
1014.000000	0.020934  
1013.000000	0.021458  
1012.000000	0.021859  
1011.000000	0.021998  
1010.000000	0.021813  
1009.000000	0.021310  
1008.000000	0.020550  
1007.000000	0.019640  
1006.000000	0.018700  
1005.000000	0.017813  
1004.000000	0.017011  
1003.000000	0.016308  
1002.000000	0.015721  
1001.000000	0.015250  
1000.000000	0.014898  
999.000000	 0.014719  
998.000000	 0.014807  
997.000000	 0.015191  
996.000000	 0.015780  
995.000000	 0.016426  
994.000000	 0.017013  
993.000000	 0.017471  
992.000000	 0.017717  
991.000000	 0.017673  
990.000000	 0.017340  
989.000000	 0.016810  
988.000000	 0.016198  
987.000000	 0.015572  
986.000000	 0.014960  
985.000000	 0.014375  
984.000000	 0.013828  
983.000000	 0.013342  
982.000000	 0.012969  
981.000000	 0.012760  
980.000000	 0.012727  
979.000000	 0.012830  
978.000000	 0.013015  
977.000000	 0.013255  
976.000000	 0.013560  
975.000000	 0.013940  
974.000000	 0.014373  
973.000000	 0.014785  
972.000000	 0.015099  
971.000000	 0.015318  
970.000000	 0.015548  
969.000000	 0.015896  
968.000000	 0.016355  
967.000000	 0.016814  
966.000000	 0.017177  
965.000000	 0.017437  
964.000000	 0.017616  
963.000000	 0.017713  
962.000000	 0.017737  
961.000000	 0.017762  
960.000000	 0.017889  
959.000000	 0.018176  
958.000000	 0.018618  
957.000000	 0.019184  
956.000000	 0.019818  
955.000000	 0.020437  
954.000000	 0.020944  
953.000000	 0.021255  
952.000000	 0.021297  
951.000000	 0.021023  
950.000000	 0.020456  
949.000000	 0.019713  
948.000000	 0.018930  
947.000000	 0.018185  
946.000000	 0.017492  
945.000000	 0.016861  
944.000000	 0.016303  
943.000000	 0.015789  
942.000000	 0.015240  
941.000000	 0.014612  
940.000000	 0.013943  
939.000000	 0.013310  
938.000000	 0.012744  
937.000000	 0.012216  
936.000000	 0.011704  
935.000000	 0.011229  
934.000000	 0.010837  
933.000000	 0.010541  
932.000000	 0.010304  
931.000000	 0.010078  
930.000000	 0.009841  
929.000000	 0.009636  
928.000000	 0.009531  
927.000000	 0.009536  
926.000000	 0.009578  
925.000000	 0.009566  
924.000000	 0.009511  
923.000000	 0.009515  
922.000000	 0.009649  
921.000000	 0.009859  
920.000000	 0.010026  
919.000000	 0.010084  
918.000000	 0.010040  
917.000000	 0.009924  
916.000000	 0.009773  
915.000000	 0.009662  
914.000000	 0.009679  
913.000000	 0.009809  
912.000000	 0.009918  
911.000000	 0.009883  
910.000000	 0.009726  
909.000000	 0.009575  
908.000000	 0.009513  
907.000000	 0.009532  
906.000000	 0.009608  
905.000000	 0.009742  
904.000000	 0.009923  
903.000000	 0.010111  
902.000000	 0.010291  
901.000000	 0.010481  
900.000000	 0.010658  
899.000000	 0.010723  
898.000000	 0.010605  
897.000000	 0.010351  
896.000000	 0.010067  
895.000000	 0.009811  
894.000000	 0.009579  
893.000000	 0.009386  
892.000000	 0.009261  
891.000000	 0.009212  
890.000000	 0.009217  
889.000000	 0.009268  
888.000000	 0.009349  
887.000000	 0.009403  
886.000000	 0.009367  
885.000000	 0.009269  
884.000000	 0.009224  
883.000000	 0.009308  
882.000000	 0.009474  
881.000000	 0.009605  
880.000000	 0.009615  
879.000000	 0.009499  
878.000000	 0.009313  
877.000000	 0.009157  
876.000000	 0.009107  
875.000000	 0.009154  
874.000000	 0.009234  
873.000000	 0.009312  
872.000000	 0.009398  
871.000000	 0.009480  
870.000000	 0.009504  
869.000000	 0.009463  
868.000000	 0.009432  
867.000000	 0.009465  
866.000000	 0.009512  
865.000000	 0.009500  
864.000000	 0.009453  
863.000000	 0.009473  
862.000000	 0.009612  
861.000000	 0.009828  
860.000000	 0.010063  
859.000000	 0.010322  
858.000000	 0.010663  
857.000000	 0.011127  
856.000000	 0.011700  
855.000000	 0.012309  
854.000000	 0.012886  
853.000000	 0.013445  
852.000000	 0.014101  
851.000000	 0.014961  
850.000000	 0.015971  
849.000000	 0.016919  
848.000000	 0.017579  
847.000000	 0.017866  
846.000000	 0.017828  
845.000000	 0.017533  
844.000000	 0.016998  
843.000000	 0.016237  
842.000000	 0.015349  
841.000000	 0.014494  
840.000000	 0.013778  
839.000000	 0.013197  
838.000000	 0.012688  
837.000000	 0.012214  
836.000000	 0.011781  
835.000000	 0.011384  
834.000000	 0.011001  
833.000000	 0.010658  
832.000000	 0.010453  
831.000000	 0.010451  
830.000000	 0.010581  
829.000000	 0.010675  
828.000000	 0.010635  
827.000000	 0.010533  
826.000000	 0.010506  
825.000000	 0.010593  
824.000000	 0.010710  
823.000000	 0.010783  
822.000000	 0.010825  
821.000000	 0.010861  
820.000000	 0.010850  
819.000000	 0.010746  
818.000000	 0.010610  
817.000000	 0.010590  
816.000000	 0.010760  
815.000000	 0.011002  
814.000000	 0.011123  
813.000000	 0.011086  
812.000000	 0.011054  
811.000000	 0.011189  
810.000000	 0.011459  
809.000000	 0.011708  
808.000000	 0.011863  
807.000000	 0.011988  
806.000000	 0.012141  
805.000000	 0.012266  
804.000000	 0.012259  
803.000000	 0.012093  
802.000000	 0.011819  
801.000000	 0.011480  
800.000000	 0.011078  
799.000000	 0.010648  
798.000000	 0.010313  
797.000000	 0.010192  
796.000000	 0.010258  
795.000000	 0.010333  
794.000000	 0.010274  
793.000000	 0.010133  
792.000000	 0.010094  
791.000000	 0.010263  
790.000000	 0.010562  
789.000000	 0.010850  
788.000000	 0.011072  
787.000000	 0.011259  
786.000000	 0.011438  
785.000000	 0.011613  
784.000000	 0.011815  
783.000000	 0.012099  
782.000000	 0.012481  
781.000000	 0.012915  
780.000000	 0.013342  
779.000000	 0.013716  
778.000000	 0.013996  
777.000000	 0.014166  
776.000000	 0.014293  
775.000000	 0.014492  
774.000000	 0.014822  
773.000000	 0.015216  
772.000000	 0.015573  
771.000000	 0.015862  
770.000000	 0.016127  
769.000000	 0.016397  
768.000000	 0.016650  
767.000000	 0.016867  
766.000000	 0.017063  
765.000000	 0.017254  
764.000000	 0.017430  
763.000000	 0.017558  
762.000000	 0.017609  
761.000000	 0.017564  
760.000000	 0.017445  
759.000000	 0.017359  
758.000000	 0.017471  
757.000000	 0.017879  
756.000000	 0.018526  
755.000000	 0.019228  
754.000000	 0.019815  
753.000000	 0.020233  
752.000000	 0.020557  
751.000000	 0.020932  
750.000000	 0.021457  
749.000000	 0.022112  
748.000000	 0.022791  
747.000000	 0.023464  
746.000000	 0.024264  
745.000000	 0.025363  
744.000000	 0.026761  
743.000000	 0.028251  
742.000000	 0.029616  
741.000000	 0.030778  
740.000000	 0.031757  
739.000000	 0.032549  
738.000000	 0.033116  
737.000000	 0.033445  
736.000000	 0.033561  
735.000000	 0.033516  
734.000000	 0.033400  
733.000000	 0.033351  
732.000000	 0.033498  
731.000000	 0.033880  
730.000000	 0.034451  
729.000000	 0.035144  
728.000000	 0.035932  
727.000000	 0.036826  
726.000000	 0.037822  
725.000000	 0.038850  
724.000000	 0.039743  
723.000000	 0.040266  
722.000000	 0.040225  
721.000000	 0.039576  
720.000000	 0.038453  
719.000000	 0.037047  
718.000000	 0.035498  
717.000000	 0.033929  
716.000000	 0.032507  
715.000000	 0.031377  
714.000000	 0.030559  
713.000000	 0.029955  
712.000000	 0.029467  
711.000000	 0.029057  
710.000000	 0.028720  
709.000000	 0.028453  
708.000000	 0.028260  
707.000000	 0.028122  
706.000000	 0.027983  
705.000000	 0.027807  
704.000000	 0.027650  
703.000000	 0.027576  
702.000000	 0.027551  
701.000000	 0.027492  
700.000000	 0.027388  
699.000000	 0.027272  
698.000000	 0.027041  
697.000000	 0.026484  
696.000000	 0.025566  
695.000000	 0.024562  
694.000000	 0.023820  
693.000000	 0.023446  
692.000000	 0.023287  
691.000000	 0.023166  
690.000000	 0.023013  
689.000000	 0.022826  
688.000000	 0.022628  
687.000000	 0.022438  
686.000000	 0.022236  
685.000000	 0.021968  
684.000000	 0.021643  
683.000000	 0.021381  
682.000000	 0.021264  
681.000000	 0.021192  
680.000000	 0.020997  
679.000000	 0.020677  
678.000000	 0.020367  
677.000000	 0.020120  
676.000000	 0.019896  
675.000000	 0.019655  
674.000000	 0.019392  
673.000000	 0.019151  
672.000000	 0.019038  
671.000000	 0.019412  
670.000000	 0.020696  
669.000000	 0.023011  
668.000000	 0.024523  
667.000000	 0.023232  
666.000000	 0.020838  
665.000000	 0.019183  
664.000000	 0.018342  
663.000000	 0.018033  
662.000000	 0.017992  
661.000000	 0.018022  
660.000000	 0.017988  
659.000000	 0.017859  
658.000000	 0.017699  
657.000000	 0.017532  
656.000000	 0.017339  
655.000000	 0.017114  
654.000000	 0.016981  
653.000000	 0.017052  
652.000000	 0.017297  
651.000000	 0.017438  
650.000000	 0.017402  

