PE IR                   SPECTRUM    ASCII       PEDS        1.60        
  -1
NB440~1.ASC
17/05/24
07:53:35.00
17/05/24
07:53:35.00
Admin

650.000000
4









SPECTRUM ONE,CPU32 MAIN 00.02.6000 25-JUNE-2003 12:00:00
MIR TGS
MIR
OPTKBR
68128
0.200000

4.000000
STRONG
RATIO
SPECTRUM
MAGNITUDE
UNIVERSAL ATR
DOUBLE

COMBINED


0


#HDR
-1
-1
#GR
CM-1
A
0.00000011920928955078
0.0
4000.000000
-1.000000
3351
8
0.197014
-0.001298
#DATA
4000.000000	0.003328  
3999.000000	0.003338  
3998.000000	0.003313  
3997.000000	0.003214  
3996.000000	0.003042  
3995.000000	0.002862  
3994.000000	0.002758  
3993.000000	0.002763  
3992.000000	0.002840  
3991.000000	0.002925  
3990.000000	0.002996  
3989.000000	0.003081  
3988.000000	0.003208  
3987.000000	0.003362  
3986.000000	0.003482  
3985.000000	0.003503  
3984.000000	0.003408  
3983.000000	0.003238  
3982.000000	0.003070  
3981.000000	0.002961  
3980.000000	0.002921  
3979.000000	0.002915  
3978.000000	0.002906  
3977.000000	0.002885  
3976.000000	0.002866  
3975.000000	0.002867  
3974.000000	0.002890  
3973.000000	0.002933  
3972.000000	0.002987  
3971.000000	0.003035  
3970.000000	0.003060  
3969.000000	0.003057  
3968.000000	0.003040  
3967.000000	0.003023  
3966.000000	0.003002  
3965.000000	0.002952  
3964.000000	0.002847  
3963.000000	0.002686  
3962.000000	0.002516  
3961.000000	0.002397  
3960.000000	0.002360  
3959.000000	0.002391  
3958.000000	0.002461  
3957.000000	0.002560  
3956.000000	0.002676  
3955.000000	0.002785  
3954.000000	0.002849  
3953.000000	0.002846  
3952.000000	0.002792  
3951.000000	0.002719  
3950.000000	0.002646  
3949.000000	0.002584  
3948.000000	0.002551  
3947.000000	0.002572  
3946.000000	0.002632  
3945.000000	0.002661  
3944.000000	0.002615  
3943.000000	0.002561  
3942.000000	0.002621  
3941.000000	0.002829  
3940.000000	0.003071  
3939.000000	0.003189  
3938.000000	0.003120  
3937.000000	0.002949  
3936.000000	0.002806  
3935.000000	0.002757  
3934.000000	0.002772  
3933.000000	0.002797  
3932.000000	0.002815  
3931.000000	0.002836  
3930.000000	0.002866  
3929.000000	0.002915  
3928.000000	0.002984  
3927.000000	0.003037  
3926.000000	0.003026  
3925.000000	0.002951  
3924.000000	0.002832  
3923.000000	0.002660  
3922.000000	0.002431  
3921.000000	0.002224  
3920.000000	0.002185  
3919.000000	0.002390  
3918.000000	0.002732  
3917.000000	0.003019  
3916.000000	0.003171  
3915.000000	0.003241  
3914.000000	0.003296  
3913.000000	0.003347  
3912.000000	0.003353  
3911.000000	0.003262  
3910.000000	0.003052  
3909.000000	0.002761  
3908.000000	0.002469  
3907.000000	0.002254  
3906.000000	0.002162  
3905.000000	0.002241  
3904.000000	0.002512  
3903.000000	0.002890  
3902.000000	0.003205  
3901.000000	0.003327  
3900.000000	0.003292  
3899.000000	0.003231  
3898.000000	0.003216  
3897.000000	0.003206  
3896.000000	0.003150  
3895.000000	0.003046  
3894.000000	0.002900  
3893.000000	0.002695  
3892.000000	0.002472  
3891.000000	0.002353  
3890.000000	0.002432  
3889.000000	0.002676  
3888.000000	0.002868  
3887.000000	0.002775  
3886.000000	0.002498  
3885.000000	0.002381  
3884.000000	0.002557  
3883.000000	0.002831  
3882.000000	0.002922  
3881.000000	0.002781  
3880.000000	0.002612  
3879.000000	0.002589  
3878.000000	0.002695  
3877.000000	0.002757  
3876.000000	0.002592  
3875.000000	0.002266  
3874.000000	0.002085  
3873.000000	0.002206  
3872.000000	0.002395  
3871.000000	0.002344  
3870.000000	0.002170  
3869.000000	0.002225  
3868.000000	0.002573  
3867.000000	0.002927  
3866.000000	0.003019  
3865.000000	0.002909  
3864.000000	0.002858  
3863.000000	0.002923  
3862.000000	0.002950  
3861.000000	0.002814  
3860.000000	0.002509  
3859.000000	0.002122  
3858.000000	0.001821  
3857.000000	0.001765  
3856.000000	0.001858  
3855.000000	0.001677  
3854.000000	0.001313  
3853.000000	0.001399  
3852.000000	0.001935  
3851.000000	0.002497  
3850.000000	0.002842  
3849.000000	0.002952  
3848.000000	0.002905  
3847.000000	0.002742  
3846.000000	0.002469  
3845.000000	0.002135  
3844.000000	0.001918  
3843.000000	0.002041  
3842.000000	0.002556  
3841.000000	0.003233  
3840.000000	0.003731  
3839.000000	0.003896  
3838.000000	0.003855  
3837.000000	0.003786  
3836.000000	0.003729  
3835.000000	0.003620  
3834.000000	0.003387  
3833.000000	0.003041  
3832.000000	0.002714  
3831.000000	0.002551  
3830.000000	0.002578  
3829.000000	0.002658  
3828.000000	0.002600  
3827.000000	0.002377  
3826.000000	0.002194  
3825.000000	0.002269  
3824.000000	0.002549  
3823.000000	0.002653  
3822.000000	0.002367  
3821.000000	0.002061  
3820.000000	0.002094  
3819.000000	0.002386  
3818.000000	0.002561  
3817.000000	0.002376  
3816.000000	0.002092  
3815.000000	0.002072  
3814.000000	0.002267  
3813.000000	0.002386  
3812.000000	0.002291  
3811.000000	0.002107  
3810.000000	0.001997  
3809.000000	0.001913  
3808.000000	0.001750  
3807.000000	0.001656  
3806.000000	0.001882  
3805.000000	0.002435  
3804.000000	0.002965  
3803.000000	0.002979  
3802.000000	0.002506  
3801.000000	0.002136  
3800.000000	0.002170  
3799.000000	0.002409  
3798.000000	0.002546  
3797.000000	0.002494  
3796.000000	0.002402  
3795.000000	0.002402  
3794.000000	0.002466  
3793.000000	0.002509  
3792.000000	0.002512  
3791.000000	0.002503  
3790.000000	0.002501  
3789.000000	0.002503  
3788.000000	0.002508  
3787.000000	0.002509  
3786.000000	0.002502  
3785.000000	0.002508  
3784.000000	0.002563  
3783.000000	0.002649  
3782.000000	0.002647  
3781.000000	0.002433  
3780.000000	0.002085  
3779.000000	0.001868  
3778.000000	0.001916  
3777.000000	0.002104  
3776.000000	0.002224  
3775.000000	0.002206  
3774.000000	0.002144  
3773.000000	0.002112  
3772.000000	0.002049  
3771.000000	0.001910  
3770.000000	0.001841  
3769.000000	0.002007  
3768.000000	0.002350  
3767.000000	0.002626  
3766.000000	0.002662  
3765.000000	0.002542  
3764.000000	0.002474  
3763.000000	0.002518  
3762.000000	0.002556  
3761.000000	0.002486  
3760.000000	0.002371  
3759.000000	0.002292  
3758.000000	0.002225  
3757.000000	0.002143  
3756.000000	0.002093  
3755.000000	0.002106  
3754.000000	0.002120  
3753.000000	0.002053  
3752.000000	0.001934  
3751.000000	0.001866  
3750.000000	0.001818  
3749.000000	0.001803  
3748.000000	0.001966  
3747.000000	0.002257  
3746.000000	0.002279  
3745.000000	0.001940  
3744.000000	0.001753  
3743.000000	0.001950  
3742.000000	0.002224  
3741.000000	0.002287  
3740.000000	0.002183  
3739.000000	0.002167  
3738.000000	0.002355  
3737.000000	0.002671  
3736.000000	0.003022  
3735.000000	0.003300  
3734.000000	0.003323  
3733.000000	0.003018  
3732.000000	0.002554  
3731.000000	0.002208  
3730.000000	0.002120  
3729.000000	0.002178  
3728.000000	0.002168  
3727.000000	0.002025  
3726.000000	0.001884  
3725.000000	0.001845  
3724.000000	0.001867  
3723.000000	0.001883  
3722.000000	0.001902  
3721.000000	0.001954  
3720.000000	0.001995  
3719.000000	0.001926  
3718.000000	0.001722  
3717.000000	0.001504  
3716.000000	0.001426  
3715.000000	0.001512  
3714.000000	0.001623  
3713.000000	0.001609  
3712.000000	0.001555  
3711.000000	0.001652  
3710.000000	0.001875  
3709.000000	0.002064  
3708.000000	0.002139  
3707.000000	0.002143  
3706.000000	0.002176  
3705.000000	0.002287  
3704.000000	0.002425  
3703.000000	0.002483  
3702.000000	0.002427  
3701.000000	0.002329  
3700.000000	0.002265  
3699.000000	0.002222  
3698.000000	0.002127  
3697.000000	0.001983  
3696.000000	0.001891  
3695.000000	0.001924  
3694.000000	0.002062  
3693.000000	0.002232  
3692.000000	0.002343  
3691.000000	0.002305  
3690.000000	0.002136  
3689.000000	0.001996  
3688.000000	0.002019  
3687.000000	0.002215  
3686.000000	0.002466  
3685.000000	0.002617  
3684.000000	0.002597  
3683.000000	0.002422  
3682.000000	0.002097  
3681.000000	0.001662  
3680.000000	0.001355  
3679.000000	0.001520  
3678.000000	0.002173  
3677.000000	0.002760  
3676.000000	0.002782  
3675.000000	0.002438  
3674.000000	0.002247  
3673.000000	0.002393  
3672.000000	0.002633  
3671.000000	0.002709  
3670.000000	0.002702  
3669.000000	0.002740  
3668.000000	0.002763  
3667.000000	0.002681  
3666.000000	0.002487  
3665.000000	0.002266  
3664.000000	0.002108  
3663.000000	0.002023  
3662.000000	0.001944  
3661.000000	0.001835  
3660.000000	0.001721  
3659.000000	0.001612  
3658.000000	0.001459  
3657.000000	0.001300  
3656.000000	0.001295  
3655.000000	0.001513  
3654.000000	0.001842  
3653.000000	0.002062  
3652.000000	0.001967  
3651.000000	0.001666  
3650.000000	0.001774  
3649.000000	0.002533  
3648.000000	0.003258  
3647.000000	0.003492  
3646.000000	0.003413  
3645.000000	0.003265  
3644.000000	0.003121  
3643.000000	0.002983  
3642.000000	0.002889  
3641.000000	0.002870  
3640.000000	0.002860  
3639.000000	0.002748  
3638.000000	0.002519  
3637.000000	0.002250  
3636.000000	0.001988  
3635.000000	0.001734  
3634.000000	0.001547  
3633.000000	0.001562  
3632.000000	0.001848  
3631.000000	0.002228  
3630.000000	0.002448  
3629.000000	0.002591  
3628.000000	0.002804  
3627.000000	0.003019  
3626.000000	0.003123  
3625.000000	0.003100  
3624.000000	0.003055  
3623.000000	0.003121  
3622.000000	0.003306  
3621.000000	0.003471  
3620.000000	0.003478  
3619.000000	0.003328  
3618.000000	0.003129  
3617.000000	0.002983  
3616.000000	0.002899  
3615.000000	0.002804  
3614.000000	0.002662  
3613.000000	0.002536  
3612.000000	0.002522  
3611.000000	0.002641  
3610.000000	0.002819  
3609.000000	0.002999  
3608.000000	0.003187  
3607.000000	0.003394  
3606.000000	0.003584  
3605.000000	0.003717  
3604.000000	0.003760  
3603.000000	0.003687  
3602.000000	0.003496  
3601.000000	0.003262  
3600.000000	0.003100  
3599.000000	0.003073  
3598.000000	0.003162  
3597.000000	0.003322  
3596.000000	0.003497  
3595.000000	0.003627  
3594.000000	0.003673  
3593.000000	0.003655  
3592.000000	0.003661  
3591.000000	0.003766  
3590.000000	0.003937  
3589.000000	0.004079  
3588.000000	0.004197  
3587.000000	0.004365  
3586.000000	0.004546  
3585.000000	0.004641  
3584.000000	0.004607  
3583.000000	0.004498  
3582.000000	0.004411  
3581.000000	0.004412  
3580.000000	0.004501  
3579.000000	0.004637  
3578.000000	0.004774  
3577.000000	0.004865  
3576.000000	0.004876  
3575.000000	0.004798  
3574.000000	0.004662  
3573.000000	0.004532  
3572.000000	0.004465  
3571.000000	0.004490  
3570.000000	0.004573  
3569.000000	0.004651  
3568.000000	0.004759  
3567.000000	0.004988  
3566.000000	0.005247  
3565.000000	0.005367  
3564.000000	0.005323  
3563.000000	0.005212  
3562.000000	0.005145  
3561.000000	0.005155  
3560.000000	0.005194  
3559.000000	0.005209  
3558.000000	0.005196  
3557.000000	0.005182  
3556.000000	0.005191  
3555.000000	0.005212  
3554.000000	0.005217  
3553.000000	0.005200  
3552.000000	0.005191  
3551.000000	0.005235  
3550.000000	0.005363  
3549.000000	0.005569  
3548.000000	0.005812  
3547.000000	0.006007  
3546.000000	0.006062  
3545.000000	0.005952  
3544.000000	0.005757  
3543.000000	0.005604  
3542.000000	0.005572  
3541.000000	0.005655  
3540.000000	0.005784  
3539.000000	0.005877  
3538.000000	0.005887  
3537.000000	0.005838  
3536.000000	0.005789  
3535.000000	0.005774  
3534.000000	0.005770  
3533.000000	0.005743  
3532.000000	0.005696  
3531.000000	0.005668  
3530.000000	0.005698  
3529.000000	0.005783  
3528.000000	0.005899  
3527.000000	0.006025  
3526.000000	0.006152  
3525.000000	0.006268  
3524.000000	0.006367  
3523.000000	0.006450  
3522.000000	0.006506  
3521.000000	0.006512  
3520.000000	0.006446  
3519.000000	0.006315  
3518.000000	0.006162  
3517.000000	0.006050  
3516.000000	0.006035  
3515.000000	0.006146  
3514.000000	0.006371  
3513.000000	0.006652  
3512.000000	0.006931  
3511.000000	0.007182  
3510.000000	0.007401  
3509.000000	0.007562  
3508.000000	0.007631  
3507.000000	0.007622  
3506.000000	0.007589  
3505.000000	0.007571  
3504.000000	0.007546  
3503.000000	0.007472  
3502.000000	0.007355  
3501.000000	0.007253  
3500.000000	0.007201  
3499.000000	0.007186  
3498.000000	0.007196  
3497.000000	0.007256  
3496.000000	0.007391  
3495.000000	0.007564  
3494.000000	0.007702  
3493.000000	0.007777  
3492.000000	0.007834  
3491.000000	0.007919  
3490.000000	0.008011  
3489.000000	0.008043  
3488.000000	0.008003  
3487.000000	0.007965  
3486.000000	0.007998  
3485.000000	0.008065  
3484.000000	0.008048  
3483.000000	0.007881  
3482.000000	0.007640  
3481.000000	0.007479  
3480.000000	0.007490  
3479.000000	0.007646  
3478.000000	0.007867  
3477.000000	0.008107  
3476.000000	0.008364  
3475.000000	0.008633  
3474.000000	0.008864  
3473.000000	0.008984  
3472.000000	0.008969  
3471.000000	0.008873  
3470.000000	0.008777  
3469.000000	0.008724  
3468.000000	0.008700  
3467.000000	0.008690  
3466.000000	0.008689  
3465.000000	0.008680  
3464.000000	0.008619  
3463.000000	0.008508  
3462.000000	0.008452  
3461.000000	0.008594  
3460.000000	0.008962  
3459.000000	0.009406  
3458.000000	0.009710  
3457.000000	0.009762  
3456.000000	0.009628  
3455.000000	0.009459  
3454.000000	0.009358  
3453.000000	0.009333  
3452.000000	0.009360  
3451.000000	0.009440  
3450.000000	0.009578  
3449.000000	0.009748  
3448.000000	0.009898  
3447.000000	0.009997  
3446.000000	0.010038  
3445.000000	0.010016  
3444.000000	0.009940  
3443.000000	0.009849  
3442.000000	0.009807  
3441.000000	0.009843  
3440.000000	0.009915  
3439.000000	0.009959  
3438.000000	0.009949  
3437.000000	0.009910  
3436.000000	0.009889  
3435.000000	0.009925  
3434.000000	0.010025  
3433.000000	0.010157  
3432.000000	0.010279  
3431.000000	0.010373  
3430.000000	0.010457  
3429.000000	0.010557  
3428.000000	0.010670  
3427.000000	0.010762  
3426.000000	0.010792  
3425.000000	0.010738  
3424.000000	0.010612  
3423.000000	0.010450  
3422.000000	0.010301  
3421.000000	0.010207  
3420.000000	0.010183  
3419.000000	0.010201  
3418.000000	0.010209  
3417.000000	0.010171  
3416.000000	0.010112  
3415.000000	0.010115  
3414.000000	0.010248  
3413.000000	0.010480  
3412.000000	0.010693  
3411.000000	0.010773  
3410.000000	0.010706  
3409.000000	0.010582  
3408.000000	0.010523  
3407.000000	0.010590  
3406.000000	0.010748  
3405.000000	0.010893  
3404.000000	0.010931  
3403.000000	0.010850  
3402.000000	0.010735  
3401.000000	0.010702  
3400.000000	0.010805  
3399.000000	0.010996  
3398.000000	0.011163  
3397.000000	0.011214  
3396.000000	0.011144  
3395.000000	0.011030  
3394.000000	0.010974  
3393.000000	0.011035  
3392.000000	0.011191  
3391.000000	0.011361  
3390.000000	0.011459  
3389.000000	0.011453  
3388.000000	0.011389  
3387.000000	0.011371  
3386.000000	0.011476  
3385.000000	0.011681  
3384.000000	0.011878  
3383.000000	0.011962  
3382.000000	0.011921  
3381.000000	0.011825  
3380.000000	0.011737  
3379.000000	0.011659  
3378.000000	0.011557  
3377.000000	0.011432  
3376.000000	0.011339  
3375.000000	0.011325  
3374.000000	0.011370  
3373.000000	0.011411  
3372.000000	0.011420  
3371.000000	0.011436  
3370.000000	0.011515  
3369.000000	0.011641  
3368.000000	0.011735  
3367.000000	0.011733  
3366.000000	0.011648  
3365.000000	0.011545  
3364.000000	0.011472  
3363.000000	0.011441  
3362.000000	0.011447  
3361.000000	0.011489  
3360.000000	0.011564  
3359.000000	0.011653  
3358.000000	0.011718  
3357.000000	0.011724  
3356.000000	0.011672  
3355.000000	0.011605  
3354.000000	0.011569  
3353.000000	0.011570  
3352.000000	0.011587  
3351.000000	0.011610  
3350.000000	0.011661  
3349.000000	0.011734  
3348.000000	0.011774  
3347.000000	0.011722  
3346.000000	0.011606  
3345.000000	0.011529  
3344.000000	0.011582  
3343.000000	0.011756  
3342.000000	0.011949  
3341.000000	0.012049  
3340.000000	0.012010  
3339.000000	0.011866  
3338.000000	0.011695  
3337.000000	0.011570  
3336.000000	0.011524  
3335.000000	0.011544  
3334.000000	0.011591  
3333.000000	0.011621  
3332.000000	0.011607  
3331.000000	0.011546  
3330.000000	0.011452  
3329.000000	0.011337  
3328.000000	0.011210  
3327.000000	0.011095  
3326.000000	0.011051  
3325.000000	0.011140  
3324.000000	0.011377  
3323.000000	0.011691  
3322.000000	0.011948  
3321.000000	0.012036  
3320.000000	0.011931  
3319.000000	0.011717  
3318.000000	0.011515  
3317.000000	0.011392  
3316.000000	0.011333  
3315.000000	0.011290  
3314.000000	0.011238  
3313.000000	0.011182  
3312.000000	0.011125  
3311.000000	0.011058  
3310.000000	0.010990  
3309.000000	0.010954  
3308.000000	0.010982  
3307.000000	0.011071  
3306.000000	0.011177  
3305.000000	0.011241  
3304.000000	0.011239  
3303.000000	0.011198  
3302.000000	0.011164  
3301.000000	0.011153  
3300.000000	0.011145  
3299.000000	0.011121  
3298.000000	0.011082  
3297.000000	0.011025  
3296.000000	0.010929  
3295.000000	0.010795  
3294.000000	0.010693  
3293.000000	0.010703  
3292.000000	0.010820  
3291.000000	0.010931  
3290.000000	0.010909  
3289.000000	0.010738  
3288.000000	0.010521  
3287.000000	0.010396  
3286.000000	0.010420  
3285.000000	0.010523  
3284.000000	0.010566  
3283.000000	0.010471  
3282.000000	0.010300  
3281.000000	0.010187  
3280.000000	0.010191  
3279.000000	0.010234  
3278.000000	0.010207  
3277.000000	0.010096  
3276.000000	0.009976  
3275.000000	0.009903  
3274.000000	0.009866  
3273.000000	0.009833  
3272.000000	0.009796  
3271.000000	0.009766  
3270.000000	0.009735  
3269.000000	0.009689  
3268.000000	0.009624  
3267.000000	0.009552  
3266.000000	0.009486  
3265.000000	0.009437  
3264.000000	0.009412  
3263.000000	0.009399  
3262.000000	0.009370  
3261.000000	0.009304  
3260.000000	0.009215  
3259.000000	0.009141  
3258.000000	0.009108  
3257.000000	0.009111  
3256.000000	0.009129  
3255.000000	0.009136  
3254.000000	0.009121  
3253.000000	0.009088  
3252.000000	0.009049  
3251.000000	0.009013  
3250.000000	0.008975  
3249.000000	0.008926  
3248.000000	0.008860  
3247.000000	0.008786  
3246.000000	0.008724  
3245.000000	0.008690  
3244.000000	0.008685  
3243.000000	0.008683  
3242.000000	0.008643  
3241.000000	0.008541  
3240.000000	0.008403  
3239.000000	0.008291  
3238.000000	0.008250  
3237.000000	0.008271  
3236.000000	0.008313  
3235.000000	0.008334  
3234.000000	0.008319  
3233.000000	0.008274  
3232.000000	0.008219  
3231.000000	0.008177  
3230.000000	0.008166  
3229.000000	0.008189  
3228.000000	0.008242  
3227.000000	0.008308  
3226.000000	0.008357  
3225.000000	0.008363  
3224.000000	0.008339  
3223.000000	0.008320  
3222.000000	0.008297  
3221.000000	0.008202  
3220.000000	0.007988  
3219.000000	0.007726  
3218.000000	0.007551  
3217.000000	0.007506  
3216.000000	0.007504  
3215.000000	0.007459  
3214.000000	0.007400  
3213.000000	0.007422  
3212.000000	0.007547  
3211.000000	0.007677  
3210.000000	0.007689  
3209.000000	0.007535  
3208.000000	0.007269  
3207.000000	0.006993  
3206.000000	0.006798  
3205.000000	0.006726  
3204.000000	0.006759  
3203.000000	0.006856  
3202.000000	0.006974  
3201.000000	0.007073  
3200.000000	0.007104  
3199.000000	0.007042  
3198.000000	0.006919  
3197.000000	0.006802  
3196.000000	0.006717  
3195.000000	0.006633  
3194.000000	0.006527  
3193.000000	0.006434  
3192.000000	0.006426  
3191.000000	0.006527  
3190.000000	0.006666  
3189.000000	0.006729  
3188.000000	0.006649  
3187.000000	0.006465  
3186.000000	0.006292  
3185.000000	0.006228  
3184.000000	0.006290  
3183.000000	0.006422  
3182.000000	0.006549  
3181.000000	0.006612  
3180.000000	0.006582  
3179.000000	0.006473  
3178.000000	0.006335  
3177.000000	0.006220  
3176.000000	0.006147  
3175.000000	0.006112  
3174.000000	0.006111  
3173.000000	0.006147  
3172.000000	0.006204  
3171.000000	0.006245  
3170.000000	0.006232  
3169.000000	0.006155  
3168.000000	0.006038  
3167.000000	0.005941  
3166.000000	0.005932  
3165.000000	0.006020  
3164.000000	0.006116  
3163.000000	0.006094  
3162.000000	0.005918  
3161.000000	0.005684  
3160.000000	0.005520  
3159.000000	0.005470  
3158.000000	0.005479  
3157.000000	0.005482  
3156.000000	0.005475  
3155.000000	0.005496  
3154.000000	0.005569  
3153.000000	0.005659  
3152.000000	0.005693  
3151.000000	0.005619  
3150.000000	0.005453  
3149.000000	0.005278  
3148.000000	0.005177  
3147.000000	0.005172  
3146.000000	0.005218  
3145.000000	0.005243  
3144.000000	0.005204  
3143.000000	0.005106  
3142.000000	0.004990  
3141.000000	0.004903  
3140.000000	0.004866  
3139.000000	0.004849  
3138.000000	0.004810  
3137.000000	0.004750  
3136.000000	0.004718  
3135.000000	0.004755  
3134.000000	0.004836  
3133.000000	0.004888  
3132.000000	0.004878  
3131.000000	0.004845  
3130.000000	0.004842  
3129.000000	0.004859  
3128.000000	0.004845  
3127.000000	0.004788  
3126.000000	0.004733  
3125.000000	0.004715  
3124.000000	0.004720  
3123.000000	0.004728  
3122.000000	0.004757  
3121.000000	0.004824  
3120.000000	0.004886  
3119.000000	0.004870  
3118.000000	0.004762  
3117.000000	0.004633  
3116.000000	0.004560  
3115.000000	0.004561  
3114.000000	0.004593  
3113.000000	0.004614  
3112.000000	0.004611  
3111.000000	0.004592  
3110.000000	0.004578  
3109.000000	0.004582  
3108.000000	0.004601  
3107.000000	0.004606  
3106.000000	0.004569  
3105.000000	0.004482  
3104.000000	0.004371  
3103.000000	0.004295  
3102.000000	0.004311  
3101.000000	0.004431  
3100.000000	0.004596  
3099.000000	0.004708  
3098.000000	0.004699  
3097.000000	0.004579  
3096.000000	0.004426  
3095.000000	0.004324  
3094.000000	0.004306  
3093.000000	0.004346  
3092.000000	0.004391  
3091.000000	0.004411  
3090.000000	0.004415  
3089.000000	0.004426  
3088.000000	0.004441  
3087.000000	0.004430  
3086.000000	0.004383  
3085.000000	0.004329  
3084.000000	0.004313  
3083.000000	0.004359  
3082.000000	0.004444  
3081.000000	0.004528  
3080.000000	0.004581  
3079.000000	0.004598  
3078.000000	0.004600  
3077.000000	0.004616  
3076.000000	0.004651  
3075.000000	0.004679  
3074.000000	0.004656  
3073.000000	0.004573  
3072.000000	0.004474  
3071.000000	0.004418  
3070.000000	0.004423  
3069.000000	0.004467  
3068.000000	0.004534  
3067.000000	0.004620  
3066.000000	0.004700  
3065.000000	0.004710  
3064.000000	0.004618  
3063.000000	0.004473  
3062.000000	0.004366  
3061.000000	0.004343  
3060.000000	0.004383  
3059.000000	0.004449  
3058.000000	0.004523  
3057.000000	0.004580  
3056.000000	0.004580  
3055.000000	0.004527  
3054.000000	0.004488  
3053.000000	0.004535  
3052.000000	0.004664  
3051.000000	0.004794  
3050.000000	0.004850  
3049.000000	0.004823  
3048.000000	0.004773  
3047.000000	0.004760  
3046.000000	0.004808  
3045.000000	0.004884  
3044.000000	0.004946  
3043.000000	0.004985  
3042.000000	0.005031  
3041.000000	0.005109  
3040.000000	0.005191  
3039.000000	0.005239  
3038.000000	0.005256  
3037.000000	0.005291  
3036.000000	0.005385  
3035.000000	0.005538  
3034.000000	0.005734  
3033.000000	0.005956  
3032.000000	0.006175  
3031.000000	0.006340  
3030.000000	0.006421  
3029.000000	0.006435  
3028.000000	0.006448  
3027.000000	0.006522  
3026.000000	0.006673  
3025.000000	0.006853  
3024.000000	0.007004  
3023.000000	0.007128  
3022.000000	0.007307  
3021.000000	0.007622  
3020.000000	0.008077  
3019.000000	0.008603  
3018.000000	0.009144  
3017.000000	0.009682  
3016.000000	0.010203  
3015.000000	0.010676  
3014.000000	0.011086  
3013.000000	0.011459  
3012.000000	0.011808  
3011.000000	0.012099  
3010.000000	0.012279  
3009.000000	0.012343  
3008.000000	0.012324  
3007.000000	0.012235  
3006.000000	0.012062  
3005.000000	0.011795  
3004.000000	0.011474  
3003.000000	0.011158  
3002.000000	0.010886  
3001.000000	0.010666  
3000.000000	0.010495  
2999.000000	0.010390  
2998.000000	0.010383  
2997.000000	0.010493  
2996.000000	0.010697  
2995.000000	0.010935  
2994.000000	0.011157  
2993.000000	0.011352  
2992.000000	0.011533  
2991.000000	0.011722  
2990.000000	0.011972  
2989.000000	0.012362  
2988.000000	0.012952  
2987.000000	0.013719  
2986.000000	0.014567  
2985.000000	0.015429  
2984.000000	0.016319  
2983.000000	0.017304  
2982.000000	0.018425  
2981.000000	0.019698  
2980.000000	0.021150  
2979.000000	0.022834  
2978.000000	0.024785  
2977.000000	0.026984  
2976.000000	0.029401  
2975.000000	0.032068  
2974.000000	0.035094  
2973.000000	0.038573  
2972.000000	0.042489  
2971.000000	0.046730  
2970.000000	0.051193  
2969.000000	0.055884  
2968.000000	0.060885  
2967.000000	0.066225  
2966.000000	0.071799  
2965.000000	0.077406  
2964.000000	0.082852  
2963.000000	0.087993  
2962.000000	0.092731  
2961.000000	0.097005  
2960.000000	0.100792  
2959.000000	0.104068  
2958.000000	0.106749  
2957.000000	0.108698  
2956.000000	0.109793  
2955.000000	0.109975  
2954.000000	0.109275  
2953.000000	0.107805  
2952.000000	0.105763  
2951.000000	0.103407  
2950.000000	0.101017  
2949.000000	0.098849  
2948.000000	0.097090  
2947.000000	0.095835  
2946.000000	0.095129  
2945.000000	0.095045  
2944.000000	0.095711  
2943.000000	0.097254  
2942.000000	0.099726  
2941.000000	0.103083  
2940.000000	0.107213  
2939.000000	0.111961  
2938.000000	0.117163  
2937.000000	0.122709  
2936.000000	0.128587  
2935.000000	0.134825  
2934.000000	0.141373  
2933.000000	0.148080  
2932.000000	0.154788  
2931.000000	0.161397  
2930.000000	0.167830  
2929.000000	0.173990  
2928.000000	0.179770  
2927.000000	0.185057  
2926.000000	0.189684  
2925.000000	0.193404  
2924.000000	0.195933  
2923.000000	0.197014  
2922.000000	0.196512  
2921.000000	0.194511  
2920.000000	0.191319  
2919.000000	0.187315  
2918.000000	0.182767  
2917.000000	0.177821  
2916.000000	0.172597  
2915.000000	0.167245  
2914.000000	0.161913  
2913.000000	0.156707  
2912.000000	0.151691  
2911.000000	0.146894  
2910.000000	0.142318  
2909.000000	0.137962  
2908.000000	0.133839  
2907.000000	0.129954  
2906.000000	0.126262  
2905.000000	0.122690  
2904.000000	0.119182  
2903.000000	0.115728  
2902.000000	0.112358  
2901.000000	0.109113  
2900.000000	0.106002  
2899.000000	0.102966  
2898.000000	0.099915  
2897.000000	0.096812  
2896.000000	0.093719  
2895.000000	0.090735  
2894.000000	0.087906  
2893.000000	0.085204  
2892.000000	0.082577  
2891.000000	0.080006  
2890.000000	0.077512  
2889.000000	0.075154  
2888.000000	0.073011  
2887.000000	0.071159  
2886.000000	0.069647  
2885.000000	0.068508  
2884.000000	0.067796  
2883.000000	0.067595  
2882.000000	0.067979  
2881.000000	0.068982  
2880.000000	0.070596  
2879.000000	0.072795  
2878.000000	0.075533  
2877.000000	0.078692  
2876.000000	0.082026  
2875.000000	0.085174  
2874.000000	0.087769  
2873.000000	0.089596  
2872.000000	0.090674  
2871.000000	0.091205  
2870.000000	0.091439  
2869.000000	0.091581  
2868.000000	0.091776  
2867.000000	0.092151  
2866.000000	0.092857  
2865.000000	0.094084  
2864.000000	0.096001  
2863.000000	0.098662  
2862.000000	0.101961  
2861.000000	0.105693  
2860.000000	0.109641  
2859.000000	0.113605  
2858.000000	0.117380  
2857.000000	0.120741  
2856.000000	0.123432  
2855.000000	0.125119  
2854.000000	0.125411  
2853.000000	0.124035  
2852.000000	0.121011  
2851.000000	0.116620  
2850.000000	0.111212  
2849.000000	0.105087  
2848.000000	0.098540  
2847.000000	0.091901  
2846.000000	0.085451  
2845.000000	0.079323  
2844.000000	0.073512  
2843.000000	0.067967  
2842.000000	0.062668  
2841.000000	0.057622  
2840.000000	0.052854  
2839.000000	0.048420  
2838.000000	0.044389  
2837.000000	0.040817  
2836.000000	0.037697  
2835.000000	0.034966  
2834.000000	0.032546  
2833.000000	0.030373  
2832.000000	0.028404  
2831.000000	0.026611  
2830.000000	0.024985  
2829.000000	0.023533  
2828.000000	0.022260  
2827.000000	0.021148  
2826.000000	0.020147  
2825.000000	0.019208  
2824.000000	0.018315  
2823.000000	0.017496  
2822.000000	0.016781  
2821.000000	0.016166  
2820.000000	0.015616  
2819.000000	0.015093  
2818.000000	0.014579  
2817.000000	0.014079  
2816.000000	0.013603  
2815.000000	0.013159  
2814.000000	0.012749  
2813.000000	0.012370  
2812.000000	0.012017  
2811.000000	0.011687  
2810.000000	0.011369  
2809.000000	0.011054  
2808.000000	0.010749  
2807.000000	0.010477  
2806.000000	0.010246  
2805.000000	0.010041  
2804.000000	0.009850  
2803.000000	0.009690  
2802.000000	0.009571  
2801.000000	0.009452  
2800.000000	0.009269  
2799.000000	0.009014  
2798.000000	0.008755  
2797.000000	0.008560  
2796.000000	0.008426  
2795.000000	0.008303  
2794.000000	0.008167  
2793.000000	0.008034  
2792.000000	0.007913  
2791.000000	0.007793  
2790.000000	0.007658  
2789.000000	0.007508  
2788.000000	0.007342  
2787.000000	0.007163  
2786.000000	0.006987  
2785.000000	0.006842  
2784.000000	0.006737  
2783.000000	0.006650  
2782.000000	0.006547  
2781.000000	0.006417  
2780.000000	0.006272  
2779.000000	0.006125  
2778.000000	0.005982  
2777.000000	0.005831  
2776.000000	0.005669  
2775.000000	0.005510  
2774.000000	0.005388  
2773.000000	0.005320  
2772.000000	0.005285  
2771.000000	0.005238  
2770.000000	0.005161  
2769.000000	0.005077  
2768.000000	0.005013  
2767.000000	0.004958  
2766.000000	0.004874  
2765.000000	0.004760  
2764.000000	0.004672  
2763.000000	0.004656  
2762.000000	0.004692  
2761.000000	0.004700  
2760.000000	0.004627  
2759.000000	0.004501  
2758.000000	0.004397  
2757.000000	0.004359  
2756.000000	0.004375  
2755.000000	0.004406  
2754.000000	0.004420  
2753.000000	0.004403  
2752.000000	0.004350  
2751.000000	0.004279  
2750.000000	0.004230  
2749.000000	0.004233  
2748.000000	0.004271  
2747.000000	0.004292  
2746.000000	0.004256  
2745.000000	0.004177  
2744.000000	0.004112  
2743.000000	0.004095  
2742.000000	0.004115  
2741.000000	0.004143  
2740.000000	0.004186  
2739.000000	0.004278  
2738.000000	0.004418  
2737.000000	0.004548  
2736.000000	0.004609  
2735.000000	0.004616  
2734.000000	0.004631  
2733.000000	0.004686  
2732.000000	0.004751  
2731.000000	0.004775  
2730.000000	0.004747  
2729.000000	0.004697  
2728.000000	0.004664  
2727.000000	0.004663  
2726.000000	0.004675  
2725.000000	0.004660  
2724.000000	0.004604  
2723.000000	0.004543  
2722.000000	0.004528  
2721.000000	0.004559  
2720.000000	0.004585  
2719.000000	0.004564  
2718.000000	0.004515  
2717.000000	0.004473  
2716.000000	0.004437  
2715.000000	0.004377  
2714.000000	0.004280  
2713.000000	0.004162  
2712.000000	0.004046  
2711.000000	0.003937  
2710.000000	0.003831  
2709.000000	0.003728  
2708.000000	0.003635  
2707.000000	0.003565  
2706.000000	0.003524  
2705.000000	0.003503  
2704.000000	0.003480  
2703.000000	0.003447  
2702.000000	0.003417  
2701.000000	0.003402  
2700.000000	0.003386  
2699.000000	0.003343  
2698.000000	0.003285  
2697.000000	0.003266  
2696.000000	0.003336  
2695.000000	0.003485  
2694.000000	0.003640  
2693.000000	0.003720  
2692.000000	0.003696  
2691.000000	0.003600  
2690.000000	0.003495  
2689.000000	0.003437  
2688.000000	0.003444  
2687.000000	0.003497  
2686.000000	0.003554  
2685.000000	0.003574  
2684.000000	0.003558  
2683.000000	0.003547  
2682.000000	0.003576  
2681.000000	0.003627  
2680.000000	0.003651  
2679.000000	0.003628  
2678.000000	0.003583  
2677.000000	0.003553  
2676.000000	0.003552  
2675.000000	0.003578  
2674.000000	0.003623  
2673.000000	0.003683  
2672.000000	0.003749  
2671.000000	0.003807  
2670.000000	0.003836  
2669.000000	0.003811  
2668.000000	0.003731  
2667.000000	0.003632  
2666.000000	0.003563  
2665.000000	0.003531  
2664.000000	0.003516  
2663.000000	0.003506  
2662.000000	0.003503  
2661.000000	0.003484  
2660.000000	0.003409  
2659.000000	0.003290  
2658.000000	0.003209  
2657.000000	0.003228  
2656.000000	0.003319  
2655.000000	0.003387  
2654.000000	0.003367  
2653.000000	0.003260  
2652.000000	0.003115  
2651.000000	0.002991  
2650.000000	0.002921  
2649.000000	0.002884  
2648.000000	0.002818  
2647.000000	0.002702  
2646.000000	0.002590  
2645.000000	0.002546  
2644.000000	0.002563  
2643.000000	0.002593  
2642.000000	0.002628  
2641.000000	0.002688  
2640.000000	0.002749  
2639.000000	0.002741  
2638.000000	0.002630  
2637.000000	0.002472  
2636.000000	0.002350  
2635.000000	0.002309  
2634.000000	0.002347  
2633.000000	0.002444  
2632.000000	0.002557  
2631.000000	0.002634  
2630.000000	0.002647  
2629.000000	0.002613  
2628.000000	0.002575  
2627.000000	0.002552  
2626.000000	0.002528  
2625.000000	0.002474  
2624.000000	0.002377  
2623.000000	0.002269  
2622.000000	0.002212  
2621.000000	0.002242  
2620.000000	0.002329  
2619.000000	0.002408  
2618.000000	0.002447  
2617.000000	0.002454  
2616.000000	0.002443  
2615.000000	0.002425  
2614.000000	0.002421  
2613.000000	0.002440  
2612.000000	0.002442  
2611.000000	0.002369  
2610.000000	0.002224  
2609.000000	0.002095  
2608.000000	0.002065  
2607.000000	0.002128  
2606.000000	0.002214  
2605.000000	0.002263  
2604.000000	0.002260  
2603.000000	0.002216  
2602.000000	0.002146  
2601.000000	0.002072  
2600.000000	0.001995  
2599.000000	0.001893  
2598.000000	0.001760  
2597.000000	0.001647  
2596.000000	0.001621  
2595.000000	0.001676  
2594.000000	0.001726  
2593.000000	0.001699  
2592.000000	0.001626  
2591.000000	0.001604  
2590.000000	0.001689  
2589.000000	0.001847  
2588.000000	0.002000  
2587.000000	0.002091  
2586.000000	0.002111  
2585.000000	0.002079  
2584.000000	0.002029  
2583.000000	0.001982  
2582.000000	0.001921  
2581.000000	0.001805  
2580.000000	0.001629  
2579.000000	0.001457  
2578.000000	0.001360  
2577.000000	0.001341  
2576.000000	0.001336  
2575.000000	0.001300  
2574.000000	0.001246  
2573.000000	0.001208  
2572.000000	0.001205  
2571.000000	0.001238  
2570.000000	0.001304  
2569.000000	0.001398  
2568.000000	0.001504  
2567.000000	0.001599  
2566.000000	0.001658  
2565.000000	0.001652  
2564.000000	0.001585  
2563.000000	0.001505  
2562.000000	0.001462  
2561.000000	0.001450  
2560.000000	0.001432  
2559.000000	0.001411  
2558.000000	0.001425  
2557.000000	0.001468  
2556.000000	0.001477  
2555.000000	0.001421  
2554.000000	0.001330  
2553.000000	0.001235  
2552.000000	0.001115  
2551.000000	0.000956  
2550.000000	0.000808  
2549.000000	0.000720  
2548.000000	0.000685  
2547.000000	0.000680  
2546.000000	0.000724  
2545.000000	0.000841  
2544.000000	0.000983  
2543.000000	0.001076  
2542.000000	0.001117  
2541.000000	0.001159  
2540.000000	0.001218  
2539.000000	0.001251  
2538.000000	0.001225  
2537.000000	0.001153  
2536.000000	0.001055  
2535.000000	0.000938  
2534.000000	0.000805  
2533.000000	0.000660  
2532.000000	0.000503  
2531.000000	0.000374  
2530.000000	0.000378  
2529.000000	0.000589  
2528.000000	0.000923  
2527.000000	0.001161  
2526.000000	0.001155  
2525.000000	0.000960  
2524.000000	0.000760  
2523.000000	0.000695  
2522.000000	0.000775  
2521.000000	0.000930  
2520.000000	0.001075  
2519.000000	0.001150  
2518.000000	0.001135  
2517.000000	0.001063  
2516.000000	0.000997  
2515.000000	0.000993  
2514.000000	0.001060  
2513.000000	0.001137  
2512.000000	0.001131  
2511.000000	0.000993  
2510.000000	0.000780  
2509.000000	0.000624  
2508.000000	0.000613  
2507.000000	0.000710  
2506.000000	0.000792  
2505.000000	0.000772  
2504.000000	0.000679  
2503.000000	0.000609  
2502.000000	0.000627  
2501.000000	0.000718  
2500.000000	0.000847  
2499.000000	0.001000  
2498.000000	0.001153  
2497.000000	0.001232  
2496.000000	0.001182  
2495.000000	0.001043  
2494.000000	0.000924  
2493.000000	0.000867  
2492.000000	0.000818  
2491.000000	0.000733  
2490.000000	0.000654  
2489.000000	0.000635  
2488.000000	0.000659  
2487.000000	0.000680  
2486.000000	0.000686  
2485.000000	0.000688  
2484.000000	0.000658  
2483.000000	0.000574  
2482.000000	0.000493  
2481.000000	0.000513  
2480.000000	0.000652  
2479.000000	0.000822  
2478.000000	0.000920  
2477.000000	0.000904  
2476.000000	0.000789  
2475.000000	0.000624  
2474.000000	0.000480  
2473.000000	0.000419  
2472.000000	0.000443  
2471.000000	0.000492  
2470.000000	0.000497  
2469.000000	0.000440  
2468.000000	0.000357  
2467.000000	0.000303  
2466.000000	0.000302  
2465.000000	0.000323  
2464.000000	0.000324  
2463.000000	0.000305  
2462.000000	0.000307  
2461.000000	0.000335  
2460.000000	0.000336  
2459.000000	0.000271  
2458.000000	0.000173  
2457.000000	0.000095  
2456.000000	0.000044  
2455.000000	0.000002  
2454.000000	-0.000013 
2453.000000	0.000034  
2452.000000	0.000132  
2451.000000	0.000230  
2450.000000	0.000311  
2449.000000	0.000397  
2448.000000	0.000483  
2447.000000	0.000527  
2446.000000	0.000499  
2445.000000	0.000422  
2444.000000	0.000344  
2443.000000	0.000298  
2442.000000	0.000283  
2441.000000	0.000260  
2440.000000	0.000176  
2439.000000	0.000037  
2438.000000	-0.000066 
2437.000000	-0.000043 
2436.000000	0.000093  
2435.000000	0.000236  
2434.000000	0.000286  
2433.000000	0.000225  
2432.000000	0.000109  
2431.000000	0.000038  
2430.000000	0.000101  
2429.000000	0.000286  
2428.000000	0.000460  
2427.000000	0.000489  
2426.000000	0.000383  
2425.000000	0.000279  
2424.000000	0.000282  
2423.000000	0.000391  
2422.000000	0.000551  
2421.000000	0.000700  
2420.000000	0.000751  
2419.000000	0.000639  
2418.000000	0.000421  
2417.000000	0.000278  
2416.000000	0.000332  
2415.000000	0.000513  
2414.000000	0.000643  
2413.000000	0.000629  
2412.000000	0.000522  
2411.000000	0.000400  
2410.000000	0.000295  
2409.000000	0.000220  
2408.000000	0.000205  
2407.000000	0.000247  
2406.000000	0.000282  
2405.000000	0.000245  
2404.000000	0.000159  
2403.000000	0.000118  
2402.000000	0.000171  
2401.000000	0.000259  
2400.000000	0.000306  
2399.000000	0.000318  
2398.000000	0.000359  
2397.000000	0.000445  
2396.000000	0.000519  
2395.000000	0.000533  
2394.000000	0.000496  
2393.000000	0.000447  
2392.000000	0.000415  
2391.000000	0.000426  
2390.000000	0.000484  
2389.000000	0.000525  
2388.000000	0.000453  
2387.000000	0.000262  
2386.000000	0.000088  
2385.000000	0.000080  
2384.000000	0.000243  
2383.000000	0.000466  
2382.000000	0.000657  
2381.000000	0.000813  
2380.000000	0.000953  
2379.000000	0.001057  
2378.000000	0.001093  
2377.000000	0.001032  
2376.000000	0.000829  
2375.000000	0.000483  
2374.000000	0.000159  
2373.000000	0.000108  
2372.000000	0.000391  
2371.000000	0.000777  
2370.000000	0.001020  
2369.000000	0.001118  
2368.000000	0.001202  
2367.000000	0.001297  
2366.000000	0.001335  
2365.000000	0.001256  
2364.000000	0.000978  
2363.000000	0.000470  
2362.000000	-0.000023 
2361.000000	-0.000109 
2360.000000	0.000244  
2359.000000	0.000620  
2358.000000	0.000748  
2357.000000	0.000809  
2356.000000	0.001022  
2355.000000	0.001304  
2354.000000	0.001465  
2353.000000	0.001431  
2352.000000	0.001227  
2351.000000	0.000944  
2350.000000	0.000739  
2349.000000	0.000737  
2348.000000	0.000911  
2347.000000	0.001052  
2346.000000	0.000979  
2345.000000	0.000794  
2344.000000	0.000698  
2343.000000	0.000670  
2342.000000	0.000625  
2341.000000	0.000631  
2340.000000	0.000767  
2339.000000	0.000954  
2338.000000	0.001048  
2337.000000	0.000988  
2336.000000	0.000831  
2335.000000	0.000696  
2334.000000	0.000688  
2333.000000	0.000782  
2332.000000	0.000808  
2331.000000	0.000635  
2330.000000	0.000340  
2329.000000	0.000115  
2328.000000	0.000037  
2327.000000	0.000044  
2326.000000	0.000073  
2325.000000	0.000124  
2324.000000	0.000201  
2323.000000	0.000266  
2322.000000	0.000268  
2321.000000	0.000186  
2320.000000	0.000029  
2319.000000	-0.000149 
2318.000000	-0.000257 
2317.000000	-0.000191 
2316.000000	0.000066  
2315.000000	0.000406  
2314.000000	0.000628  
2313.000000	0.000581  
2312.000000	0.000286  
2311.000000	-0.000067 
2310.000000	-0.000282 
2309.000000	-0.000318 
2308.000000	-0.000287 
2307.000000	-0.000301 
2306.000000	-0.000390 
2305.000000	-0.000542 
2304.000000	-0.000736 
2303.000000	-0.000909 
2302.000000	-0.000960 
2301.000000	-0.000857 
2300.000000	-0.000707 
2299.000000	-0.000654 
2298.000000	-0.000737 
2297.000000	-0.000873 
2296.000000	-0.000964 
2295.000000	-0.000951 
2294.000000	-0.000824 
2293.000000	-0.000648 
2292.000000	-0.000551 
2291.000000	-0.000601 
2290.000000	-0.000713 
2289.000000	-0.000727 
2288.000000	-0.000593 
2287.000000	-0.000400 
2286.000000	-0.000237 
2285.000000	-0.000120 
2284.000000	-0.000058 
2283.000000	-0.000080 
2282.000000	-0.000166 
2281.000000	-0.000232 
2280.000000	-0.000230 
2279.000000	-0.000205 
2278.000000	-0.000209 
2277.000000	-0.000220 
2276.000000	-0.000204 
2275.000000	-0.000174 
2274.000000	-0.000138 
2273.000000	-0.000069 
2272.000000	0.000019  
2271.000000	0.000034  
2270.000000	-0.000068 
2269.000000	-0.000182 
2268.000000	-0.000168 
2267.000000	-0.000043 
2266.000000	0.000034  
2265.000000	-0.000051 
2264.000000	-0.000281 
2263.000000	-0.000570 
2262.000000	-0.000843 
2261.000000	-0.001021 
2260.000000	-0.001044 
2259.000000	-0.000940 
2258.000000	-0.000846 
2257.000000	-0.000884 
2256.000000	-0.001042 
2255.000000	-0.001183 
2254.000000	-0.001170 
2253.000000	-0.000968 
2252.000000	-0.000656 
2251.000000	-0.000371 
2250.000000	-0.000254 
2249.000000	-0.000370 
2248.000000	-0.000642 
2247.000000	-0.000870 
2246.000000	-0.000877 
2245.000000	-0.000655 
2244.000000	-0.000348 
2243.000000	-0.000105 
2242.000000	0.000012  
2241.000000	-0.000008 
2240.000000	-0.000162 
2239.000000	-0.000361 
2238.000000	-0.000443 
2237.000000	-0.000336 
2236.000000	-0.000181 
2235.000000	-0.000196 
2234.000000	-0.000427 
2233.000000	-0.000674 
2232.000000	-0.000695 
2231.000000	-0.000426 
2230.000000	-0.000044 
2229.000000	0.000158  
2228.000000	0.000001  
2227.000000	-0.000424 
2226.000000	-0.000809 
2225.000000	-0.000904 
2224.000000	-0.000735 
2223.000000	-0.000506 
2222.000000	-0.000373 
2221.000000	-0.000368 
2220.000000	-0.000474 
2219.000000	-0.000636 
2218.000000	-0.000723 
2217.000000	-0.000610 
2216.000000	-0.000332 
2215.000000	-0.000056 
2214.000000	0.000099  
2213.000000	0.000123  
2212.000000	0.000032  
2211.000000	-0.000155 
2210.000000	-0.000341 
2209.000000	-0.000379 
2208.000000	-0.000227 
2207.000000	-0.000004 
2206.000000	0.000147  
2205.000000	0.000188  
2204.000000	0.000161  
2203.000000	0.000130  
2202.000000	0.000153  
2201.000000	0.000234  
2200.000000	0.000299  
2199.000000	0.000276  
2198.000000	0.000197  
2197.000000	0.000126  
2196.000000	0.000020  
2195.000000	-0.000214 
2194.000000	-0.000501 
2193.000000	-0.000609 
2192.000000	-0.000441 
2191.000000	-0.000186 
2190.000000	-0.000100 
2189.000000	-0.000255 
2188.000000	-0.000547 
2187.000000	-0.000847 
2186.000000	-0.001034 
2185.000000	-0.000996 
2184.000000	-0.000765 
2183.000000	-0.000575 
2182.000000	-0.000659 
2181.000000	-0.000965 
2180.000000	-0.001177 
2179.000000	-0.001024 
2178.000000	-0.000531 
2177.000000	0.000014  
2176.000000	0.000300  
2175.000000	0.000250  
2174.000000	0.000059  
2173.000000	-0.000038 
2172.000000	-0.000034 
2171.000000	-0.000128 
2170.000000	-0.000419 
2169.000000	-0.000709 
2168.000000	-0.000703 
2167.000000	-0.000374 
2166.000000	-0.000027 
2165.000000	0.000034  
2164.000000	-0.000176 
2163.000000	-0.000403 
2162.000000	-0.000482 
2161.000000	-0.000484 
2160.000000	-0.000535 
2159.000000	-0.000597 
2158.000000	-0.000581 
2157.000000	-0.000572 
2156.000000	-0.000742 
2155.000000	-0.001068 
2154.000000	-0.001298 
2153.000000	-0.001203 
2152.000000	-0.000804 
2151.000000	-0.000331 
2150.000000	-0.000043 
2149.000000	-0.000068 
2148.000000	-0.000314 
2147.000000	-0.000509 
2146.000000	-0.000439 
2145.000000	-0.000172 
2144.000000	0.000049  
2143.000000	0.000109  
2142.000000	0.000076  
2141.000000	-0.000006 
2140.000000	-0.000185 
2139.000000	-0.000407 
2138.000000	-0.000495 
2137.000000	-0.000415 
2136.000000	-0.000390 
2135.000000	-0.000581 
2134.000000	-0.000824 
2133.000000	-0.000868 
2132.000000	-0.000742 
2131.000000	-0.000660 
2130.000000	-0.000682 
2129.000000	-0.000684 
2128.000000	-0.000610 
2127.000000	-0.000558 
2126.000000	-0.000587 
2125.000000	-0.000616 
2124.000000	-0.000547 
2123.000000	-0.000394 
2122.000000	-0.000227 
2121.000000	-0.000085 
2120.000000	0.000011  
2119.000000	0.000045  
2118.000000	0.000029  
2117.000000	-0.000004 
2116.000000	-0.000050 
2115.000000	-0.000132 
2114.000000	-0.000242 
2113.000000	-0.000354 
2112.000000	-0.000477 
2111.000000	-0.000606 
2110.000000	-0.000663 
2109.000000	-0.000562 
2108.000000	-0.000349 
2107.000000	-0.000171 
2106.000000	-0.000105 
2105.000000	-0.000116 
2104.000000	-0.000182 
2103.000000	-0.000329 
2102.000000	-0.000534 
2101.000000	-0.000699 
2100.000000	-0.000780 
2099.000000	-0.000843 
2098.000000	-0.000953 
2097.000000	-0.001069 
2096.000000	-0.001073 
2095.000000	-0.000873 
2094.000000	-0.000442 
2093.000000	0.000119  
2092.000000	0.000588  
2091.000000	0.000765  
2090.000000	0.000656  
2089.000000	0.000458  
2088.000000	0.000317  
2087.000000	0.000204  
2086.000000	0.000055  
2085.000000	-0.000087 
2084.000000	-0.000144 
2083.000000	-0.000129 
2082.000000	-0.000137 
2081.000000	-0.000226 
2080.000000	-0.000366 
2079.000000	-0.000462 
2078.000000	-0.000439 
2077.000000	-0.000318 
2076.000000	-0.000212 
2075.000000	-0.000194 
2074.000000	-0.000202 
2073.000000	-0.000155 
2072.000000	-0.000108 
2071.000000	-0.000195 
2070.000000	-0.000420 
2069.000000	-0.000647 
2068.000000	-0.000771 
2067.000000	-0.000786 
2066.000000	-0.000688 
2065.000000	-0.000478 
2064.000000	-0.000279 
2063.000000	-0.000249 
2062.000000	-0.000340 
2061.000000	-0.000314 
2060.000000	-0.000064 
2059.000000	0.000213  
2058.000000	0.000276  
2057.000000	0.000126  
2056.000000	-0.000047 
2055.000000	-0.000111 
2054.000000	-0.000089 
2053.000000	-0.000069 
2052.000000	-0.000118 
2051.000000	-0.000226 
2050.000000	-0.000293 
2049.000000	-0.000250 
2048.000000	-0.000218 
2047.000000	-0.000387 
2046.000000	-0.000704 
2045.000000	-0.000897 
2044.000000	-0.000857 
2043.000000	-0.000787 
2042.000000	-0.000844 
2041.000000	-0.000874 
2040.000000	-0.000693 
2039.000000	-0.000411 
2038.000000	-0.000263 
2037.000000	-0.000280 
2036.000000	-0.000336 
2035.000000	-0.000410 
2034.000000	-0.000566 
2033.000000	-0.000762 
2032.000000	-0.000890 
2031.000000	-0.000955 
2030.000000	-0.001029 
2029.000000	-0.001061 
2028.000000	-0.000918 
2027.000000	-0.000575 
2026.000000	-0.000150 
2025.000000	0.000192  
2024.000000	0.000317  
2023.000000	0.000186  
2022.000000	-0.000060 
2021.000000	-0.000183 
2020.000000	-0.000136 
2019.000000	-0.000149 
2018.000000	-0.000420 
2017.000000	-0.000809 
2016.000000	-0.001018 
2015.000000	-0.000968 
2014.000000	-0.000807 
2013.000000	-0.000687 
2012.000000	-0.000685 
2011.000000	-0.000814 
2010.000000	-0.000966 
2009.000000	-0.000929 
2008.000000	-0.000625 
2007.000000	-0.000233 
2006.000000	0.000058  
2005.000000	0.000278  
2004.000000	0.000482  
2003.000000	0.000503  
2002.000000	0.000136  
2001.000000	-0.000490 
2000.000000	-0.000938 
1999.000000	-0.000916 
1998.000000	-0.000552 
1997.000000	-0.000179 
1996.000000	-0.000007 
1995.000000	-0.000049 
1994.000000	-0.000210 
1993.000000	-0.000337 
1992.000000	-0.000296 
1991.000000	-0.000127 
1990.000000	-0.000019 
1989.000000	-0.000082 
1988.000000	-0.000244 
1987.000000	-0.000399 
1986.000000	-0.000556 
1985.000000	-0.000765 
1984.000000	-0.000931 
1983.000000	-0.000874 
1982.000000	-0.000578 
1981.000000	-0.000296 
1980.000000	-0.000269 
1979.000000	-0.000436 
1978.000000	-0.000546 
1977.000000	-0.000535 
1976.000000	-0.000581 
1975.000000	-0.000725 
1974.000000	-0.000723 
1973.000000	-0.000388 
1972.000000	0.000092  
1971.000000	0.000387  
1970.000000	0.000422  
1969.000000	0.000364  
1968.000000	0.000309  
1967.000000	0.000200  
1966.000000	0.000071  
1965.000000	0.000098  
1964.000000	0.000350  
1963.000000	0.000694  
1962.000000	0.000976  
1961.000000	0.001157  
1960.000000	0.001204  
1959.000000	0.001017  
1958.000000	0.000584  
1957.000000	0.000088  
1956.000000	-0.000252 
1955.000000	-0.000389 
1954.000000	-0.000404 
1953.000000	-0.000357 
1952.000000	-0.000289 
1951.000000	-0.000287 
1950.000000	-0.000415 
1949.000000	-0.000587 
1948.000000	-0.000619 
1947.000000	-0.000444 
1946.000000	-0.000195 
1945.000000	-0.000063 
1944.000000	-0.000104 
1943.000000	-0.000227 
1942.000000	-0.000334 
1941.000000	-0.000414 
1940.000000	-0.000460 
1939.000000	-0.000397 
1938.000000	-0.000171 
1937.000000	0.000125  
1936.000000	0.000296  
1935.000000	0.000248  
1934.000000	0.000093  
1933.000000	0.000010  
1932.000000	0.000035  
1931.000000	0.000071  
1930.000000	0.000052  
1929.000000	-0.000019 
1928.000000	-0.000116 
1927.000000	-0.000220 
1926.000000	-0.000291 
1925.000000	-0.000302 
1924.000000	-0.000287 
1923.000000	-0.000298 
1922.000000	-0.000315 
1921.000000	-0.000289 
1920.000000	-0.000222 
1919.000000	-0.000138 
1918.000000	0.000007  
1917.000000	0.000236  
1916.000000	0.000419  
1915.000000	0.000385  
1914.000000	0.000115  
1913.000000	-0.000219 
1912.000000	-0.000407 
1911.000000	-0.000371 
1910.000000	-0.000188 
1909.000000	-0.000003 
1908.000000	0.000076  
1907.000000	0.000029  
1906.000000	-0.000079 
1905.000000	-0.000175 
1904.000000	-0.000239 
1903.000000	-0.000287 
1902.000000	-0.000305 
1901.000000	-0.000278 
1900.000000	-0.000237 
1899.000000	-0.000238 
1898.000000	-0.000282 
1897.000000	-0.000318 
1896.000000	-0.000317 
1895.000000	-0.000278 
1894.000000	-0.000200 
1893.000000	-0.000099 
1892.000000	-0.000051 
1891.000000	-0.000136 
1890.000000	-0.000302 
1889.000000	-0.000389 
1888.000000	-0.000342 
1887.000000	-0.000240 
1886.000000	-0.000155 
1885.000000	-0.000111 
1884.000000	-0.000139 
1883.000000	-0.000251 
1882.000000	-0.000369 
1881.000000	-0.000380 
1880.000000	-0.000280 
1879.000000	-0.000177 
1878.000000	-0.000130 
1877.000000	-0.000071 
1876.000000	0.000054  
1875.000000	0.000188  
1874.000000	0.000256  
1873.000000	0.000266  
1872.000000	0.000253  
1871.000000	0.000201  
1870.000000	0.000109  
1869.000000	0.000089  
1868.000000	0.000191  
1867.000000	0.000272  
1866.000000	0.000237  
1865.000000	0.000133  
1864.000000	0.000028  
1863.000000	-0.000069 
1862.000000	-0.000161 
1861.000000	-0.000215 
1860.000000	-0.000221 
1859.000000	-0.000229 
1858.000000	-0.000267 
1857.000000	-0.000283 
1856.000000	-0.000222 
1855.000000	-0.000113 
1854.000000	-0.000013 
1853.000000	0.000071  
1852.000000	0.000190  
1851.000000	0.000330  
1850.000000	0.000416  
1849.000000	0.000416  
1848.000000	0.000386  
1847.000000	0.000376  
1846.000000	0.000358  
1845.000000	0.000278  
1844.000000	0.000160  
1843.000000	0.000050  
1842.000000	-0.000028 
1841.000000	-0.000073 
1840.000000	-0.000098 
1839.000000	-0.000133 
1838.000000	-0.000183 
1837.000000	-0.000227 
1836.000000	-0.000258 
1835.000000	-0.000285 
1834.000000	-0.000322 
1833.000000	-0.000369 
1832.000000	-0.000417 
1831.000000	-0.000440 
1830.000000	-0.000372 
1829.000000	-0.000220 
1828.000000	-0.000106 
1827.000000	-0.000091 
1826.000000	-0.000131 
1825.000000	-0.000117 
1824.000000	-0.000034 
1823.000000	0.000000  
1822.000000	-0.000071 
1821.000000	-0.000190 
1820.000000	-0.000258 
1819.000000	-0.000253 
1818.000000	-0.000191 
1817.000000	-0.000093 
1816.000000	-0.000002 
1815.000000	0.000026  
1814.000000	-0.000012 
1813.000000	-0.000051 
1812.000000	-0.000032 
1811.000000	0.000026  
1810.000000	0.000088  
1809.000000	0.000138  
1808.000000	0.000149  
1807.000000	0.000083  
1806.000000	-0.000022 
1805.000000	-0.000056 
1804.000000	0.000045  
1803.000000	0.000234  
1802.000000	0.000401  
1801.000000	0.000502  
1800.000000	0.000541  
1799.000000	0.000503  
1798.000000	0.000405  
1797.000000	0.000331  
1796.000000	0.000356  
1795.000000	0.000467  
1794.000000	0.000591  
1793.000000	0.000721  
1792.000000	0.000866  
1791.000000	0.000919  
1790.000000	0.000829  
1789.000000	0.000692  
1788.000000	0.000594  
1787.000000	0.000550  
1786.000000	0.000554  
1785.000000	0.000627  
1784.000000	0.000764  
1783.000000	0.000912  
1782.000000	0.000987  
1781.000000	0.000990  
1780.000000	0.000999  
1779.000000	0.001030  
1778.000000	0.001049  
1777.000000	0.001057  
1776.000000	0.001104  
1775.000000	0.001186  
1774.000000	0.001198  
1773.000000	0.001136  
1772.000000	0.001204  
1771.000000	0.001403  
1770.000000	0.001602  
1769.000000	0.001820  
1768.000000	0.002082  
1767.000000	0.002316  
1766.000000	0.002461  
1765.000000	0.002579  
1764.000000	0.002737  
1763.000000	0.002932  
1762.000000	0.003129  
1761.000000	0.003386  
1760.000000	0.003762  
1759.000000	0.004249  
1758.000000	0.004810  
1757.000000	0.005456  
1756.000000	0.006187  
1755.000000	0.006922  
1754.000000	0.007690  
1753.000000	0.008738  
1752.000000	0.010450  
1751.000000	0.013026  
1750.000000	0.016427  
1749.000000	0.020709  
1748.000000	0.025723  
1747.000000	0.030892  
1746.000000	0.035985  
1745.000000	0.041333  
1744.000000	0.046854  
1743.000000	0.051596  
1742.000000	0.054706  
1741.000000	0.055966  
1740.000000	0.055265  
1739.000000	0.052924  
1738.000000	0.050009  
1737.000000	0.047140  
1736.000000	0.043748  
1735.000000	0.038608  
1734.000000	0.032417  
1733.000000	0.027970  
1732.000000	0.025511  
1731.000000	0.023813  
1730.000000	0.022397  
1729.000000	0.021251  
1728.000000	0.020375  
1727.000000	0.019714  
1726.000000	0.019208  
1725.000000	0.018807  
1724.000000	0.018440  
1723.000000	0.018071  
1722.000000	0.017720  
1721.000000	0.017362  
1720.000000	0.016848  
1719.000000	0.015943  
1718.000000	0.014705  
1717.000000	0.013586  
1716.000000	0.012668  
1715.000000	0.011767  
1714.000000	0.010886  
1713.000000	0.010067  
1712.000000	0.009286  
1711.000000	0.008534  
1710.000000	0.007852  
1709.000000	0.007256  
1708.000000	0.006685  
1707.000000	0.006038  
1706.000000	0.005370  
1705.000000	0.004895  
1704.000000	0.004660  
1703.000000	0.004600  
1702.000000	0.004609  
1701.000000	0.004469  
1700.000000	0.004135  
1699.000000	0.003801  
1698.000000	0.003651  
1697.000000	0.003651  
1696.000000	0.003580  
1695.000000	0.003359  
1694.000000	0.003145  
1693.000000	0.003026  
1692.000000	0.002919  
1691.000000	0.002750  
1690.000000	0.002567  
1689.000000	0.002450  
1688.000000	0.002435  
1687.000000	0.002515  
1686.000000	0.002628  
1685.000000	0.002650  
1684.000000	0.002629  
1683.000000	0.002602  
1682.000000	0.002613  
1681.000000	0.002653  
1680.000000	0.002616  
1679.000000	0.002505  
1678.000000	0.002418  
1677.000000	0.002391  
1676.000000	0.002366  
1675.000000	0.002351  
1674.000000	0.002372  
1673.000000	0.002414  
1672.000000	0.002405  
1671.000000	0.002308  
1670.000000	0.002267  
1669.000000	0.002383  
1668.000000	0.002506  
1667.000000	0.002575  
1666.000000	0.002651  
1665.000000	0.002754  
1664.000000	0.002819  
1663.000000	0.002862  
1662.000000	0.002971  
1661.000000	0.003122  
1660.000000	0.003246  
1659.000000	0.003310  
1658.000000	0.003346  
1657.000000	0.003422  
1656.000000	0.003606  
1655.000000	0.003791  
1654.000000	0.003823  
1653.000000	0.003977  
1652.000000	0.004049  
1651.000000	0.004020  
1650.000000	0.004073  
1649.000000	0.004138  
1648.000000	0.004098  
1647.000000	0.004070  
1646.000000	0.004167  
1645.000000	0.004222  
1644.000000	0.004178  
1643.000000	0.004095  
1642.000000	0.004039  
1641.000000	0.004046  
1640.000000	0.004094  
1639.000000	0.004143  
1638.000000	0.004206  
1637.000000	0.004314  
1636.000000	0.004446  
1635.000000	0.004397  
1634.000000	0.004160  
1633.000000	0.003969  
1632.000000	0.003870  
1631.000000	0.003805  
1630.000000	0.003734  
1629.000000	0.003649  
1628.000000	0.003553  
1627.000000	0.003460  
1626.000000	0.003376  
1625.000000	0.003282  
1624.000000	0.003157  
1623.000000	0.003063  
1622.000000	0.003055  
1621.000000	0.003088  
1620.000000	0.003115  
1619.000000	0.003073  
1618.000000	0.002912  
1617.000000	0.002728  
1616.000000	0.002672  
1615.000000	0.002704  
1614.000000	0.002763  
1613.000000	0.002820  
1612.000000	0.002825  
1611.000000	0.002774  
1610.000000	0.002714  
1609.000000	0.002687  
1608.000000	0.002698  
1607.000000	0.002746  
1606.000000	0.002807  
1605.000000	0.002835  
1604.000000	0.002792  
1603.000000	0.002687  
1602.000000	0.002566  
1601.000000	0.002451  
1600.000000	0.002317  
1599.000000	0.002158  
1598.000000	0.002027  
1597.000000	0.001993  
1596.000000	0.002070  
1595.000000	0.002209  
1594.000000	0.002339  
1593.000000	0.002415  
1592.000000	0.002447  
1591.000000	0.002492  
1590.000000	0.002590  
1589.000000	0.002703  
1588.000000	0.002749  
1587.000000	0.002709  
1586.000000	0.002657  
1585.000000	0.002659  
1584.000000	0.002727  
1583.000000	0.002826  
1582.000000	0.002903  
1581.000000	0.002921  
1580.000000	0.002891  
1579.000000	0.002847  
1578.000000	0.002798  
1577.000000	0.002768  
1576.000000	0.002808  
1575.000000	0.002870  
1574.000000	0.002929  
1573.000000	0.003032  
1572.000000	0.003156  
1571.000000	0.003226  
1570.000000	0.003263  
1569.000000	0.003310  
1568.000000	0.003313  
1567.000000	0.003264  
1566.000000	0.003200  
1565.000000	0.003110  
1564.000000	0.002989  
1563.000000	0.002859  
1562.000000	0.002823  
1561.000000	0.002891  
1560.000000	0.002830  
1559.000000	0.002633  
1558.000000	0.002524  
1557.000000	0.002441  
1556.000000	0.002493  
1555.000000	0.002598  
1554.000000	0.002617  
1553.000000	0.002570  
1552.000000	0.002521  
1551.000000	0.002476  
1550.000000	0.002436  
1549.000000	0.002401  
1548.000000	0.002345  
1547.000000	0.002262  
1546.000000	0.002170  
1545.000000	0.002131  
1544.000000	0.002114  
1543.000000	0.001962  
1542.000000	0.001619  
1541.000000	0.001495  
1540.000000	0.001986  
1539.000000	0.002414  
1538.000000	0.002462  
1537.000000	0.002465  
1536.000000	0.002505  
1535.000000	0.002514  
1534.000000	0.002518  
1533.000000	0.002650  
1532.000000	0.002785  
1531.000000	0.002775  
1530.000000	0.002678  
1529.000000	0.002594  
1528.000000	0.002578  
1527.000000	0.002608  
1526.000000	0.002646  
1525.000000	0.002699  
1524.000000	0.002754  
1523.000000	0.002770  
1522.000000	0.002869  
1521.000000	0.003166  
1520.000000	0.003399  
1519.000000	0.003449  
1518.000000	0.003459  
1517.000000	0.003583  
1516.000000	0.003778  
1515.000000	0.003880  
1514.000000	0.003928  
1513.000000	0.004025  
1512.000000	0.004168  
1511.000000	0.004304  
1510.000000	0.004466  
1509.000000	0.004722  
1508.000000	0.005013  
1507.000000	0.005218  
1506.000000	0.005276  
1505.000000	0.005278  
1504.000000	0.005358  
1503.000000	0.005492  
1502.000000	0.005663  
1501.000000	0.005881  
1500.000000	0.006099  
1499.000000	0.006246  
1498.000000	0.006418  
1497.000000	0.006815  
1496.000000	0.007250  
1495.000000	0.007416  
1494.000000	0.007417  
1493.000000	0.007455  
1492.000000	0.007543  
1491.000000	0.007700  
1490.000000	0.008196  
1489.000000	0.009059  
1488.000000	0.009778  
1487.000000	0.010151  
1486.000000	0.010475  
1485.000000	0.010960  
1484.000000	0.011601  
1483.000000	0.012390  
1482.000000	0.013450  
1481.000000	0.014777  
1480.000000	0.016091  
1479.000000	0.017243  
1478.000000	0.018485  
1477.000000	0.020096  
1476.000000	0.021996  
1475.000000	0.024178  
1474.000000	0.027755  
1473.000000	0.034232  
1472.000000	0.042171  
1471.000000	0.048846  
1470.000000	0.054285  
1469.000000	0.059336  
1468.000000	0.064005  
1467.000000	0.068033  
1466.000000	0.071400  
1465.000000	0.074112  
1464.000000	0.075863  
1463.000000	0.076699  
1462.000000	0.077133  
1461.000000	0.077483  
1460.000000	0.077823  
1459.000000	0.078286  
1458.000000	0.079092  
1457.000000	0.079298  
1456.000000	0.077710  
1455.000000	0.075223  
1454.000000	0.072675  
1453.000000	0.069967  
1452.000000	0.067092  
1451.000000	0.064347  
1450.000000	0.061925  
1449.000000	0.059553  
1448.000000	0.056922  
1447.000000	0.054177  
1446.000000	0.051530  
1445.000000	0.048901  
1444.000000	0.046203  
1443.000000	0.043527  
1442.000000	0.041022  
1441.000000	0.038749  
1440.000000	0.036743  
1439.000000	0.034989  
1438.000000	0.033309  
1437.000000	0.031473  
1436.000000	0.029664  
1435.000000	0.028203  
1434.000000	0.026962  
1433.000000	0.025641  
1432.000000	0.024154  
1431.000000	0.022624  
1430.000000	0.021186  
1429.000000	0.019911  
1428.000000	0.018903  
1427.000000	0.018243  
1426.000000	0.017838  
1425.000000	0.017514  
1424.000000	0.017219  
1423.000000	0.016974  
1422.000000	0.016729  
1421.000000	0.016398  
1420.000000	0.016002  
1419.000000	0.015671  
1418.000000	0.015372  
1417.000000	0.014966  
1416.000000	0.014495  
1415.000000	0.014049  
1414.000000	0.013630  
1413.000000	0.013239  
1412.000000	0.012949  
1411.000000	0.012805  
1410.000000	0.012713  
1409.000000	0.012577  
1408.000000	0.012448  
1407.000000	0.012445  
1406.000000	0.012588  
1405.000000	0.012796  
1404.000000	0.013035  
1403.000000	0.013315  
1402.000000	0.013634  
1401.000000	0.014007  
1400.000000	0.014497  
1399.000000	0.015079  
1398.000000	0.015571  
1397.000000	0.015893  
1396.000000	0.016190  
1395.000000	0.016584  
1394.000000	0.016964  
1393.000000	0.017222  
1392.000000	0.017448  
1391.000000	0.017761  
1390.000000	0.018238  
1389.000000	0.019049  
1388.000000	0.020470  
1387.000000	0.022489  
1386.000000	0.024642  
1385.000000	0.026665  
1384.000000	0.028783  
1383.000000	0.031296  
1382.000000	0.034291  
1381.000000	0.037627  
1380.000000	0.040933  
1379.000000	0.043563  
1378.000000	0.044882  
1377.000000	0.044688  
1376.000000	0.043083  
1375.000000	0.040245  
1374.000000	0.036747  
1373.000000	0.033549  
1372.000000	0.031161  
1371.000000	0.029487  
1370.000000	0.028338  
1369.000000	0.027641  
1368.000000	0.027307  
1367.000000	0.027091  
1366.000000	0.026713  
1365.000000	0.025991  
1364.000000	0.024888  
1363.000000	0.023576  
1362.000000	0.022398  
1361.000000	0.021541  
1360.000000	0.020942  
1359.000000	0.020498  
1358.000000	0.020163  
1357.000000	0.019924  
1356.000000	0.019774  
1355.000000	0.019704  
1354.000000	0.019689  
1353.000000	0.019697  
1352.000000	0.019684  
1351.000000	0.019606  
1350.000000	0.019429  
1349.000000	0.019171  
1348.000000	0.018915  
1347.000000	0.018718  
1346.000000	0.018548  
1345.000000	0.018344  
1344.000000	0.018117  
1343.000000	0.017951  
1342.000000	0.017894  
1341.000000	0.017888  
1340.000000	0.017796  
1339.000000	0.017509  
1338.000000	0.017046  
1337.000000	0.016529  
1336.000000	0.016073  
1335.000000	0.015730  
1334.000000	0.015474  
1333.000000	0.015248  
1332.000000	0.015038  
1331.000000	0.014881  
1330.000000	0.014798  
1329.000000	0.014769  
1328.000000	0.014775  
1327.000000	0.014821  
1326.000000	0.014902  
1325.000000	0.015000  
1324.000000	0.015116  
1323.000000	0.015260  
1322.000000	0.015416  
1321.000000	0.015538  
1320.000000	0.015610  
1319.000000	0.015665  
1318.000000	0.015731  
1317.000000	0.015812  
1316.000000	0.015922  
1315.000000	0.016091  
1314.000000	0.016312  
1313.000000	0.016520  
1312.000000	0.016662  
1311.000000	0.016748  
1310.000000	0.016824  
1309.000000	0.016908  
1308.000000	0.016991  
1307.000000	0.017057  
1306.000000	0.017101  
1305.000000	0.017123  
1304.000000	0.017135  
1303.000000	0.017137  
1302.000000	0.017105  
1301.000000	0.017004  
1300.000000	0.016843  
1299.000000	0.016673  
1298.000000	0.016533  
1297.000000	0.016408  
1296.000000	0.016256  
1295.000000	0.016060  
1294.000000	0.015835  
1293.000000	0.015620  
1292.000000	0.015453  
1291.000000	0.015356  
1290.000000	0.015332  
1289.000000	0.015378  
1288.000000	0.015495  
1287.000000	0.015676  
1286.000000	0.015898  
1285.000000	0.016148  
1284.000000	0.016416  
1283.000000	0.016678  
1282.000000	0.016889  
1281.000000	0.017046  
1280.000000	0.017203  
1279.000000	0.017413  
1278.000000	0.017653  
1277.000000	0.017857  
1276.000000	0.018002  
1275.000000	0.018121  
1274.000000	0.018234  
1273.000000	0.018333  
1272.000000	0.018414  
1271.000000	0.018493  
1270.000000	0.018568  
1269.000000	0.018613  
1268.000000	0.018637  
1267.000000	0.018701  
1266.000000	0.018838  
1265.000000	0.019001  
1264.000000	0.019118  
1263.000000	0.019176  
1262.000000	0.019234  
1261.000000	0.019354  
1260.000000	0.019534  
1259.000000	0.019716  
1258.000000	0.019834  
1257.000000	0.019883  
1256.000000	0.019933  
1255.000000	0.020072  
1254.000000	0.020326  
1253.000000	0.020642  
1252.000000	0.020964  
1251.000000	0.021292  
1250.000000	0.021666  
1249.000000	0.022099  
1248.000000	0.022540  
1247.000000	0.022918  
1246.000000	0.023195  
1245.000000	0.023382  
1244.000000	0.023496  
1243.000000	0.023521  
1242.000000	0.023425  
1241.000000	0.023201  
1240.000000	0.022883  
1239.000000	0.022500  
1238.000000	0.022068  
1237.000000	0.021616  
1236.000000	0.021203  
1235.000000	0.020876  
1234.000000	0.020611  
1233.000000	0.020339  
1232.000000	0.020019  
1231.000000	0.019676  
1230.000000	0.019366  
1229.000000	0.019122  
1228.000000	0.018943  
1227.000000	0.018801  
1226.000000	0.018664  
1225.000000	0.018530  
1224.000000	0.018439  
1223.000000	0.018419  
1222.000000	0.018446  
1221.000000	0.018471  
1220.000000	0.018494  
1219.000000	0.018560  
1218.000000	0.018682  
1217.000000	0.018826  
1216.000000	0.018964  
1215.000000	0.019111  
1214.000000	0.019296  
1213.000000	0.019513  
1212.000000	0.019734  
1211.000000	0.019937  
1210.000000	0.020117  
1209.000000	0.020291  
1208.000000	0.020497  
1207.000000	0.020766  
1206.000000	0.021094  
1205.000000	0.021449  
1204.000000	0.021818  
1203.000000	0.022212  
1202.000000	0.022629  
1201.000000	0.023049  
1200.000000	0.023460  
1199.000000	0.023890  
1198.000000	0.024377  
1197.000000	0.024945  
1196.000000	0.025583  
1195.000000	0.026254  
1194.000000	0.026908  
1193.000000	0.027523  
1192.000000	0.028114  
1191.000000	0.028714  
1190.000000	0.029331  
1189.000000	0.029959  
1188.000000	0.030601  
1187.000000	0.031278  
1186.000000	0.031998  
1185.000000	0.032742  
1184.000000	0.033475  
1183.000000	0.034153  
1182.000000	0.034730  
1181.000000	0.035191  
1180.000000	0.035568  
1179.000000	0.035920  
1178.000000	0.036266  
1177.000000	0.036552  
1176.000000	0.036706  
1175.000000	0.036706  
1174.000000	0.036593  
1173.000000	0.036418  
1172.000000	0.036198  
1171.000000	0.035918  
1170.000000	0.035554  
1169.000000	0.035090  
1168.000000	0.034534  
1167.000000	0.033907  
1166.000000	0.033204  
1165.000000	0.032392  
1164.000000	0.031458  
1163.000000	0.030461  
1162.000000	0.029492  
1161.000000	0.028585  
1160.000000	0.027720  
1159.000000	0.026883  
1158.000000	0.026087  
1157.000000	0.025329  
1156.000000	0.024593  
1155.000000	0.023897  
1154.000000	0.023292  
1153.000000	0.022793  
1152.000000	0.022340  
1151.000000	0.021859  
1150.000000	0.021328  
1149.000000	0.020789  
1148.000000	0.020292  
1147.000000	0.019848  
1146.000000	0.019426  
1145.000000	0.018987  
1144.000000	0.018519  
1143.000000	0.018034  
1142.000000	0.017548  
1141.000000	0.017073  
1140.000000	0.016628  
1139.000000	0.016242  
1138.000000	0.015921  
1137.000000	0.015635  
1136.000000	0.015355  
1135.000000	0.015089  
1134.000000	0.014860  
1133.000000	0.014678  
1132.000000	0.014536  
1131.000000	0.014432  
1130.000000	0.014380  
1129.000000	0.014422  
1128.000000	0.014618  
1127.000000	0.015002  
1126.000000	0.015541  
1125.000000	0.016152  
1124.000000	0.016764  
1123.000000	0.017354  
1122.000000	0.017918  
1121.000000	0.018448  
1120.000000	0.018933  
1119.000000	0.019354  
1118.000000	0.019668  
1117.000000	0.019831  
1116.000000	0.019845  
1115.000000	0.019752  
1114.000000	0.019585  
1113.000000	0.019349  
1112.000000	0.019057  
1111.000000	0.018749  
1110.000000	0.018457  
1109.000000	0.018185  
1108.000000	0.017955  
1107.000000	0.017810  
1106.000000	0.017749  
1105.000000	0.017706  
1104.000000	0.017627  
1103.000000	0.017548  
1102.000000	0.017534  
1101.000000	0.017581  
1100.000000	0.017611  
1099.000000	0.017570  
1098.000000	0.017478  
1097.000000	0.017392  
1096.000000	0.017349  
1095.000000	0.017348  
1094.000000	0.017352  
1093.000000	0.017325  
1092.000000	0.017293  
1091.000000	0.017342  
1090.000000	0.017521  
1089.000000	0.017792  
1088.000000	0.018104  
1087.000000	0.018476  
1086.000000	0.018970  
1085.000000	0.019601  
1084.000000	0.020340  
1083.000000	0.021184  
1082.000000	0.022148  
1081.000000	0.023202  
1080.000000	0.024270  
1079.000000	0.025335  
1078.000000	0.026458  
1077.000000	0.027673  
1076.000000	0.028905  
1075.000000	0.030033  
1074.000000	0.030974  
1073.000000	0.031670  
1072.000000	0.032045  
1071.000000	0.032056  
1070.000000	0.031759  
1069.000000	0.031279  
1068.000000	0.030729  
1067.000000	0.030198  
1066.000000	0.029778  
1065.000000	0.029518  
1064.000000	0.029366  
1063.000000	0.029198  
1062.000000	0.028916  
1061.000000	0.028467  
1060.000000	0.027808  
1059.000000	0.026925  
1058.000000	0.025904  
1057.000000	0.024915  
1056.000000	0.024111  
1055.000000	0.023555  
1054.000000	0.023258  
1053.000000	0.023227  
1052.000000	0.023463  
1051.000000	0.023915  
1050.000000	0.024471  
1049.000000	0.024997  
1048.000000	0.025397  
1047.000000	0.025643  
1046.000000	0.025787  
1045.000000	0.025903  
1044.000000	0.026012  
1043.000000	0.026071  
1042.000000	0.026031  
1041.000000	0.025900  
1040.000000	0.025714  
1039.000000	0.025491  
1038.000000	0.025221  
1037.000000	0.024922  
1036.000000	0.024671  
1035.000000	0.024573  
1034.000000	0.024700  
1033.000000	0.025051  
1032.000000	0.025551  
1031.000000	0.026046  
1030.000000	0.026329  
1029.000000	0.026211  
1028.000000	0.025626  
1027.000000	0.024682  
1026.000000	0.023593  
1025.000000	0.022549  
1024.000000	0.021632  
1023.000000	0.020831  
1022.000000	0.020093  
1021.000000	0.019367  
1020.000000	0.018637  
1019.000000	0.017952  
1018.000000	0.017412  
1017.000000	0.017110  
1016.000000	0.017072  
1015.000000	0.017247  
1014.000000	0.017533  
1013.000000	0.017814  
1012.000000	0.017978  
1011.000000	0.017941  
1010.000000	0.017689  
1009.000000	0.017290  
1008.000000	0.016841  
1007.000000	0.016394  
1006.000000	0.015921  
1005.000000	0.015391  
1004.000000	0.014846  
1003.000000	0.014380  
1002.000000	0.014037  
1001.000000	0.013779  
1000.000000	0.013563  
999.000000	 0.013423  
998.000000	 0.013439  
997.000000	 0.013642  
996.000000	 0.013985  
995.000000	 0.014374  
994.000000	 0.014713  
993.000000	 0.014916  
992.000000	 0.014928  
991.000000	 0.014753  
990.000000	 0.014444  
989.000000	 0.014070  
988.000000	 0.013685  
987.000000	 0.013325  
986.000000	 0.013006  
985.000000	 0.012722  
984.000000	 0.012463  
983.000000	 0.012247  
982.000000	 0.012113  
981.000000	 0.012073  
980.000000	 0.012097  
979.000000	 0.012155  
978.000000	 0.012253  
977.000000	 0.012430  
976.000000	 0.012709  
975.000000	 0.013064  
974.000000	 0.013431  
973.000000	 0.013747  
972.000000	 0.013993  
971.000000	 0.014213  
970.000000	 0.014474  
969.000000	 0.014807  
968.000000	 0.015169  
967.000000	 0.015474  
966.000000	 0.015655  
965.000000	 0.015693  
964.000000	 0.015612  
963.000000	 0.015472  
962.000000	 0.015350  
961.000000	 0.015313  
960.000000	 0.015381  
959.000000	 0.015532  
958.000000	 0.015738  
957.000000	 0.015993  
956.000000	 0.016305  
955.000000	 0.016662  
954.000000	 0.017001  
953.000000	 0.017226  
952.000000	 0.017256  
951.000000	 0.017074  
950.000000	 0.016745  
949.000000	 0.016353  
948.000000	 0.015938  
947.000000	 0.015490  
946.000000	 0.015004  
945.000000	 0.014524  
944.000000	 0.014109  
943.000000	 0.013774  
942.000000	 0.013473  
941.000000	 0.013133  
940.000000	 0.012721  
939.000000	 0.012259  
938.000000	 0.011790  
937.000000	 0.011338  
936.000000	 0.010910  
935.000000	 0.010519  
934.000000	 0.010201  
933.000000	 0.009981  
932.000000	 0.009840  
931.000000	 0.009718  
930.000000	 0.009573  
929.000000	 0.009424  
928.000000	 0.009341  
927.000000	 0.009364  
926.000000	 0.009446  
925.000000	 0.009501  
924.000000	 0.009499  
923.000000	 0.009510  
922.000000	 0.009628  
921.000000	 0.009856  
920.000000	 0.010084  
919.000000	 0.010173  
918.000000	 0.010079  
917.000000	 0.009876  
916.000000	 0.009696  
915.000000	 0.009631  
914.000000	 0.009663  
913.000000	 0.009691  
912.000000	 0.009626  
911.000000	 0.009481  
910.000000	 0.009347  
909.000000	 0.009290  
908.000000	 0.009275  
907.000000	 0.009228  
906.000000	 0.009132  
905.000000	 0.009045  
904.000000	 0.009023  
903.000000	 0.009083  
902.000000	 0.009211  
901.000000	 0.009375  
900.000000	 0.009507  
899.000000	 0.009521  
898.000000	 0.009402  
897.000000	 0.009237  
896.000000	 0.009123  
895.000000	 0.009083  
894.000000	 0.009074  
893.000000	 0.009073  
892.000000	 0.009087  
891.000000	 0.009112  
890.000000	 0.009121  
889.000000	 0.009091  
888.000000	 0.009017  
887.000000	 0.008894  
886.000000	 0.008735  
885.000000	 0.008607  
884.000000	 0.008602  
883.000000	 0.008743  
882.000000	 0.008950  
881.000000	 0.009109  
880.000000	 0.009150  
879.000000	 0.009078  
878.000000	 0.008967  
877.000000	 0.008930  
876.000000	 0.009027  
875.000000	 0.009180  
874.000000	 0.009243  
873.000000	 0.009177  
872.000000	 0.009094  
871.000000	 0.009099  
870.000000	 0.009163  
869.000000	 0.009185  
868.000000	 0.009137  
867.000000	 0.009070  
866.000000	 0.009019  
865.000000	 0.008984  
864.000000	 0.008982  
863.000000	 0.009054  
862.000000	 0.009207  
861.000000	 0.009381  
860.000000	 0.009517  
859.000000	 0.009629  
858.000000	 0.009793  
857.000000	 0.010060  
856.000000	 0.010405  
855.000000	 0.010759  
854.000000	 0.011112  
853.000000	 0.011555  
852.000000	 0.012189  
851.000000	 0.012999  
850.000000	 0.013835  
849.000000	 0.014537  
848.000000	 0.015025  
847.000000	 0.015278  
846.000000	 0.015285  
845.000000	 0.015065  
844.000000	 0.014688  
843.000000	 0.014239  
842.000000	 0.013763  
841.000000	 0.013277  
840.000000	 0.012799  
839.000000	 0.012339  
838.000000	 0.011877  
837.000000	 0.011403  
836.000000	 0.010955  
835.000000	 0.010575  
834.000000	 0.010252  
833.000000	 0.009966  
832.000000	 0.009768  
831.000000	 0.009744  
830.000000	 0.009871  
829.000000	 0.009990  
828.000000	 0.009987  
827.000000	 0.009939  
826.000000	 0.009996  
825.000000	 0.010157  
824.000000	 0.010265  
823.000000	 0.010226  
822.000000	 0.010124  
821.000000	 0.010080  
820.000000	 0.010104  
819.000000	 0.010135  
818.000000	 0.010160  
817.000000	 0.010237  
816.000000	 0.010396  
815.000000	 0.010569  
814.000000	 0.010650  
813.000000	 0.010631  
812.000000	 0.010618  
811.000000	 0.010707  
810.000000	 0.010871  
809.000000	 0.011011  
808.000000	 0.011096  
807.000000	 0.011189  
806.000000	 0.011330  
805.000000	 0.011435  
804.000000	 0.011356  
803.000000	 0.011026  
802.000000	 0.010525  
801.000000	 0.010014  
800.000000	 0.009608  
799.000000	 0.009345  
798.000000	 0.009216  
797.000000	 0.009190  
796.000000	 0.009205  
795.000000	 0.009177  
794.000000	 0.009067  
793.000000	 0.008941  
792.000000	 0.008919  
791.000000	 0.009064  
790.000000	 0.009333  
789.000000	 0.009646  
788.000000	 0.009966  
787.000000	 0.010280  
786.000000	 0.010577  
785.000000	 0.010865  
784.000000	 0.011182  
783.000000	 0.011554  
782.000000	 0.011953  
781.000000	 0.012333  
780.000000	 0.012676  
779.000000	 0.012970  
778.000000	 0.013176  
777.000000	 0.013286  
776.000000	 0.013390  
775.000000	 0.013609  
774.000000	 0.013971  
773.000000	 0.014383  
772.000000	 0.014745  
771.000000	 0.015040  
770.000000	 0.015306  
769.000000	 0.015567  
768.000000	 0.015824  
767.000000	 0.016068  
766.000000	 0.016276  
765.000000	 0.016417  
764.000000	 0.016485  
763.000000	 0.016511  
762.000000	 0.016530  
761.000000	 0.016541  
760.000000	 0.016540  
759.000000	 0.016567  
758.000000	 0.016706  
757.000000	 0.017028  
756.000000	 0.017527  
755.000000	 0.018109  
754.000000	 0.018626  
753.000000	 0.018980  
752.000000	 0.019206  
751.000000	 0.019454  
750.000000	 0.019841  
749.000000	 0.020349  
748.000000	 0.020901  
747.000000	 0.021527  
746.000000	 0.022395  
745.000000	 0.023636  
744.000000	 0.025154  
743.000000	 0.026683  
742.000000	 0.028004  
741.000000	 0.029093  
740.000000	 0.030022  
739.000000	 0.030800  
738.000000	 0.031366  
737.000000	 0.031707  
736.000000	 0.031914  
735.000000	 0.032086  
734.000000	 0.032233  
733.000000	 0.032330  
732.000000	 0.032444  
731.000000	 0.032749  
730.000000	 0.033387  
729.000000	 0.034322  
728.000000	 0.035386  
727.000000	 0.036461  
726.000000	 0.037541  
725.000000	 0.038623  
724.000000	 0.039556  
723.000000	 0.040057  
722.000000	 0.039876  
721.000000	 0.038977  
720.000000	 0.037588  
719.000000	 0.036039  
718.000000	 0.034539  
717.000000	 0.033148  
716.000000	 0.031893  
715.000000	 0.030825  
714.000000	 0.029971  
713.000000	 0.029288  
712.000000	 0.028685  
711.000000	 0.028077  
710.000000	 0.027436  
709.000000	 0.026822  
708.000000	 0.026341  
707.000000	 0.026055  
706.000000	 0.025928  
705.000000	 0.025912  
704.000000	 0.026026  
703.000000	 0.026261  
702.000000	 0.026472  
701.000000	 0.026471  
700.000000	 0.026219  
699.000000	 0.025817  
698.000000	 0.025310  
697.000000	 0.024629  
696.000000	 0.023778  
695.000000	 0.022928  
694.000000	 0.022255  
693.000000	 0.021758  
692.000000	 0.021320  
691.000000	 0.020907  
690.000000	 0.020592  
689.000000	 0.020424  
688.000000	 0.020340  
687.000000	 0.020198  
686.000000	 0.019908  
685.000000	 0.019523  
684.000000	 0.019204  
683.000000	 0.019067  
682.000000	 0.019015  
681.000000	 0.018804  
680.000000	 0.018314  
679.000000	 0.017713  
678.000000	 0.017254  
677.000000	 0.017006  
676.000000	 0.016909  
675.000000	 0.016908  
674.000000	 0.016970  
673.000000	 0.017095  
672.000000	 0.017372  
671.000000	 0.018098  
670.000000	 0.019522  
669.000000	 0.021260  
668.000000	 0.021411  
667.000000	 0.019116  
666.000000	 0.016618  
665.000000	 0.015332  
664.000000	 0.015039  
663.000000	 0.015204  
662.000000	 0.015349  
661.000000	 0.015262  
660.000000	 0.015065  
659.000000	 0.014981  
658.000000	 0.015082  
657.000000	 0.015253  
656.000000	 0.015395  
655.000000	 0.015447  
654.000000	 0.015349  
653.000000	 0.015106  
652.000000	 0.014858  
651.000000	 0.014718  
650.000000	 0.014630  

