PE IR                   SPECTRUM    ASCII       PEDS        1.60        
  -1
NB410~1.ASC
17/05/24
07:44:11.00
17/05/24
07:44:11.00
Admin

650.000000
4









SPECTRUM ONE,CPU32 MAIN 00.02.6000 25-JUNE-2003 12:00:00
MIR TGS
MIR
OPTKBR
68128
0.200000

4.000000
STRONG
RATIO
SPECTRUM
MAGNITUDE
UNIVERSAL ATR
DOUBLE

COMBINED


0


#HDR
-1
-1
#GR
CM-1
A
0.00000011920928955078
0.0
4000.000000
-1.000000
3351
8
0.198062
-0.000858
#DATA
4000.000000	0.002987  
3999.000000	0.002834  
3998.000000	0.002771  
3997.000000	0.002791  
3996.000000	0.002866  
3995.000000	0.002825  
3994.000000	0.002664  
3993.000000	0.002425  
3992.000000	0.002203  
3991.000000	0.002089  
3990.000000	0.002117  
3989.000000	0.002255  
3988.000000	0.002438  
3987.000000	0.002603  
3986.000000	0.002707  
3985.000000	0.002732  
3984.000000	0.002687  
3983.000000	0.002607  
3982.000000	0.002537  
3981.000000	0.002502  
3980.000000	0.002499  
3979.000000	0.002507  
3978.000000	0.002510  
3977.000000	0.002509  
3976.000000	0.002513  
3975.000000	0.002526  
3974.000000	0.002540  
3973.000000	0.002551  
3972.000000	0.002572  
3971.000000	0.002624  
3970.000000	0.002707  
3969.000000	0.002784  
3968.000000	0.002802  
3967.000000	0.002733  
3966.000000	0.002596  
3965.000000	0.002450  
3964.000000	0.002355  
3963.000000	0.002332  
3962.000000	0.002355  
3961.000000	0.002366  
3960.000000	0.002324  
3959.000000	0.002239  
3958.000000	0.002165  
3957.000000	0.002167  
3956.000000	0.002264  
3955.000000	0.002412  
3954.000000	0.002525  
3953.000000	0.002544  
3952.000000	0.002477  
3951.000000	0.002383  
3950.000000	0.002321  
3949.000000	0.002303  
3948.000000	0.002304  
3947.000000	0.002306  
3946.000000	0.002314  
3945.000000	0.002344  
3944.000000	0.002394  
3943.000000	0.002435  
3942.000000	0.002451  
3941.000000	0.002450  
3940.000000	0.002448  
3939.000000	0.002447  
3938.000000	0.002427  
3937.000000	0.002370  
3936.000000	0.002291  
3935.000000	0.002239  
3934.000000	0.002259  
3933.000000	0.002346  
3932.000000	0.002455  
3931.000000	0.002537  
3930.000000	0.002561  
3929.000000	0.002511  
3928.000000	0.002402  
3927.000000	0.002263  
3926.000000	0.002124  
3925.000000	0.002002  
3924.000000	0.001900  
3923.000000	0.001826  
3922.000000	0.001806  
3921.000000	0.001873  
3920.000000	0.002030  
3919.000000	0.002211  
3918.000000	0.002317  
3917.000000	0.002309  
3916.000000	0.002251  
3915.000000	0.002237  
3914.000000	0.002308  
3913.000000	0.002442  
3912.000000	0.002579  
3911.000000	0.002657  
3910.000000	0.002635  
3909.000000	0.002493  
3908.000000	0.002253  
3907.000000	0.001989  
3906.000000	0.001794  
3905.000000	0.001716  
3904.000000	0.001713  
3903.000000	0.001706  
3902.000000	0.001691  
3901.000000	0.001733  
3900.000000	0.001878  
3899.000000	0.002089  
3898.000000	0.002285  
3897.000000	0.002414  
3896.000000	0.002470  
3895.000000	0.002479  
3894.000000	0.002463  
3893.000000	0.002418  
3892.000000	0.002346  
3891.000000	0.002275  
3890.000000	0.002207  
3889.000000	0.002121  
3888.000000	0.002033  
3887.000000	0.001998  
3886.000000	0.002035  
3885.000000	0.002115  
3884.000000	0.002186  
3883.000000	0.002233  
3882.000000	0.002288  
3881.000000	0.002369  
3880.000000	0.002452  
3879.000000	0.002491  
3878.000000	0.002453  
3877.000000	0.002355  
3876.000000	0.002262  
3875.000000	0.002215  
3874.000000	0.002201  
3873.000000	0.002178  
3872.000000	0.002130  
3871.000000	0.002087  
3870.000000	0.002090  
3869.000000	0.002138  
3868.000000	0.002188  
3867.000000	0.002226  
3866.000000	0.002262  
3865.000000	0.002284  
3864.000000	0.002249  
3863.000000	0.002139  
3862.000000	0.001993  
3861.000000	0.001868  
3860.000000	0.001793  
3859.000000	0.001747  
3858.000000	0.001697  
3857.000000	0.001650  
3856.000000	0.001670  
3855.000000	0.001759  
3854.000000	0.001803  
3853.000000	0.001878  
3852.000000	0.002068  
3851.000000	0.002269  
3850.000000	0.002386  
3849.000000	0.002386  
3848.000000	0.002262  
3847.000000	0.002032  
3846.000000	0.001766  
3845.000000	0.001602  
3844.000000	0.001676  
3843.000000	0.002008  
3842.000000	0.002433  
3841.000000	0.002692  
3840.000000	0.002633  
3839.000000	0.002372  
3838.000000	0.002174  
3837.000000	0.002121  
3836.000000	0.002083  
3835.000000	0.001954  
3834.000000	0.001772  
3833.000000	0.001689  
3832.000000	0.001815  
3831.000000	0.002111  
3830.000000	0.002420  
3829.000000	0.002600  
3828.000000	0.002606  
3827.000000	0.002493  
3826.000000	0.002353  
3825.000000	0.002229  
3824.000000	0.002136  
3823.000000	0.002063  
3822.000000	0.001974  
3821.000000	0.001894  
3820.000000	0.001880  
3819.000000	0.001913  
3818.000000	0.001975  
3817.000000	0.002070  
3816.000000	0.002185  
3815.000000	0.002284  
3814.000000	0.002339  
3813.000000	0.002344  
3812.000000	0.002315  
3811.000000	0.002271  
3810.000000	0.002244  
3809.000000	0.002248  
3808.000000	0.002253  
3807.000000	0.002226  
3806.000000	0.002181  
3805.000000	0.002160  
3804.000000	0.002198  
3803.000000	0.002270  
3802.000000	0.002288  
3801.000000	0.002214  
3800.000000	0.002089  
3799.000000	0.001987  
3798.000000	0.001962  
3797.000000	0.001996  
3796.000000	0.002020  
3795.000000	0.002003  
3794.000000	0.001981  
3793.000000	0.002008  
3792.000000	0.002093  
3791.000000	0.002171  
3790.000000	0.002166  
3789.000000	0.002081  
3788.000000	0.002003  
3787.000000	0.002040  
3786.000000	0.002215  
3785.000000	0.002444  
3784.000000	0.002612  
3783.000000	0.002668  
3782.000000	0.002616  
3781.000000	0.002458  
3780.000000	0.002209  
3779.000000	0.001956  
3778.000000	0.001807  
3777.000000	0.001798  
3776.000000	0.001891  
3775.000000	0.002017  
3774.000000	0.002110  
3773.000000	0.002131  
3772.000000	0.002062  
3771.000000	0.001935  
3770.000000	0.001852  
3769.000000	0.001915  
3768.000000	0.002106  
3767.000000	0.002295  
3766.000000	0.002351  
3765.000000	0.002264  
3764.000000	0.002150  
3763.000000	0.002150  
3762.000000	0.002327  
3761.000000	0.002602  
3760.000000	0.002778  
3759.000000	0.002724  
3758.000000	0.002528  
3757.000000	0.002379  
3756.000000	0.002378  
3755.000000	0.002504  
3754.000000	0.002636  
3753.000000	0.002595  
3752.000000	0.002317  
3751.000000	0.002069  
3750.000000	0.002101  
3749.000000	0.002254  
3748.000000	0.002270  
3747.000000	0.002069  
3746.000000	0.001743  
3745.000000	0.001458  
3744.000000	0.001356  
3743.000000	0.001396  
3742.000000	0.001419  
3741.000000	0.001354  
3740.000000	0.001261  
3739.000000	0.001285  
3738.000000	0.001571  
3737.000000	0.002099  
3736.000000	0.002567  
3735.000000	0.002665  
3734.000000	0.002425  
3733.000000	0.002099  
3732.000000	0.001855  
3731.000000	0.001697  
3730.000000	0.001568  
3729.000000	0.001442  
3728.000000	0.001352  
3727.000000	0.001340  
3726.000000	0.001391  
3725.000000	0.001436  
3724.000000	0.001416  
3723.000000	0.001352  
3722.000000	0.001328  
3721.000000	0.001395  
3720.000000	0.001514  
3719.000000	0.001604  
3718.000000	0.001617  
3717.000000	0.001573  
3716.000000	0.001538  
3715.000000	0.001571  
3714.000000	0.001656  
3713.000000	0.001684  
3712.000000	0.001617  
3711.000000	0.001582  
3710.000000	0.001647  
3709.000000	0.001740  
3708.000000	0.001793  
3707.000000	0.001795  
3706.000000	0.001772  
3705.000000	0.001758  
3704.000000	0.001777  
3703.000000	0.001819  
3702.000000	0.001854  
3701.000000	0.001862  
3700.000000	0.001837  
3699.000000	0.001795  
3698.000000	0.001783  
3697.000000	0.001850  
3696.000000	0.002004  
3695.000000	0.002206  
3694.000000	0.002413  
3693.000000	0.002600  
3692.000000	0.002715  
3691.000000	0.002679  
3690.000000	0.002476  
3689.000000	0.002241  
3688.000000	0.002133  
3687.000000	0.002182  
3686.000000	0.002303  
3685.000000	0.002377  
3684.000000	0.002322  
3683.000000	0.002136  
3682.000000	0.001909  
3681.000000	0.001773  
3680.000000	0.001832  
3679.000000	0.002131  
3678.000000	0.002638  
3677.000000	0.003132  
3676.000000	0.003223  
3675.000000	0.002855  
3674.000000	0.002355  
3673.000000	0.002003  
3672.000000	0.001943  
3671.000000	0.002190  
3670.000000	0.002521  
3669.000000	0.002670  
3668.000000	0.002610  
3667.000000	0.002466  
3666.000000	0.002344  
3665.000000	0.002292  
3664.000000	0.002305  
3663.000000	0.002347  
3662.000000	0.002375  
3661.000000	0.002349  
3660.000000	0.002253  
3659.000000	0.002111  
3658.000000	0.002000  
3657.000000	0.002014  
3656.000000	0.002179  
3655.000000	0.002396  
3654.000000	0.002529  
3653.000000	0.002541  
3652.000000	0.002487  
3651.000000	0.002444  
3650.000000	0.002562  
3649.000000	0.002914  
3648.000000	0.003205  
3647.000000	0.003214  
3646.000000	0.003024  
3645.000000	0.002781  
3644.000000	0.002569  
3643.000000	0.002429  
3642.000000	0.002370  
3641.000000	0.002375  
3640.000000	0.002409  
3639.000000	0.002424  
3638.000000	0.002371  
3637.000000	0.002240  
3636.000000	0.002075  
3635.000000	0.001938  
3634.000000	0.001851  
3633.000000	0.001787  
3632.000000	0.001763  
3631.000000	0.001887  
3630.000000	0.002201  
3629.000000	0.002541  
3628.000000	0.002741  
3627.000000	0.002787  
3626.000000	0.002741  
3625.000000	0.002682  
3624.000000	0.002666  
3623.000000	0.002724  
3622.000000	0.002872  
3621.000000	0.003092  
3620.000000	0.003285  
3619.000000	0.003346  
3618.000000	0.003288  
3617.000000	0.003185  
3616.000000	0.003087  
3615.000000	0.003002  
3614.000000	0.002905  
3613.000000	0.002765  
3612.000000	0.002593  
3611.000000	0.002443  
3610.000000	0.002391  
3609.000000	0.002487  
3608.000000	0.002697  
3607.000000	0.002933  
3606.000000	0.003126  
3605.000000	0.003270  
3604.000000	0.003381  
3603.000000	0.003463  
3602.000000	0.003523  
3601.000000	0.003591  
3600.000000	0.003676  
3599.000000	0.003724  
3598.000000	0.003669  
3597.000000	0.003531  
3596.000000	0.003421  
3595.000000	0.003436  
3594.000000	0.003550  
3593.000000	0.003657  
3592.000000	0.003685  
3591.000000	0.003649  
3590.000000	0.003609  
3589.000000	0.003594  
3588.000000	0.003617  
3587.000000	0.003734  
3586.000000	0.003955  
3585.000000	0.004183  
3584.000000	0.004323  
3583.000000	0.004357  
3582.000000	0.004342  
3581.000000	0.004354  
3580.000000	0.004423  
3579.000000	0.004521  
3578.000000	0.004600  
3577.000000	0.004651  
3576.000000	0.004705  
3575.000000	0.004779  
3574.000000	0.004854  
3573.000000	0.004886  
3572.000000	0.004844  
3571.000000	0.004733  
3570.000000	0.004594  
3569.000000	0.004485  
3568.000000	0.004466  
3567.000000	0.004584  
3566.000000	0.004784  
3565.000000	0.004937  
3564.000000	0.004991  
3563.000000	0.004988  
3562.000000	0.004990  
3561.000000	0.005027  
3560.000000	0.005095  
3559.000000	0.005175  
3558.000000	0.005244  
3557.000000	0.005281  
3556.000000	0.005303  
3555.000000	0.005362  
3554.000000	0.005486  
3553.000000	0.005632  
3552.000000	0.005714  
3551.000000	0.005695  
3550.000000	0.005619  
3549.000000	0.005573  
3548.000000	0.005618  
3547.000000	0.005741  
3546.000000	0.005864  
3545.000000	0.005919  
3544.000000	0.005912  
3543.000000	0.005910  
3542.000000	0.005968  
3541.000000	0.006080  
3540.000000	0.006189  
3539.000000	0.006239  
3538.000000	0.006223  
3537.000000	0.006187  
3536.000000	0.006178  
3535.000000	0.006196  
3534.000000	0.006201  
3533.000000	0.006167  
3532.000000	0.006107  
3531.000000	0.006072  
3530.000000	0.006116  
3529.000000	0.006251  
3528.000000	0.006425  
3527.000000	0.006563  
3526.000000	0.006628  
3525.000000	0.006654  
3524.000000	0.006716  
3523.000000	0.006855  
3522.000000	0.007040  
3521.000000	0.007196  
3520.000000	0.007266  
3519.000000	0.007253  
3518.000000	0.007213  
3517.000000	0.007208  
3516.000000	0.007256  
3515.000000	0.007315  
3514.000000	0.007324  
3513.000000	0.007267  
3512.000000	0.007205  
3511.000000	0.007220  
3510.000000	0.007332  
3509.000000	0.007485  
3508.000000	0.007619  
3507.000000	0.007737  
3506.000000	0.007873  
3505.000000	0.008029  
3504.000000	0.008139  
3503.000000	0.008133  
3502.000000	0.008020  
3501.000000	0.007886  
3500.000000	0.007809  
3499.000000	0.007812  
3498.000000	0.007872  
3497.000000	0.007955  
3496.000000	0.008026  
3495.000000	0.008063  
3494.000000	0.008081  
3493.000000	0.008154  
3492.000000	0.008355  
3491.000000	0.008655  
3490.000000	0.008908  
3489.000000	0.008980  
3488.000000	0.008903  
3487.000000	0.008844  
3486.000000	0.008913  
3485.000000	0.009044  
3484.000000	0.009090  
3483.000000	0.008986  
3482.000000	0.008805  
3481.000000	0.008667  
3480.000000	0.008629  
3479.000000	0.008681  
3478.000000	0.008810  
3477.000000	0.009021  
3476.000000	0.009303  
3475.000000	0.009601  
3474.000000	0.009832  
3473.000000	0.009944  
3472.000000	0.009936  
3471.000000	0.009841  
3470.000000	0.009696  
3469.000000	0.009552  
3468.000000	0.009474  
3467.000000	0.009512  
3466.000000	0.009642  
3465.000000	0.009777  
3464.000000	0.009841  
3463.000000	0.009826  
3462.000000	0.009783  
3461.000000	0.009764  
3460.000000	0.009789  
3459.000000	0.009851  
3458.000000	0.009923  
3457.000000	0.009970  
3456.000000	0.009980  
3455.000000	0.009984  
3454.000000	0.010032  
3453.000000	0.010147  
3452.000000	0.010315  
3451.000000	0.010509  
3450.000000	0.010710  
3449.000000	0.010901  
3448.000000	0.011061  
3447.000000	0.011172  
3446.000000	0.011224  
3445.000000	0.011212  
3444.000000	0.011145  
3443.000000	0.011053  
3442.000000	0.010984  
3441.000000	0.010970  
3440.000000	0.011004  
3439.000000	0.011056  
3438.000000	0.011096  
3437.000000	0.011118  
3436.000000	0.011131  
3435.000000	0.011147  
3434.000000	0.011158  
3433.000000	0.011167  
3432.000000	0.011206  
3431.000000	0.011321  
3430.000000	0.011516  
3429.000000	0.011715  
3428.000000	0.011820  
3427.000000	0.011793  
3426.000000	0.011680  
3425.000000	0.011562  
3424.000000	0.011483  
3423.000000	0.011429  
3422.000000	0.011369  
3421.000000	0.011307  
3420.000000	0.011289  
3419.000000	0.011356  
3418.000000	0.011485  
3417.000000	0.011615  
3416.000000	0.011710  
3415.000000	0.011794  
3414.000000	0.011913  
3413.000000	0.012067  
3412.000000	0.012205  
3411.000000	0.012265  
3410.000000	0.012220  
3409.000000	0.012100  
3408.000000	0.011991  
3407.000000	0.011991  
3406.000000	0.012121  
3405.000000	0.012298  
3404.000000	0.012400  
3403.000000	0.012382  
3402.000000	0.012305  
3401.000000	0.012256  
3400.000000	0.012272  
3399.000000	0.012330  
3398.000000	0.012383  
3397.000000	0.012395  
3396.000000	0.012368  
3395.000000	0.012343  
3394.000000	0.012369  
3393.000000	0.012450  
3392.000000	0.012541  
3391.000000	0.012586  
3390.000000	0.012564  
3389.000000	0.012495  
3388.000000	0.012423  
3387.000000	0.012395  
3386.000000	0.012436  
3385.000000	0.012511  
3384.000000	0.012555  
3383.000000	0.012539  
3382.000000	0.012503  
3381.000000	0.012505  
3380.000000	0.012554  
3379.000000	0.012589  
3378.000000	0.012547  
3377.000000	0.012435  
3376.000000	0.012329  
3375.000000	0.012307  
3374.000000	0.012371  
3373.000000	0.012453  
3372.000000	0.012497  
3371.000000	0.012526  
3370.000000	0.012607  
3369.000000	0.012759  
3368.000000	0.012908  
3367.000000	0.012970  
3366.000000	0.012929  
3365.000000	0.012851  
3364.000000	0.012815  
3363.000000	0.012858  
3362.000000	0.012963  
3361.000000	0.013077  
3360.000000	0.013158  
3359.000000	0.013205  
3358.000000	0.013242  
3357.000000	0.013277  
3356.000000	0.013279  
3355.000000	0.013224  
3354.000000	0.013138  
3353.000000	0.013082  
3352.000000	0.013090  
3351.000000	0.013133  
3350.000000	0.013151  
3349.000000	0.013113  
3348.000000	0.013036  
3347.000000	0.012966  
3346.000000	0.012942  
3345.000000	0.012991  
3344.000000	0.013123  
3343.000000	0.013311  
3342.000000	0.013476  
3341.000000	0.013532  
3340.000000	0.013441  
3339.000000	0.013247  
3338.000000	0.013036  
3337.000000	0.012878  
3336.000000	0.012804  
3335.000000	0.012823  
3334.000000	0.012914  
3333.000000	0.013028  
3332.000000	0.013112  
3331.000000	0.013145  
3330.000000	0.013136  
3329.000000	0.013082  
3328.000000	0.012968  
3327.000000	0.012802  
3326.000000	0.012659  
3325.000000	0.012636  
3324.000000	0.012775  
3323.000000	0.013019  
3322.000000	0.013251  
3321.000000	0.013379  
3320.000000	0.013404  
3319.000000	0.013386  
3318.000000	0.013369  
3317.000000	0.013331  
3316.000000	0.013225  
3315.000000	0.013054  
3314.000000	0.012880  
3313.000000	0.012763  
3312.000000	0.012710  
3311.000000	0.012704  
3310.000000	0.012740  
3309.000000	0.012813  
3308.000000	0.012904  
3307.000000	0.012968  
3306.000000	0.012964  
3305.000000	0.012877  
3304.000000	0.012738  
3303.000000	0.012611  
3302.000000	0.012549  
3301.000000	0.012543  
3300.000000	0.012535  
3299.000000	0.012499  
3298.000000	0.012468  
3297.000000	0.012480  
3296.000000	0.012520  
3295.000000	0.012541  
3294.000000	0.012538  
3293.000000	0.012552  
3292.000000	0.012614  
3291.000000	0.012682  
3290.000000	0.012674  
3289.000000	0.012538  
3288.000000	0.012321  
3287.000000	0.012138  
3286.000000	0.012080  
3285.000000	0.012127  
3284.000000	0.012178  
3283.000000	0.012162  
3282.000000	0.012117  
3281.000000	0.012120  
3280.000000	0.012179  
3279.000000	0.012222  
3278.000000	0.012188  
3277.000000	0.012110  
3276.000000	0.012074  
3275.000000	0.012117  
3274.000000	0.012192  
3273.000000	0.012214  
3272.000000	0.012135  
3271.000000	0.011976  
3270.000000	0.011803  
3269.000000	0.011677  
3268.000000	0.011632  
3267.000000	0.011650  
3266.000000	0.011672  
3265.000000	0.011632  
3264.000000	0.011512  
3263.000000	0.011367  
3262.000000	0.011284  
3261.000000	0.011307  
3260.000000	0.011409  
3259.000000	0.011527  
3258.000000	0.011604  
3257.000000	0.011607  
3256.000000	0.011543  
3255.000000	0.011463  
3254.000000	0.011428  
3253.000000	0.011439  
3252.000000	0.011431  
3251.000000	0.011363  
3250.000000	0.011265  
3249.000000	0.011196  
3248.000000	0.011158  
3247.000000	0.011105  
3246.000000	0.011030  
3245.000000	0.010984  
3244.000000	0.010999  
3243.000000	0.011021  
3242.000000	0.010955  
3241.000000	0.010767  
3240.000000	0.010528  
3239.000000	0.010352  
3238.000000	0.010301  
3237.000000	0.010351  
3236.000000	0.010430  
3235.000000	0.010495  
3234.000000	0.010559  
3233.000000	0.010641  
3232.000000	0.010707  
3231.000000	0.010692  
3230.000000	0.010584  
3229.000000	0.010465  
3228.000000	0.010434  
3227.000000	0.010510  
3226.000000	0.010615  
3225.000000	0.010648  
3224.000000	0.010576  
3223.000000	0.010437  
3222.000000	0.010292  
3221.000000	0.010168  
3220.000000	0.010064  
3219.000000	0.009986  
3218.000000	0.009950  
3217.000000	0.009955  
3216.000000	0.009965  
3215.000000	0.009949  
3214.000000	0.009924  
3213.000000	0.009938  
3212.000000	0.010002  
3211.000000	0.010057  
3210.000000	0.010029  
3209.000000	0.009906  
3208.000000	0.009753  
3207.000000	0.009648  
3206.000000	0.009618  
3205.000000	0.009629  
3204.000000	0.009623  
3203.000000	0.009574  
3202.000000	0.009500  
3201.000000	0.009434  
3200.000000	0.009390  
3199.000000	0.009357  
3198.000000	0.009320  
3197.000000	0.009279  
3196.000000	0.009233  
3195.000000	0.009181  
3194.000000	0.009118  
3193.000000	0.009054  
3192.000000	0.009013  
3191.000000	0.009012  
3190.000000	0.009043  
3189.000000	0.009060  
3188.000000	0.009017  
3187.000000	0.008906  
3186.000000	0.008780  
3185.000000	0.008712  
3184.000000	0.008738  
3183.000000	0.008833  
3182.000000	0.008931  
3181.000000	0.008967  
3180.000000	0.008906  
3179.000000	0.008758  
3178.000000	0.008563  
3177.000000	0.008364  
3176.000000	0.008188  
3175.000000	0.008068  
3174.000000	0.008037  
3173.000000	0.008099  
3172.000000	0.008199  
3171.000000	0.008256  
3170.000000	0.008239  
3169.000000	0.008188  
3168.000000	0.008163  
3167.000000	0.008192  
3166.000000	0.008268  
3165.000000	0.008366  
3164.000000	0.008433  
3163.000000	0.008394  
3162.000000	0.008212  
3161.000000	0.007944  
3160.000000	0.007717  
3159.000000	0.007607  
3158.000000	0.007584  
3157.000000	0.007559  
3156.000000	0.007498  
3155.000000	0.007452  
3154.000000	0.007480  
3153.000000	0.007571  
3152.000000	0.007653  
3151.000000	0.007670  
3150.000000	0.007615  
3149.000000	0.007531  
3148.000000	0.007471  
3147.000000	0.007469  
3146.000000	0.007505  
3145.000000	0.007496  
3144.000000	0.007358  
3143.000000	0.007104  
3142.000000	0.006860  
3141.000000	0.006752  
3140.000000	0.006787  
3139.000000	0.006864  
3138.000000	0.006901  
3137.000000	0.006922  
3136.000000	0.006999  
3135.000000	0.007144  
3134.000000	0.007277  
3133.000000	0.007307  
3132.000000	0.007221  
3131.000000	0.007088  
3130.000000	0.006984  
3129.000000	0.006938  
3128.000000	0.006933  
3127.000000	0.006943  
3126.000000	0.006956  
3125.000000	0.006959  
3124.000000	0.006937  
3123.000000	0.006878  
3122.000000	0.006795  
3121.000000	0.006724  
3120.000000	0.006700  
3119.000000	0.006743  
3118.000000	0.006845  
3117.000000	0.006972  
3116.000000	0.007071  
3115.000000	0.007104  
3114.000000	0.007065  
3113.000000	0.006967  
3112.000000	0.006836  
3111.000000	0.006700  
3110.000000	0.006599  
3109.000000	0.006558  
3108.000000	0.006558  
3107.000000	0.006547  
3106.000000	0.006474  
3105.000000	0.006332  
3104.000000	0.006159  
3103.000000	0.006027  
3102.000000	0.005995  
3101.000000	0.006068  
3100.000000	0.006176  
3099.000000	0.006232  
3098.000000	0.006202  
3097.000000	0.006131  
3096.000000	0.006088  
3095.000000	0.006111  
3094.000000	0.006188  
3093.000000	0.006285  
3092.000000	0.006367  
3091.000000	0.006411  
3090.000000	0.006407  
3089.000000	0.006364  
3088.000000	0.006297  
3087.000000	0.006228  
3086.000000	0.006180  
3085.000000	0.006177  
3084.000000	0.006229  
3083.000000	0.006320  
3082.000000	0.006407  
3081.000000	0.006447  
3080.000000	0.006426  
3079.000000	0.006359  
3078.000000	0.006287  
3077.000000	0.006258  
3076.000000	0.006305  
3075.000000	0.006423  
3074.000000	0.006555  
3073.000000	0.006623  
3072.000000	0.006584  
3071.000000	0.006460  
3070.000000	0.006325  
3069.000000	0.006247  
3068.000000	0.006254  
3067.000000	0.006331  
3066.000000	0.006427  
3065.000000	0.006479  
3064.000000	0.006450  
3063.000000	0.006359  
3062.000000	0.006257  
3061.000000	0.006180  
3060.000000	0.006136  
3059.000000	0.006132  
3058.000000	0.006173  
3057.000000	0.006233  
3056.000000	0.006245  
3055.000000	0.006185  
3054.000000	0.006119  
3053.000000	0.006144  
3052.000000	0.006273  
3051.000000	0.006421  
3050.000000	0.006505  
3049.000000	0.006525  
3048.000000	0.006533  
3047.000000	0.006563  
3046.000000	0.006610  
3045.000000	0.006660  
3044.000000	0.006703  
3043.000000	0.006727  
3042.000000	0.006732  
3041.000000	0.006734  
3040.000000	0.006754  
3039.000000	0.006792  
3038.000000	0.006840  
3037.000000	0.006902  
3036.000000	0.006993  
3035.000000	0.007109  
3034.000000	0.007232  
3033.000000	0.007355  
3032.000000	0.007485  
3031.000000	0.007609  
3030.000000	0.007695  
3029.000000	0.007742  
3028.000000	0.007805  
3027.000000	0.007946  
3026.000000	0.008167  
3025.000000	0.008409  
3024.000000	0.008626  
3023.000000	0.008849  
3022.000000	0.009149  
3021.000000	0.009558  
3020.000000	0.010039  
3019.000000	0.010522  
3018.000000	0.010977  
3017.000000	0.011424  
3016.000000	0.011889  
3015.000000	0.012353  
3014.000000	0.012769  
3013.000000	0.013106  
3012.000000	0.013377  
3011.000000	0.013600  
3010.000000	0.013766  
3009.000000	0.013846  
3008.000000	0.013834  
3007.000000	0.013737  
3006.000000	0.013535  
3005.000000	0.013200  
3004.000000	0.012762  
3003.000000	0.012337  
3002.000000	0.012051  
3001.000000	0.011945  
3000.000000	0.011965  
2999.000000	0.012038  
2998.000000	0.012133  
2997.000000	0.012240  
2996.000000	0.012350  
2995.000000	0.012456  
2994.000000	0.012583  
2993.000000	0.012760  
2992.000000	0.012995  
2991.000000	0.013277  
2990.000000	0.013624  
2989.000000	0.014092  
2988.000000	0.014722  
2987.000000	0.015490  
2986.000000	0.016325  
2985.000000	0.017182  
2984.000000	0.018078  
2983.000000	0.019067  
2982.000000	0.020187  
2981.000000	0.021455  
2980.000000	0.022897  
2979.000000	0.024563  
2978.000000	0.026491  
2977.000000	0.028676  
2976.000000	0.031092  
2975.000000	0.033732  
2974.000000	0.036641  
2973.000000	0.039889  
2972.000000	0.043526  
2971.000000	0.047562  
2970.000000	0.051976  
2969.000000	0.056748  
2968.000000	0.061843  
2967.000000	0.067172  
2966.000000	0.072583  
2965.000000	0.077916  
2964.000000	0.083078  
2963.000000	0.088043  
2962.000000	0.092783  
2961.000000	0.097226  
2960.000000	0.101269  
2959.000000	0.104777  
2958.000000	0.107585  
2957.000000	0.109539  
2956.000000	0.110578  
2955.000000	0.110754  
2954.000000	0.110164  
2953.000000	0.108893  
2952.000000	0.107051  
2951.000000	0.104824  
2950.000000	0.102474  
2949.000000	0.100279  
2948.000000	0.098491  
2947.000000	0.097280  
2946.000000	0.096714  
2945.000000	0.096793  
2944.000000	0.097543  
2943.000000	0.099063  
2942.000000	0.101462  
2941.000000	0.104747  
2940.000000	0.108794  
2939.000000	0.113425  
2938.000000	0.118490  
2937.000000	0.123897  
2936.000000	0.129610  
2935.000000	0.135644  
2934.000000	0.142010  
2933.000000	0.148647  
2932.000000	0.155411  
2931.000000	0.162118  
2930.000000	0.168622  
2929.000000	0.174842  
2928.000000	0.180722  
2927.000000	0.186147  
2926.000000	0.190883  
2925.000000	0.194616  
2924.000000	0.197063  
2923.000000	0.198062  
2922.000000	0.197597  
2921.000000	0.195803  
2920.000000	0.192923  
2919.000000	0.189210  
2918.000000	0.184848  
2917.000000	0.179985  
2916.000000	0.174796  
2915.000000	0.169469  
2914.000000	0.164139  
2913.000000	0.158886  
2912.000000	0.153783  
2911.000000	0.148922  
2910.000000	0.144365  
2909.000000	0.140099  
2908.000000	0.136068  
2907.000000	0.132224  
2906.000000	0.128538  
2905.000000	0.124980  
2904.000000	0.121505  
2903.000000	0.118086  
2902.000000	0.114738  
2901.000000	0.111494  
2900.000000	0.108348  
2899.000000	0.105249  
2898.000000	0.102142  
2897.000000	0.099022  
2896.000000	0.095939  
2895.000000	0.092947  
2894.000000	0.090077  
2893.000000	0.087327  
2892.000000	0.084677  
2891.000000	0.082110  
2890.000000	0.079638  
2889.000000	0.077307  
2888.000000	0.075182  
2887.000000	0.073324  
2886.000000	0.071783  
2885.000000	0.070603  
2884.000000	0.069821  
2883.000000	0.069476  
2882.000000	0.069630  
2881.000000	0.070368  
2880.000000	0.071752  
2879.000000	0.073775  
2878.000000	0.076355  
2877.000000	0.079353  
2876.000000	0.082559  
2875.000000	0.085670  
2874.000000	0.088335  
2873.000000	0.090302  
2872.000000	0.091548  
2871.000000	0.092263  
2870.000000	0.092694  
2869.000000	0.093012  
2868.000000	0.093309  
2867.000000	0.093694  
2866.000000	0.094374  
2865.000000	0.095606  
2864.000000	0.097574  
2863.000000	0.100293  
2862.000000	0.103633  
2861.000000	0.107408  
2860.000000	0.111433  
2859.000000	0.115506  
2858.000000	0.119393  
2857.000000	0.122843  
2856.000000	0.125600  
2855.000000	0.127360  
2854.000000	0.127780  
2853.000000	0.126585  
2852.000000	0.123703  
2851.000000	0.119306  
2850.000000	0.113745  
2849.000000	0.107453  
2848.000000	0.100849  
2847.000000	0.094254  
2846.000000	0.087847  
2845.000000	0.081700  
2844.000000	0.075828  
2843.000000	0.070217  
2842.000000	0.064841  
2841.000000	0.059711  
2840.000000	0.054892  
2839.000000	0.050480  
2838.000000	0.046538  
2837.000000	0.043072  
2836.000000	0.040051  
2835.000000	0.037415  
2834.000000	0.035084  
2833.000000	0.032972  
2832.000000	0.031025  
2831.000000	0.029238  
2830.000000	0.027616  
2829.000000	0.026141  
2828.000000	0.024777  
2827.000000	0.023515  
2826.000000	0.022372  
2825.000000	0.021362  
2824.000000	0.020477  
2823.000000	0.019701  
2822.000000	0.019013  
2821.000000	0.018382  
2820.000000	0.017769  
2819.000000	0.017150  
2818.000000	0.016543  
2817.000000	0.015984  
2816.000000	0.015506  
2815.000000	0.015116  
2814.000000	0.014797  
2813.000000	0.014508  
2812.000000	0.014203  
2811.000000	0.013856  
2810.000000	0.013474  
2809.000000	0.013077  
2808.000000	0.012693  
2807.000000	0.012360  
2806.000000	0.012112  
2805.000000	0.011943  
2804.000000	0.011800  
2803.000000	0.011626  
2802.000000	0.011409  
2801.000000	0.011178  
2800.000000	0.010959  
2799.000000	0.010765  
2798.000000	0.010596  
2797.000000	0.010446  
2796.000000	0.010294  
2795.000000	0.010130  
2794.000000	0.009984  
2793.000000	0.009895  
2792.000000	0.009856  
2791.000000	0.009807  
2790.000000	0.009693  
2789.000000	0.009523  
2788.000000	0.009338  
2787.000000	0.009160  
2786.000000	0.008985  
2785.000000	0.008822  
2784.000000	0.008704  
2783.000000	0.008640  
2782.000000	0.008585  
2781.000000	0.008479  
2780.000000	0.008305  
2779.000000	0.008108  
2778.000000	0.007945  
2777.000000	0.007830  
2776.000000	0.007733  
2775.000000	0.007624  
2774.000000	0.007507  
2773.000000	0.007397  
2772.000000	0.007296  
2771.000000	0.007182  
2770.000000	0.007041  
2769.000000	0.006880  
2768.000000	0.006726  
2767.000000	0.006601  
2766.000000	0.006515  
2765.000000	0.006464  
2764.000000	0.006439  
2763.000000	0.006436  
2762.000000	0.006438  
2761.000000	0.006413  
2760.000000	0.006338  
2759.000000	0.006230  
2758.000000	0.006139  
2757.000000	0.006098  
2756.000000	0.006082  
2755.000000	0.006032  
2754.000000	0.005925  
2753.000000	0.005796  
2752.000000	0.005698  
2751.000000	0.005662  
2750.000000	0.005683  
2749.000000	0.005742  
2748.000000	0.005807  
2747.000000	0.005836  
2746.000000	0.005799  
2745.000000	0.005709  
2744.000000	0.005620  
2743.000000	0.005590  
2742.000000	0.005631  
2741.000000	0.005709  
2740.000000	0.005783  
2739.000000	0.005841  
2738.000000	0.005900  
2737.000000	0.005972  
2736.000000	0.006062  
2735.000000	0.006171  
2734.000000	0.006292  
2733.000000	0.006395  
2732.000000	0.006440  
2731.000000	0.006415  
2730.000000	0.006350  
2729.000000	0.006285  
2728.000000	0.006244  
2727.000000	0.006233  
2726.000000	0.006237  
2725.000000	0.006219  
2724.000000	0.006144  
2723.000000	0.006018  
2722.000000	0.005892  
2721.000000	0.005806  
2720.000000	0.005758  
2719.000000	0.005723  
2718.000000	0.005696  
2717.000000	0.005689  
2716.000000	0.005694  
2715.000000	0.005684  
2714.000000	0.005638  
2713.000000	0.005549  
2712.000000	0.005423  
2711.000000	0.005294  
2710.000000	0.005217  
2709.000000	0.005220  
2708.000000	0.005265  
2707.000000	0.005275  
2706.000000	0.005210  
2705.000000	0.005088  
2704.000000	0.004949  
2703.000000	0.004828  
2702.000000	0.004758  
2701.000000	0.004766  
2700.000000	0.004831  
2699.000000	0.004896  
2698.000000	0.004915  
2697.000000	0.004893  
2696.000000	0.004861  
2695.000000	0.004845  
2694.000000	0.004862  
2693.000000	0.004916  
2692.000000	0.004976  
2691.000000	0.004979  
2690.000000	0.004888  
2689.000000	0.004747  
2688.000000	0.004650  
2687.000000	0.004653  
2686.000000	0.004723  
2685.000000	0.004784  
2684.000000	0.004799  
2683.000000	0.004796  
2682.000000	0.004818  
2681.000000	0.004876  
2680.000000	0.004941  
2679.000000	0.004989  
2678.000000	0.005025  
2677.000000	0.005059  
2676.000000	0.005081  
2675.000000	0.005077  
2674.000000	0.005053  
2673.000000	0.005039  
2672.000000	0.005051  
2671.000000	0.005074  
2670.000000	0.005083  
2669.000000	0.005073  
2668.000000	0.005051  
2667.000000	0.005024  
2666.000000	0.004995  
2665.000000	0.004968  
2664.000000	0.004948  
2663.000000	0.004929  
2662.000000	0.004895  
2661.000000	0.004831  
2660.000000	0.004733  
2659.000000	0.004624  
2658.000000	0.004549  
2657.000000	0.004545  
2656.000000	0.004606  
2655.000000	0.004669  
2654.000000	0.004666  
2653.000000	0.004575  
2652.000000	0.004440  
2651.000000	0.004328  
2650.000000	0.004270  
2649.000000	0.004238  
2648.000000	0.004183  
2647.000000	0.004095  
2646.000000	0.004018  
2645.000000	0.003997  
2644.000000	0.004023  
2643.000000	0.004040  
2642.000000	0.004012  
2641.000000	0.003965  
2640.000000	0.003945  
2639.000000	0.003956  
2638.000000	0.003953  
2637.000000	0.003883  
2636.000000	0.003744  
2635.000000	0.003595  
2634.000000	0.003515  
2633.000000	0.003543  
2632.000000	0.003649  
2631.000000	0.003765  
2630.000000	0.003838  
2629.000000	0.003856  
2628.000000	0.003828  
2627.000000	0.003773  
2626.000000	0.003716  
2625.000000	0.003681  
2624.000000	0.003660  
2623.000000	0.003621  
2622.000000	0.003549  
2621.000000	0.003474  
2620.000000	0.003442  
2619.000000	0.003463  
2618.000000	0.003500  
2617.000000	0.003503  
2616.000000	0.003459  
2615.000000	0.003395  
2614.000000	0.003358  
2613.000000	0.003369  
2612.000000	0.003399  
2611.000000	0.003399  
2610.000000	0.003351  
2609.000000	0.003299  
2608.000000	0.003306  
2607.000000	0.003396  
2606.000000	0.003530  
2605.000000	0.003636  
2604.000000	0.003650  
2603.000000	0.003559  
2602.000000	0.003402  
2601.000000	0.003245  
2600.000000	0.003122  
2599.000000	0.003014  
2598.000000	0.002898  
2597.000000	0.002805  
2596.000000	0.002790  
2595.000000	0.002846  
2594.000000	0.002886  
2593.000000	0.002828  
2592.000000	0.002688  
2591.000000	0.002572  
2590.000000	0.002578  
2589.000000	0.002724  
2588.000000	0.002954  
2587.000000	0.003181  
2586.000000	0.003333  
2585.000000	0.003381  
2584.000000	0.003335  
2583.000000	0.003212  
2582.000000	0.003020  
2581.000000	0.002784  
2580.000000	0.002568  
2579.000000	0.002452  
2578.000000	0.002462  
2577.000000	0.002540  
2576.000000	0.002595  
2575.000000	0.002587  
2574.000000	0.002545  
2573.000000	0.002520  
2572.000000	0.002527  
2571.000000	0.002533  
2570.000000	0.002490  
2569.000000	0.002391  
2568.000000	0.002291  
2567.000000	0.002260  
2566.000000	0.002311  
2565.000000	0.002386  
2564.000000	0.002405  
2563.000000	0.002330  
2562.000000	0.002191  
2561.000000	0.002071  
2560.000000	0.002075  
2559.000000	0.002248  
2558.000000	0.002499  
2557.000000	0.002639  
2556.000000	0.002540  
2555.000000	0.002247  
2554.000000	0.001920  
2553.000000	0.001684  
2552.000000	0.001577  
2551.000000	0.001588  
2550.000000	0.001682  
2549.000000	0.001784  
2548.000000	0.001823  
2547.000000	0.001817  
2546.000000	0.001863  
2545.000000	0.002004  
2544.000000	0.002157  
2543.000000	0.002211  
2542.000000	0.002159  
2541.000000	0.002101  
2540.000000	0.002122  
2539.000000	0.002204  
2538.000000	0.002257  
2537.000000	0.002211  
2536.000000	0.002089  
2535.000000	0.001974  
2534.000000	0.001919  
2533.000000	0.001892  
2532.000000	0.001829  
2531.000000	0.001746  
2530.000000	0.001738  
2529.000000	0.001857  
2528.000000	0.002031  
2527.000000	0.002137  
2526.000000	0.002126  
2525.000000	0.002050  
2524.000000	0.001983  
2523.000000	0.001953  
2522.000000	0.001943  
2521.000000	0.001921  
2520.000000	0.001865  
2519.000000	0.001786  
2518.000000	0.001715  
2517.000000	0.001664  
2516.000000	0.001632  
2515.000000	0.001633  
2514.000000	0.001700  
2513.000000	0.001829  
2512.000000	0.001942  
2511.000000	0.001959  
2510.000000	0.001897  
2509.000000	0.001859  
2508.000000	0.001919  
2507.000000	0.002035  
2506.000000	0.002095  
2505.000000	0.002027  
2504.000000	0.001861  
2503.000000	0.001696  
2502.000000	0.001609  
2501.000000	0.001618  
2500.000000	0.001700  
2499.000000	0.001828  
2498.000000	0.001961  
2497.000000	0.002038  
2496.000000	0.002022  
2495.000000	0.001940  
2494.000000	0.001843  
2493.000000	0.001740  
2492.000000	0.001607  
2491.000000	0.001465  
2490.000000	0.001383  
2489.000000	0.001391  
2488.000000	0.001438  
2487.000000	0.001468  
2486.000000	0.001488  
2485.000000	0.001523  
2484.000000	0.001550  
2483.000000	0.001528  
2482.000000	0.001477  
2481.000000	0.001451  
2480.000000	0.001461  
2479.000000	0.001462  
2478.000000	0.001428  
2477.000000	0.001379  
2476.000000	0.001336  
2475.000000	0.001273  
2474.000000	0.001146  
2473.000000	0.000964  
2472.000000	0.000807  
2471.000000	0.000769  
2470.000000	0.000891  
2469.000000	0.001124  
2468.000000	0.001369  
2467.000000	0.001542  
2466.000000	0.001601  
2465.000000	0.001539  
2464.000000	0.001389  
2463.000000	0.001236  
2462.000000	0.001158  
2461.000000	0.001155  
2460.000000	0.001153  
2459.000000	0.001115  
2458.000000	0.001081  
2457.000000	0.001090  
2456.000000	0.001096  
2455.000000	0.001037  
2454.000000	0.000937  
2453.000000	0.000892  
2452.000000	0.000956  
2451.000000	0.001094  
2450.000000	0.001235  
2449.000000	0.001327  
2448.000000	0.001349  
2447.000000	0.001304  
2446.000000	0.001216  
2445.000000	0.001128  
2444.000000	0.001073  
2443.000000	0.001071  
2442.000000	0.001120  
2441.000000	0.001184  
2440.000000	0.001212  
2439.000000	0.001183  
2438.000000	0.001131  
2437.000000	0.001100  
2436.000000	0.001097  
2435.000000	0.001103  
2434.000000	0.001120  
2433.000000	0.001158  
2432.000000	0.001216  
2431.000000	0.001284  
2430.000000	0.001356  
2429.000000	0.001405  
2428.000000	0.001381  
2427.000000	0.001266  
2426.000000	0.001125  
2425.000000	0.001047  
2424.000000	0.001040  
2423.000000	0.001039  
2422.000000	0.001022  
2421.000000	0.001038  
2420.000000	0.001127  
2419.000000	0.001237  
2418.000000	0.001289  
2417.000000	0.001277  
2416.000000	0.001263  
2415.000000	0.001285  
2414.000000	0.001313  
2413.000000	0.001313  
2412.000000	0.001312  
2411.000000	0.001355  
2410.000000	0.001429  
2409.000000	0.001472  
2408.000000	0.001455  
2407.000000	0.001410  
2406.000000	0.001352  
2405.000000	0.001241  
2404.000000	0.001057  
2403.000000	0.000879  
2402.000000	0.000819  
2401.000000	0.000893  
2400.000000	0.001007  
2399.000000	0.001084  
2398.000000	0.001132  
2397.000000	0.001180  
2396.000000	0.001226  
2395.000000	0.001257  
2394.000000	0.001279  
2393.000000	0.001295  
2392.000000	0.001301  
2391.000000	0.001322  
2390.000000	0.001386  
2389.000000	0.001455  
2388.000000	0.001422  
2387.000000	0.001246  
2386.000000	0.001012  
2385.000000	0.000844  
2384.000000	0.000774  
2383.000000	0.000762  
2382.000000	0.000783  
2381.000000	0.000833  
2380.000000	0.000877  
2379.000000	0.000891  
2378.000000	0.000913  
2377.000000	0.000971  
2376.000000	0.000950  
2375.000000	0.000686  
2374.000000	0.000237  
2373.000000	-0.000101 
2372.000000	-0.000152 
2371.000000	-0.000058 
2370.000000	-0.000020 
2369.000000	0.000028  
2368.000000	0.000297  
2367.000000	0.000816  
2366.000000	0.001382  
2365.000000	0.001708  
2364.000000	0.001525  
2363.000000	0.000788  
2362.000000	-0.000112 
2361.000000	-0.000560 
2360.000000	-0.000347 
2359.000000	0.000132  
2358.000000	0.000467  
2357.000000	0.000657  
2356.000000	0.000844  
2355.000000	0.001013  
2354.000000	0.001081  
2353.000000	0.001027  
2352.000000	0.000830  
2351.000000	0.000534  
2350.000000	0.000318  
2349.000000	0.000345  
2348.000000	0.000583  
2347.000000	0.000794  
2346.000000	0.000782  
2345.000000	0.000629  
2344.000000	0.000531  
2343.000000	0.000514  
2342.000000	0.000504  
2341.000000	0.000509  
2340.000000	0.000573  
2339.000000	0.000721  
2338.000000	0.000955  
2337.000000	0.001200  
2336.000000	0.001288  
2335.000000	0.001118  
2334.000000	0.000800  
2333.000000	0.000554  
2332.000000	0.000472  
2331.000000	0.000483  
2330.000000	0.000508  
2329.000000	0.000510  
2328.000000	0.000486  
2327.000000	0.000455  
2326.000000	0.000478  
2325.000000	0.000569  
2324.000000	0.000649  
2323.000000	0.000637  
2322.000000	0.000547  
2321.000000	0.000460  
2320.000000	0.000396  
2319.000000	0.000333  
2318.000000	0.000277  
2317.000000	0.000256  
2316.000000	0.000265  
2315.000000	0.000273  
2314.000000	0.000264  
2313.000000	0.000219  
2312.000000	0.000110  
2311.000000	-0.000046 
2310.000000	-0.000175 
2309.000000	-0.000218 
2308.000000	-0.000201 
2307.000000	-0.000173 
2306.000000	-0.000126 
2305.000000	-0.000032 
2304.000000	0.000083  
2303.000000	0.000170  
2302.000000	0.000216  
2301.000000	0.000227  
2300.000000	0.000176  
2299.000000	0.000048  
2298.000000	-0.000109 
2297.000000	-0.000218 
2296.000000	-0.000256 
2295.000000	-0.000244 
2294.000000	-0.000174 
2293.000000	-0.000038 
2292.000000	0.000099  
2291.000000	0.000151  
2290.000000	0.000128  
2289.000000	0.000144  
2288.000000	0.000270  
2287.000000	0.000455  
2286.000000	0.000612  
2285.000000	0.000704  
2284.000000	0.000748  
2283.000000	0.000787  
2282.000000	0.000873  
2281.000000	0.000998  
2280.000000	0.001050  
2279.000000	0.000918  
2278.000000	0.000671  
2277.000000	0.000530  
2276.000000	0.000624  
2275.000000	0.000844  
2274.000000	0.001012  
2273.000000	0.001074  
2272.000000	0.001083  
2271.000000	0.001067  
2270.000000	0.001024  
2269.000000	0.000992  
2268.000000	0.001015  
2267.000000	0.001054  
2266.000000	0.001014  
2265.000000	0.000846  
2264.000000	0.000586  
2263.000000	0.000294  
2262.000000	0.000031  
2261.000000	-0.000122 
2260.000000	-0.000110 
2259.000000	0.000030  
2258.000000	0.000164  
2257.000000	0.000164  
2256.000000	0.000027  
2255.000000	-0.000122 
2254.000000	-0.000128 
2253.000000	0.000077  
2252.000000	0.000435  
2251.000000	0.000814  
2250.000000	0.001076  
2249.000000	0.001125  
2248.000000	0.000970  
2247.000000	0.000753  
2246.000000	0.000664  
2245.000000	0.000763  
2244.000000	0.000923  
2243.000000	0.000987  
2242.000000	0.000922  
2241.000000	0.000789  
2240.000000	0.000632  
2239.000000	0.000478  
2238.000000	0.000391  
2237.000000	0.000400  
2236.000000	0.000410  
2235.000000	0.000289  
2234.000000	0.000045  
2233.000000	-0.000156 
2232.000000	-0.000179 
2231.000000	-0.000027 
2230.000000	0.000185  
2229.000000	0.000308  
2228.000000	0.000226  
2227.000000	-0.000010 
2226.000000	-0.000154 
2225.000000	0.000036  
2224.000000	0.000544  
2223.000000	0.001109  
2222.000000	0.001489  
2221.000000	0.001607  
2220.000000	0.001481  
2219.000000	0.001172  
2218.000000	0.000803  
2217.000000	0.000524  
2216.000000	0.000388  
2215.000000	0.000357  
2214.000000	0.000417  
2213.000000	0.000579  
2212.000000	0.000775  
2211.000000	0.000895  
2210.000000	0.000965  
2209.000000	0.001142  
2208.000000	0.001477  
2207.000000	0.001801  
2206.000000	0.001923  
2205.000000	0.001816  
2204.000000	0.001584  
2203.000000	0.001334  
2202.000000	0.001147  
2201.000000	0.001065  
2200.000000	0.001037  
2199.000000	0.000944  
2198.000000	0.000726  
2197.000000	0.000418  
2196.000000	0.000070  
2195.000000	-0.000266 
2194.000000	-0.000435 
2193.000000	-0.000234 
2192.000000	0.000327  
2191.000000	0.000935  
2190.000000	0.001223  
2189.000000	0.001073  
2188.000000	0.000615  
2187.000000	0.000048  
2186.000000	-0.000453 
2185.000000	-0.000730 
2184.000000	-0.000694 
2183.000000	-0.000403 
2182.000000	-0.000035 
2181.000000	0.000236  
2180.000000	0.000356  
2179.000000	0.000431  
2178.000000	0.000619  
2177.000000	0.000923  
2176.000000	0.001108  
2175.000000	0.000931  
2174.000000	0.000471  
2173.000000	0.000068  
2172.000000	-0.000064 
2171.000000	-0.000055 
2170.000000	-0.000115 
2169.000000	-0.000213 
2168.000000	-0.000114 
2167.000000	0.000309  
2166.000000	0.000902  
2165.000000	0.001363  
2164.000000	0.001524  
2163.000000	0.001456  
2162.000000	0.001313  
2161.000000	0.001149  
2160.000000	0.000948  
2159.000000	0.000793  
2158.000000	0.000821  
2157.000000	0.000963  
2156.000000	0.000954  
2155.000000	0.000679  
2154.000000	0.000346  
2153.000000	0.000203  
2152.000000	0.000222  
2151.000000	0.000185  
2150.000000	0.000001  
2149.000000	-0.000220 
2148.000000	-0.000324 
2147.000000	-0.000214 
2146.000000	0.000130  
2145.000000	0.000586  
2144.000000	0.000898  
2143.000000	0.000900  
2142.000000	0.000695  
2141.000000	0.000509  
2140.000000	0.000432  
2139.000000	0.000396  
2138.000000	0.000351  
2137.000000	0.000287  
2136.000000	0.000160  
2135.000000	-0.000042 
2134.000000	-0.000187 
2133.000000	-0.000126 
2132.000000	0.000078  
2131.000000	0.000209  
2130.000000	0.000155  
2129.000000	-0.000002 
2128.000000	-0.000143 
2127.000000	-0.000207 
2126.000000	-0.000157 
2125.000000	0.000024  
2124.000000	0.000262  
2123.000000	0.000426  
2122.000000	0.000471  
2121.000000	0.000453  
2120.000000	0.000404  
2119.000000	0.000302  
2118.000000	0.000173  
2117.000000	0.000098  
2116.000000	0.000094  
2115.000000	0.000114  
2114.000000	0.000168  
2113.000000	0.000317  
2112.000000	0.000526  
2111.000000	0.000654  
2110.000000	0.000640  
2109.000000	0.000573  
2108.000000	0.000516  
2107.000000	0.000411  
2106.000000	0.000244  
2105.000000	0.000142  
2104.000000	0.000203  
2103.000000	0.000338  
2102.000000	0.000393  
2101.000000	0.000359  
2100.000000	0.000324  
2099.000000	0.000306  
2098.000000	0.000246  
2097.000000	0.000139  
2096.000000	0.000066  
2095.000000	0.000108  
2094.000000	0.000278  
2093.000000	0.000525  
2092.000000	0.000750  
2091.000000	0.000869  
2090.000000	0.000886  
2089.000000	0.000882  
2088.000000	0.000881  
2087.000000	0.000829  
2086.000000	0.000724  
2085.000000	0.000665  
2084.000000	0.000715  
2083.000000	0.000779  
2082.000000	0.000720  
2081.000000	0.000522  
2080.000000	0.000291  
2079.000000	0.000140  
2078.000000	0.000144  
2077.000000	0.000330  
2076.000000	0.000612  
2075.000000	0.000786  
2074.000000	0.000706  
2073.000000	0.000444  
2072.000000	0.000214  
2071.000000	0.000148  
2070.000000	0.000210  
2069.000000	0.000285  
2068.000000	0.000282  
2067.000000	0.000189  
2066.000000	0.000090  
2065.000000	0.000110  
2064.000000	0.000284  
2063.000000	0.000523  
2062.000000	0.000741  
2061.000000	0.000938  
2060.000000	0.001123  
2059.000000	0.001230  
2058.000000	0.001177  
2057.000000	0.001000  
2056.000000	0.000835  
2055.000000	0.000788  
2054.000000	0.000816  
2053.000000	0.000763  
2052.000000	0.000507  
2051.000000	0.000127  
2050.000000	-0.000103 
2049.000000	0.000018  
2048.000000	0.000357  
2047.000000	0.000575  
2046.000000	0.000546  
2045.000000	0.000448  
2044.000000	0.000450  
2043.000000	0.000492  
2042.000000	0.000468  
2041.000000	0.000407  
2040.000000	0.000357  
2039.000000	0.000275  
2038.000000	0.000175  
2037.000000	0.000234  
2036.000000	0.000549  
2035.000000	0.000919  
2034.000000	0.001054  
2033.000000	0.000919  
2032.000000	0.000714  
2031.000000	0.000593  
2030.000000	0.000579  
2029.000000	0.000672  
2028.000000	0.000836  
2027.000000	0.000950  
2026.000000	0.000915  
2025.000000	0.000814  
2024.000000	0.000807  
2023.000000	0.000923  
2022.000000	0.001030  
2021.000000	0.001003  
2020.000000	0.000804  
2019.000000	0.000454  
2018.000000	0.000039  
2017.000000	-0.000288 
2016.000000	-0.000426 
2015.000000	-0.000411 
2014.000000	-0.000331 
2013.000000	-0.000246 
2012.000000	-0.000202 
2011.000000	-0.000247 
2010.000000	-0.000360 
2009.000000	-0.000430 
2008.000000	-0.000360 
2007.000000	-0.000119 
2006.000000	0.000300  
2005.000000	0.000855  
2004.000000	0.001339  
2003.000000	0.001461  
2002.000000	0.001128  
2001.000000	0.000574  
2000.000000	0.000148  
1999.000000	0.000025  
1998.000000	0.000156  
1997.000000	0.000404  
1996.000000	0.000626  
1995.000000	0.000723  
1994.000000	0.000703  
1993.000000	0.000696  
1992.000000	0.000803  
1991.000000	0.000926  
1990.000000	0.000888  
1989.000000	0.000655  
1988.000000	0.000352  
1987.000000	0.000099  
1986.000000	-0.000117 
1985.000000	-0.000384 
1984.000000	-0.000689 
1983.000000	-0.000858 
1982.000000	-0.000698 
1981.000000	-0.000260 
1980.000000	0.000134  
1979.000000	0.000202  
1978.000000	0.000001  
1977.000000	-0.000208 
1976.000000	-0.000309 
1975.000000	-0.000347 
1974.000000	-0.000292 
1973.000000	-0.000073 
1972.000000	0.000178  
1971.000000	0.000235  
1970.000000	0.000124  
1969.000000	0.000150  
1968.000000	0.000458  
1967.000000	0.000779  
1966.000000	0.000814  
1965.000000	0.000651  
1964.000000	0.000578  
1963.000000	0.000714  
1962.000000	0.000962  
1961.000000	0.001143  
1960.000000	0.001097  
1959.000000	0.000778  
1958.000000	0.000358  
1957.000000	0.000100  
1956.000000	0.000073  
1955.000000	0.000099  
1954.000000	0.000071  
1953.000000	0.000132  
1952.000000	0.000376  
1951.000000	0.000580  
1950.000000	0.000458  
1949.000000	0.000084  
1948.000000	-0.000168 
1947.000000	-0.000097 
1946.000000	0.000114  
1945.000000	0.000200  
1944.000000	0.000137  
1943.000000	0.000103  
1942.000000	0.000170  
1941.000000	0.000232  
1940.000000	0.000229  
1939.000000	0.000250  
1938.000000	0.000394  
1937.000000	0.000627  
1936.000000	0.000798  
1935.000000	0.000807  
1934.000000	0.000705  
1933.000000	0.000604  
1932.000000	0.000545  
1931.000000	0.000502  
1930.000000	0.000497  
1929.000000	0.000572  
1928.000000	0.000694  
1927.000000	0.000756  
1926.000000	0.000714  
1925.000000	0.000635  
1924.000000	0.000589  
1923.000000	0.000562  
1922.000000	0.000498  
1921.000000	0.000373  
1920.000000	0.000199  
1919.000000	0.000026  
1918.000000	-0.000027 
1917.000000	0.000102  
1916.000000	0.000299  
1915.000000	0.000394  
1914.000000	0.000376  
1913.000000	0.000400  
1912.000000	0.000589  
1911.000000	0.000877  
1910.000000	0.001079  
1909.000000	0.001095  
1908.000000	0.000975  
1907.000000	0.000801  
1906.000000	0.000622  
1905.000000	0.000473  
1904.000000	0.000376  
1903.000000	0.000329  
1902.000000	0.000337  
1901.000000	0.000408  
1900.000000	0.000512  
1899.000000	0.000578  
1898.000000	0.000551  
1897.000000	0.000442  
1896.000000	0.000311  
1895.000000	0.000230  
1894.000000	0.000274  
1893.000000	0.000462  
1892.000000	0.000712  
1891.000000	0.000875  
1890.000000	0.000853  
1889.000000	0.000713  
1888.000000	0.000586  
1887.000000	0.000518  
1886.000000	0.000498  
1885.000000	0.000524  
1884.000000	0.000579  
1883.000000	0.000611  
1882.000000	0.000599  
1881.000000	0.000577  
1880.000000	0.000578  
1879.000000	0.000591  
1878.000000	0.000609  
1877.000000	0.000654  
1876.000000	0.000723  
1875.000000	0.000762  
1874.000000	0.000744  
1873.000000	0.000718  
1872.000000	0.000720  
1871.000000	0.000700  
1870.000000	0.000584  
1869.000000	0.000429  
1868.000000	0.000374  
1867.000000	0.000413  
1866.000000	0.000448  
1865.000000	0.000454  
1864.000000	0.000451  
1863.000000	0.000436  
1862.000000	0.000386  
1861.000000	0.000307  
1860.000000	0.000239  
1859.000000	0.000218  
1858.000000	0.000269  
1857.000000	0.000395  
1856.000000	0.000547  
1855.000000	0.000641  
1854.000000	0.000642  
1853.000000	0.000604  
1852.000000	0.000598  
1851.000000	0.000629  
1850.000000	0.000665  
1849.000000	0.000706  
1848.000000	0.000776  
1847.000000	0.000855  
1846.000000	0.000867  
1845.000000	0.000751  
1844.000000	0.000550  
1843.000000	0.000399  
1842.000000	0.000392  
1841.000000	0.000507  
1840.000000	0.000650  
1839.000000	0.000714  
1838.000000	0.000654  
1837.000000	0.000542  
1836.000000	0.000481  
1835.000000	0.000488  
1834.000000	0.000501  
1833.000000	0.000473  
1832.000000	0.000428  
1831.000000	0.000442  
1830.000000	0.000574  
1829.000000	0.000749  
1828.000000	0.000831  
1827.000000	0.000792  
1826.000000	0.000709  
1825.000000	0.000681  
1824.000000	0.000705  
1823.000000	0.000679  
1822.000000	0.000566  
1821.000000	0.000438  
1820.000000	0.000393  
1819.000000	0.000457  
1818.000000	0.000592  
1817.000000	0.000749  
1816.000000	0.000884  
1815.000000	0.000958  
1814.000000	0.000969  
1813.000000	0.000942  
1812.000000	0.000891  
1811.000000	0.000803  
1810.000000	0.000689  
1809.000000	0.000600  
1808.000000	0.000558  
1807.000000	0.000546  
1806.000000	0.000574  
1805.000000	0.000674  
1804.000000	0.000824  
1803.000000	0.000941  
1802.000000	0.000974  
1801.000000	0.000973  
1800.000000	0.000981  
1799.000000	0.000962  
1798.000000	0.000911  
1797.000000	0.000912  
1796.000000	0.001000  
1795.000000	0.001095  
1794.000000	0.001107  
1793.000000	0.001082  
1792.000000	0.001142  
1791.000000	0.001256  
1790.000000	0.001333  
1789.000000	0.001372  
1788.000000	0.001388  
1787.000000	0.001363  
1786.000000	0.001330  
1785.000000	0.001388  
1784.000000	0.001584  
1783.000000	0.001813  
1782.000000	0.001937  
1781.000000	0.001930  
1780.000000	0.001875  
1779.000000	0.001834  
1778.000000	0.001825  
1777.000000	0.001875  
1776.000000	0.001986  
1775.000000	0.002095  
1774.000000	0.002118  
1773.000000	0.002095  
1772.000000	0.002149  
1771.000000	0.002240  
1770.000000	0.002291  
1769.000000	0.002393  
1768.000000	0.002617  
1767.000000	0.002880  
1766.000000	0.003085  
1765.000000	0.003258  
1764.000000	0.003475  
1763.000000	0.003739  
1762.000000	0.003999  
1761.000000	0.004280  
1760.000000	0.004662  
1759.000000	0.005138  
1758.000000	0.005687  
1757.000000	0.006366  
1756.000000	0.007181  
1755.000000	0.008016  
1754.000000	0.008871  
1753.000000	0.009996  
1752.000000	0.011786  
1751.000000	0.014444  
1750.000000	0.017967  
1749.000000	0.022501  
1748.000000	0.027888  
1747.000000	0.033458  
1746.000000	0.038974  
1745.000000	0.044818  
1744.000000	0.050876  
1743.000000	0.056048  
1742.000000	0.059353  
1741.000000	0.060593  
1740.000000	0.059744  
1739.000000	0.057193  
1738.000000	0.054088  
1737.000000	0.050979  
1736.000000	0.047248  
1735.000000	0.041492  
1734.000000	0.034436  
1733.000000	0.029293  
1732.000000	0.026536  
1731.000000	0.024630  
1730.000000	0.022971  
1729.000000	0.021502  
1728.000000	0.020299  
1727.000000	0.019342  
1726.000000	0.018596  
1725.000000	0.017970  
1724.000000	0.017362  
1723.000000	0.016772  
1722.000000	0.016266  
1721.000000	0.015804  
1720.000000	0.015219  
1719.000000	0.014277  
1718.000000	0.012950  
1717.000000	0.011697  
1716.000000	0.010811  
1715.000000	0.010133  
1714.000000	0.009568  
1713.000000	0.009064  
1712.000000	0.008537  
1711.000000	0.007960  
1710.000000	0.007399  
1709.000000	0.006935  
1708.000000	0.006550  
1707.000000	0.006164  
1706.000000	0.005786  
1705.000000	0.005506  
1704.000000	0.005330  
1703.000000	0.005183  
1702.000000	0.005037  
1701.000000	0.004859  
1700.000000	0.004544  
1699.000000	0.004200  
1698.000000	0.004027  
1697.000000	0.004025  
1696.000000	0.004043  
1695.000000	0.003953  
1694.000000	0.003867  
1693.000000	0.003873  
1692.000000	0.003889  
1691.000000	0.003835  
1690.000000	0.003701  
1689.000000	0.003555  
1688.000000	0.003464  
1687.000000	0.003467  
1686.000000	0.003590  
1685.000000	0.003873  
1684.000000	0.004103  
1683.000000	0.004055  
1682.000000	0.003966  
1681.000000	0.003973  
1680.000000	0.003972  
1679.000000	0.003914  
1678.000000	0.003842  
1677.000000	0.003801  
1676.000000	0.003770  
1675.000000	0.003718  
1674.000000	0.003696  
1673.000000	0.003742  
1672.000000	0.003804  
1671.000000	0.003856  
1670.000000	0.003990  
1669.000000	0.004224  
1668.000000	0.004419  
1667.000000	0.004545  
1666.000000	0.004656  
1665.000000	0.004770  
1664.000000	0.004885  
1663.000000	0.005010  
1662.000000	0.005176  
1661.000000	0.005363  
1660.000000	0.005524  
1659.000000	0.005626  
1658.000000	0.005705  
1657.000000	0.005757  
1656.000000	0.005797  
1655.000000	0.005769  
1654.000000	0.005824  
1653.000000	0.006096  
1652.000000	0.006261  
1651.000000	0.006368  
1650.000000	0.006527  
1649.000000	0.006662  
1648.000000	0.006706  
1647.000000	0.006688  
1646.000000	0.006718  
1645.000000	0.006788  
1644.000000	0.006889  
1643.000000	0.007000  
1642.000000	0.007107  
1641.000000	0.007224  
1640.000000	0.007314  
1639.000000	0.007331  
1638.000000	0.007269  
1637.000000	0.007209  
1636.000000	0.007211  
1635.000000	0.007154  
1634.000000	0.007023  
1633.000000	0.006961  
1632.000000	0.006941  
1631.000000	0.006881  
1630.000000	0.006780  
1629.000000	0.006678  
1628.000000	0.006588  
1627.000000	0.006476  
1626.000000	0.006330  
1625.000000	0.006159  
1624.000000	0.005961  
1623.000000	0.005760  
1622.000000	0.005608  
1621.000000	0.005516  
1620.000000	0.005444  
1619.000000	0.005338  
1618.000000	0.005176  
1617.000000	0.005023  
1616.000000	0.004931  
1615.000000	0.004884  
1614.000000	0.004881  
1613.000000	0.004909  
1612.000000	0.004911  
1611.000000	0.004858  
1610.000000	0.004779  
1609.000000	0.004724  
1608.000000	0.004688  
1607.000000	0.004639  
1606.000000	0.004579  
1605.000000	0.004523  
1604.000000	0.004468  
1603.000000	0.004408  
1602.000000	0.004346  
1601.000000	0.004275  
1600.000000	0.004168  
1599.000000	0.004039  
1598.000000	0.003941  
1597.000000	0.003917  
1596.000000	0.003954  
1595.000000	0.004021  
1594.000000	0.004105  
1593.000000	0.004195  
1592.000000	0.004266  
1591.000000	0.004322  
1590.000000	0.004398  
1589.000000	0.004511  
1588.000000	0.004629  
1587.000000	0.004740  
1586.000000	0.004868  
1585.000000	0.005026  
1584.000000	0.005173  
1583.000000	0.005272  
1582.000000	0.005342  
1581.000000	0.005427  
1580.000000	0.005523  
1579.000000	0.005600  
1578.000000	0.005636  
1577.000000	0.005656  
1576.000000	0.005688  
1575.000000	0.005706  
1574.000000	0.005735  
1573.000000	0.005810  
1572.000000	0.005903  
1571.000000	0.005990  
1570.000000	0.006103  
1569.000000	0.006239  
1568.000000	0.006312  
1567.000000	0.006300  
1566.000000	0.006227  
1565.000000	0.006127  
1564.000000	0.006005  
1563.000000	0.005915  
1562.000000	0.005905  
1561.000000	0.006092  
1560.000000	0.006295  
1559.000000	0.005765  
1558.000000	0.004898  
1557.000000	0.004532  
1556.000000	0.004533  
1555.000000	0.004612  
1554.000000	0.004610  
1553.000000	0.004568  
1552.000000	0.004517  
1551.000000	0.004446  
1550.000000	0.004362  
1549.000000	0.004280  
1548.000000	0.004170  
1547.000000	0.004001  
1546.000000	0.003780  
1545.000000	0.003582  
1544.000000	0.003397  
1543.000000	0.003171  
1542.000000	0.002885  
1541.000000	0.002963  
1540.000000	0.003621  
1539.000000	0.004021  
1538.000000	0.003968  
1537.000000	0.003902  
1536.000000	0.003869  
1535.000000	0.003815  
1534.000000	0.003785  
1533.000000	0.003887  
1532.000000	0.004038  
1531.000000	0.004120  
1530.000000	0.004146  
1529.000000	0.004140  
1528.000000	0.004086  
1527.000000	0.003959  
1526.000000	0.003845  
1525.000000	0.003860  
1524.000000	0.003970  
1523.000000	0.004031  
1522.000000	0.004079  
1521.000000	0.004257  
1520.000000	0.004449  
1519.000000	0.004535  
1518.000000	0.004553  
1517.000000	0.004586  
1516.000000	0.004665  
1515.000000	0.004745  
1514.000000	0.004863  
1513.000000	0.005040  
1512.000000	0.005216  
1511.000000	0.005318  
1510.000000	0.005390  
1509.000000	0.005533  
1508.000000	0.005757  
1507.000000	0.005997  
1506.000000	0.006112  
1505.000000	0.006193  
1504.000000	0.006412  
1503.000000	0.006671  
1502.000000	0.006908  
1501.000000	0.007151  
1500.000000	0.007344  
1499.000000	0.007424  
1498.000000	0.007514  
1497.000000	0.007855  
1496.000000	0.008285  
1495.000000	0.008470  
1494.000000	0.008473  
1493.000000	0.008490  
1492.000000	0.008579  
1491.000000	0.008776  
1490.000000	0.009263  
1489.000000	0.010032  
1488.000000	0.010670  
1487.000000	0.011031  
1486.000000	0.011390  
1485.000000	0.011942  
1484.000000	0.012655  
1483.000000	0.013500  
1482.000000	0.014588  
1481.000000	0.015920  
1480.000000	0.017250  
1479.000000	0.018451  
1478.000000	0.019779  
1477.000000	0.021472  
1476.000000	0.023379  
1475.000000	0.025453  
1474.000000	0.028889  
1473.000000	0.035388  
1472.000000	0.043535  
1471.000000	0.050428  
1470.000000	0.056000  
1469.000000	0.061116  
1468.000000	0.065813  
1467.000000	0.069885  
1466.000000	0.073328  
1465.000000	0.076121  
1464.000000	0.077893  
1463.000000	0.078723  
1462.000000	0.079177  
1461.000000	0.079575  
1460.000000	0.079967  
1459.000000	0.080429  
1458.000000	0.081130  
1457.000000	0.081180  
1456.000000	0.079606  
1455.000000	0.077265  
1454.000000	0.074823  
1453.000000	0.072113  
1452.000000	0.069182  
1451.000000	0.066383  
1450.000000	0.063927  
1449.000000	0.061524  
1448.000000	0.058876  
1447.000000	0.056114  
1446.000000	0.053428  
1445.000000	0.050740  
1444.000000	0.047993  
1443.000000	0.045329  
1442.000000	0.042892  
1441.000000	0.040674  
1440.000000	0.038625  
1439.000000	0.036705  
1438.000000	0.034761  
1437.000000	0.032621  
1436.000000	0.030590  
1435.000000	0.029092  
1434.000000	0.027918  
1433.000000	0.026658  
1432.000000	0.025199  
1431.000000	0.023686  
1430.000000	0.022264  
1429.000000	0.020989  
1428.000000	0.019977  
1427.000000	0.019308  
1426.000000	0.018884  
1425.000000	0.018540  
1424.000000	0.018248  
1423.000000	0.018061  
1422.000000	0.017918  
1421.000000	0.017697  
1420.000000	0.017373  
1419.000000	0.017006  
1418.000000	0.016606  
1417.000000	0.016168  
1416.000000	0.015759  
1415.000000	0.015415  
1414.000000	0.015073  
1413.000000	0.014686  
1412.000000	0.014336  
1411.000000	0.014152  
1410.000000	0.014112  
1409.000000	0.014090  
1408.000000	0.014068  
1407.000000	0.014119  
1406.000000	0.014268  
1405.000000	0.014480  
1404.000000	0.014750  
1403.000000	0.015067  
1402.000000	0.015363  
1401.000000	0.015607  
1400.000000	0.015890  
1399.000000	0.016300  
1398.000000	0.016727  
1397.000000	0.017027  
1396.000000	0.017264  
1395.000000	0.017584  
1394.000000	0.017961  
1393.000000	0.018300  
1392.000000	0.018632  
1391.000000	0.019031  
1390.000000	0.019566  
1389.000000	0.020402  
1388.000000	0.021800  
1387.000000	0.023761  
1386.000000	0.025866  
1385.000000	0.027878  
1384.000000	0.029998  
1383.000000	0.032502  
1382.000000	0.035472  
1381.000000	0.038779  
1380.000000	0.042072  
1379.000000	0.044714  
1378.000000	0.046064  
1377.000000	0.045903  
1376.000000	0.044327  
1375.000000	0.041505  
1374.000000	0.038005  
1373.000000	0.034794  
1372.000000	0.032415  
1371.000000	0.030795  
1370.000000	0.029737  
1369.000000	0.029131  
1368.000000	0.028841  
1367.000000	0.028623  
1366.000000	0.028228  
1365.000000	0.027489  
1364.000000	0.026348  
1363.000000	0.024958  
1362.000000	0.023681  
1361.000000	0.022756  
1360.000000	0.022149  
1359.000000	0.021751  
1358.000000	0.021493  
1357.000000	0.021314  
1356.000000	0.021178  
1355.000000	0.021083  
1354.000000	0.021044  
1353.000000	0.021045  
1352.000000	0.021041  
1351.000000	0.020988  
1350.000000	0.020860  
1349.000000	0.020656  
1348.000000	0.020397  
1347.000000	0.020111  
1346.000000	0.019815  
1345.000000	0.019540  
1344.000000	0.019338  
1343.000000	0.019232  
1342.000000	0.019160  
1341.000000	0.018985  
1340.000000	0.018614  
1339.000000	0.018109  
1338.000000	0.017614  
1337.000000	0.017198  
1336.000000	0.016853  
1335.000000	0.016553  
1334.000000	0.016275  
1333.000000	0.016015  
1332.000000	0.015814  
1331.000000	0.015720  
1330.000000	0.015721  
1329.000000	0.015750  
1328.000000	0.015768  
1327.000000	0.015801  
1326.000000	0.015873  
1325.000000	0.015971  
1324.000000	0.016081  
1323.000000	0.016213  
1322.000000	0.016358  
1321.000000	0.016471  
1320.000000	0.016521  
1319.000000	0.016547  
1318.000000	0.016611  
1317.000000	0.016733  
1316.000000	0.016904  
1315.000000	0.017120  
1314.000000	0.017363  
1313.000000	0.017578  
1312.000000	0.017718  
1311.000000	0.017797  
1310.000000	0.017864  
1309.000000	0.017951  
1308.000000	0.018054  
1307.000000	0.018154  
1306.000000	0.018233  
1305.000000	0.018283  
1304.000000	0.018308  
1303.000000	0.018319  
1302.000000	0.018300  
1301.000000	0.018220  
1300.000000	0.018073  
1299.000000	0.017895  
1298.000000	0.017718  
1297.000000	0.017537  
1296.000000	0.017329  
1295.000000	0.017095  
1294.000000	0.016862  
1293.000000	0.016653  
1292.000000	0.016479  
1291.000000	0.016352  
1290.000000	0.016285  
1289.000000	0.016295  
1288.000000	0.016389  
1287.000000	0.016559  
1286.000000	0.016788  
1285.000000	0.017067  
1284.000000	0.017384  
1283.000000	0.017706  
1282.000000	0.017975  
1281.000000	0.018168  
1280.000000	0.018333  
1279.000000	0.018530  
1278.000000	0.018756  
1277.000000	0.018954  
1276.000000	0.019107  
1275.000000	0.019257  
1274.000000	0.019434  
1273.000000	0.019615  
1272.000000	0.019770  
1271.000000	0.019910  
1270.000000	0.020047  
1269.000000	0.020150  
1268.000000	0.020195  
1267.000000	0.020228  
1266.000000	0.020320  
1265.000000	0.020479  
1264.000000	0.020634  
1263.000000	0.020726  
1262.000000	0.020785  
1261.000000	0.020890  
1260.000000	0.021061  
1259.000000	0.021228  
1258.000000	0.021310  
1257.000000	0.021323  
1256.000000	0.021379  
1255.000000	0.021576  
1254.000000	0.021896  
1253.000000	0.022230  
1252.000000	0.022506  
1251.000000	0.022761  
1250.000000	0.023090  
1249.000000	0.023529  
1248.000000	0.024014  
1247.000000	0.024441  
1246.000000	0.024748  
1245.000000	0.024941  
1244.000000	0.025053  
1243.000000	0.025097  
1242.000000	0.025057  
1241.000000	0.024914  
1240.000000	0.024666  
1239.000000	0.024325  
1238.000000	0.023911  
1237.000000	0.023456  
1236.000000	0.023007  
1235.000000	0.022601  
1234.000000	0.022240  
1233.000000	0.021900  
1232.000000	0.021571  
1231.000000	0.021269  
1230.000000	0.021002  
1229.000000	0.020751  
1228.000000	0.020498  
1227.000000	0.020258  
1226.000000	0.020060  
1225.000000	0.019916  
1224.000000	0.019827  
1223.000000	0.019782  
1222.000000	0.019764  
1221.000000	0.019759  
1220.000000	0.019782  
1219.000000	0.019857  
1218.000000	0.019969  
1217.000000	0.020070  
1216.000000	0.020142  
1215.000000	0.020233  
1214.000000	0.020401  
1213.000000	0.020635  
1212.000000	0.020866  
1211.000000	0.021039  
1210.000000	0.021169  
1209.000000	0.021321  
1208.000000	0.021545  
1207.000000	0.021841  
1206.000000	0.022165  
1205.000000	0.022477  
1204.000000	0.022787  
1203.000000	0.023139  
1202.000000	0.023559  
1201.000000	0.024025  
1200.000000	0.024491  
1199.000000	0.024941  
1198.000000	0.025411  
1197.000000	0.025962  
1196.000000	0.026628  
1195.000000	0.027384  
1194.000000	0.028159  
1193.000000	0.028901  
1192.000000	0.029614  
1191.000000	0.030331  
1190.000000	0.031075  
1189.000000	0.031835  
1188.000000	0.032595  
1187.000000	0.033350  
1186.000000	0.034111  
1185.000000	0.034886  
1184.000000	0.035677  
1183.000000	0.036469  
1182.000000	0.037221  
1181.000000	0.037879  
1180.000000	0.038419  
1179.000000	0.038856  
1178.000000	0.039225  
1177.000000	0.039527  
1176.000000	0.039727  
1175.000000	0.039792  
1174.000000	0.039718  
1173.000000	0.039521  
1172.000000	0.039230  
1171.000000	0.038884  
1170.000000	0.038516  
1169.000000	0.038107  
1168.000000	0.037589  
1167.000000	0.036916  
1166.000000	0.036104  
1165.000000	0.035193  
1164.000000	0.034207  
1163.000000	0.033165  
1162.000000	0.032118  
1161.000000	0.031126  
1160.000000	0.030215  
1159.000000	0.029373  
1158.000000	0.028559  
1157.000000	0.027723  
1156.000000	0.026852  
1155.000000	0.026007  
1154.000000	0.025286  
1153.000000	0.024720  
1152.000000	0.024232  
1151.000000	0.023712  
1150.000000	0.023122  
1149.000000	0.022512  
1148.000000	0.021944  
1147.000000	0.021447  
1146.000000	0.021001  
1145.000000	0.020560  
1144.000000	0.020070  
1143.000000	0.019512  
1142.000000	0.018930  
1141.000000	0.018401  
1140.000000	0.017972  
1139.000000	0.017627  
1138.000000	0.017316  
1137.000000	0.017004  
1136.000000	0.016688  
1135.000000	0.016367  
1134.000000	0.016043  
1133.000000	0.015742  
1132.000000	0.015524  
1131.000000	0.015440  
1130.000000	0.015489  
1129.000000	0.015647  
1128.000000	0.015914  
1127.000000	0.016308  
1126.000000	0.016825  
1125.000000	0.017426  
1124.000000	0.018073  
1123.000000	0.018733  
1122.000000	0.019373  
1121.000000	0.019947  
1120.000000	0.020424  
1119.000000	0.020788  
1118.000000	0.021028  
1117.000000	0.021133  
1116.000000	0.021097  
1115.000000	0.020921  
1114.000000	0.020617  
1113.000000	0.020216  
1112.000000	0.019767  
1111.000000	0.019325  
1110.000000	0.018928  
1109.000000	0.018610  
1108.000000	0.018417  
1107.000000	0.018374  
1106.000000	0.018439  
1105.000000	0.018525  
1104.000000	0.018582  
1103.000000	0.018622  
1102.000000	0.018664  
1101.000000	0.018689  
1100.000000	0.018670  
1099.000000	0.018614  
1098.000000	0.018557  
1097.000000	0.018531  
1096.000000	0.018538  
1095.000000	0.018543  
1094.000000	0.018501  
1093.000000	0.018412  
1092.000000	0.018334  
1091.000000	0.018339  
1090.000000	0.018427  
1089.000000	0.018542  
1088.000000	0.018667  
1087.000000	0.018848  
1086.000000	0.019131  
1085.000000	0.019515  
1084.000000	0.019995  
1083.000000	0.020585  
1082.000000	0.021273  
1081.000000	0.021980  
1080.000000	0.022638  
1079.000000	0.023272  
1078.000000	0.023967  
1077.000000	0.024758  
1076.000000	0.025592  
1075.000000	0.026381  
1074.000000	0.027063  
1073.000000	0.027597  
1072.000000	0.027952  
1071.000000	0.028118  
1070.000000	0.028113  
1069.000000	0.027981  
1068.000000	0.027786  
1067.000000	0.027618  
1066.000000	0.027550  
1065.000000	0.027584  
1064.000000	0.027656  
1063.000000	0.027677  
1062.000000	0.027550  
1061.000000	0.027185  
1060.000000	0.026539  
1059.000000	0.025688  
1058.000000	0.024813  
1057.000000	0.024090  
1056.000000	0.023601  
1055.000000	0.023342  
1054.000000	0.023269  
1053.000000	0.023323  
1052.000000	0.023452  
1051.000000	0.023628  
1050.000000	0.023851  
1049.000000	0.024106  
1048.000000	0.024362  
1047.000000	0.024589  
1046.000000	0.024777  
1045.000000	0.024907  
1044.000000	0.024962  
1043.000000	0.024951  
1042.000000	0.024908  
1041.000000	0.024856  
1040.000000	0.024775  
1039.000000	0.024646  
1038.000000	0.024475  
1037.000000	0.024278  
1036.000000	0.024065  
1035.000000	0.023872  
1034.000000	0.023777  
1033.000000	0.023853  
1032.000000	0.024085  
1031.000000	0.024358  
1030.000000	0.024507  
1029.000000	0.024402  
1028.000000	0.023991  
1027.000000	0.023320  
1026.000000	0.022504  
1025.000000	0.021672  
1024.000000	0.020910  
1023.000000	0.020247  
1022.000000	0.019656  
1021.000000	0.019076  
1020.000000	0.018470  
1019.000000	0.017860  
1018.000000	0.017332  
1017.000000	0.016972  
1016.000000	0.016815  
1015.000000	0.016831  
1014.000000	0.016954  
1013.000000	0.017105  
1012.000000	0.017213  
1011.000000	0.017222  
1010.000000	0.017087  
1009.000000	0.016798  
1008.000000	0.016392  
1007.000000	0.015942  
1006.000000	0.015510  
1005.000000	0.015120  
1004.000000	0.014785  
1003.000000	0.014525  
1002.000000	0.014344  
1001.000000	0.014203  
1000.000000	0.014065  
999.000000	 0.013963  
998.000000	 0.013968  
997.000000	 0.014100  
996.000000	 0.014294  
995.000000	 0.014468  
994.000000	 0.014580  
993.000000	 0.014626  
992.000000	 0.014598  
991.000000	 0.014500  
990.000000	 0.014362  
989.000000	 0.014207  
988.000000	 0.014014  
987.000000	 0.013756  
986.000000	 0.013451  
985.000000	 0.013160  
984.000000	 0.012933  
983.000000	 0.012785  
982.000000	 0.012720  
981.000000	 0.012748  
980.000000	 0.012867  
979.000000	 0.013044  
978.000000	 0.013247  
977.000000	 0.013476  
976.000000	 0.013757  
975.000000	 0.014096  
974.000000	 0.014449  
973.000000	 0.014748  
972.000000	 0.014948  
971.000000	 0.015062  
970.000000	 0.015150  
969.000000	 0.015272  
968.000000	 0.015441  
967.000000	 0.015624  
966.000000	 0.015773  
965.000000	 0.015854  
964.000000	 0.015850  
963.000000	 0.015764  
962.000000	 0.015629  
961.000000	 0.015506  
960.000000	 0.015441  
959.000000	 0.015440  
958.000000	 0.015481  
957.000000	 0.015554  
956.000000	 0.015666  
955.000000	 0.015816  
954.000000	 0.015985  
953.000000	 0.016148  
952.000000	 0.016265  
951.000000	 0.016273  
950.000000	 0.016118  
949.000000	 0.015816  
948.000000	 0.015469  
947.000000	 0.015170  
946.000000	 0.014917  
945.000000	 0.014631  
944.000000	 0.014279  
943.000000	 0.013926  
942.000000	 0.013655  
941.000000	 0.013462  
940.000000	 0.013258  
939.000000	 0.012951  
938.000000	 0.012531  
937.000000	 0.012065  
936.000000	 0.011659  
935.000000	 0.011389  
934.000000	 0.011259  
933.000000	 0.011196  
932.000000	 0.011110  
931.000000	 0.010960  
930.000000	 0.010781  
929.000000	 0.010646  
928.000000	 0.010609  
927.000000	 0.010653  
926.000000	 0.010702  
925.000000	 0.010688  
924.000000	 0.010635  
923.000000	 0.010648  
922.000000	 0.010808  
921.000000	 0.011075  
920.000000	 0.011322  
919.000000	 0.011451  
918.000000	 0.011453  
917.000000	 0.011365  
916.000000	 0.011227  
915.000000	 0.011087  
914.000000	 0.010999  
913.000000	 0.010975  
912.000000	 0.010959  
911.000000	 0.010888  
910.000000	 0.010760  
909.000000	 0.010621  
908.000000	 0.010491  
907.000000	 0.010351  
906.000000	 0.010206  
905.000000	 0.010095  
904.000000	 0.010054  
903.000000	 0.010077  
902.000000	 0.010153  
901.000000	 0.010277  
900.000000	 0.010412  
899.000000	 0.010472  
898.000000	 0.010398  
897.000000	 0.010231  
896.000000	 0.010080  
895.000000	 0.010014  
894.000000	 0.010032  
893.000000	 0.010101  
892.000000	 0.010204  
891.000000	 0.010322  
890.000000	 0.010420  
889.000000	 0.010469  
888.000000	 0.010467  
887.000000	 0.010423  
886.000000	 0.010341  
885.000000	 0.010238  
884.000000	 0.010149  
883.000000	 0.010104  
882.000000	 0.010110  
881.000000	 0.010156  
880.000000	 0.010212  
879.000000	 0.010235  
878.000000	 0.010196  
877.000000	 0.010141  
876.000000	 0.010159  
875.000000	 0.010279  
874.000000	 0.010431  
873.000000	 0.010531  
872.000000	 0.010573  
871.000000	 0.010606  
870.000000	 0.010642  
869.000000	 0.010657  
868.000000	 0.010646  
867.000000	 0.010632  
866.000000	 0.010617  
865.000000	 0.010580  
864.000000	 0.010530  
863.000000	 0.010521  
862.000000	 0.010596  
861.000000	 0.010724  
860.000000	 0.010836  
859.000000	 0.010919  
858.000000	 0.011041  
857.000000	 0.011280  
856.000000	 0.011630  
855.000000	 0.011997  
854.000000	 0.012299  
853.000000	 0.012567  
852.000000	 0.012927  
851.000000	 0.013451  
850.000000	 0.014068  
849.000000	 0.014626  
848.000000	 0.015028  
847.000000	 0.015271  
846.000000	 0.015373  
845.000000	 0.015324  
844.000000	 0.015115  
843.000000	 0.014804  
842.000000	 0.014485  
841.000000	 0.014209  
840.000000	 0.013941  
839.000000	 0.013611  
838.000000	 0.013208  
837.000000	 0.012793  
836.000000	 0.012442  
835.000000	 0.012167  
834.000000	 0.011915  
833.000000	 0.011646  
832.000000	 0.011404  
831.000000	 0.011272  
830.000000	 0.011256  
829.000000	 0.011244  
828.000000	 0.011130  
827.000000	 0.010955  
826.000000	 0.010877  
825.000000	 0.010973  
824.000000	 0.011139  
823.000000	 0.011220  
822.000000	 0.011201  
821.000000	 0.011173  
820.000000	 0.011194  
819.000000	 0.011243  
818.000000	 0.011305  
817.000000	 0.011408  
816.000000	 0.011551  
815.000000	 0.011655  
814.000000	 0.011642  
813.000000	 0.011535  
812.000000	 0.011449  
811.000000	 0.011480  
810.000000	 0.011644  
809.000000	 0.011916  
808.000000	 0.012256  
807.000000	 0.012607  
806.000000	 0.012884  
805.000000	 0.013008  
804.000000	 0.012942  
803.000000	 0.012700  
802.000000	 0.012335  
801.000000	 0.011930  
800.000000	 0.011554  
799.000000	 0.011239  
798.000000	 0.010999  
797.000000	 0.010847  
796.000000	 0.010769  
795.000000	 0.010692  
794.000000	 0.010552  
793.000000	 0.010392  
792.000000	 0.010332  
791.000000	 0.010424  
790.000000	 0.010601  
789.000000	 0.010809  
788.000000	 0.011092  
787.000000	 0.011495  
786.000000	 0.011940  
785.000000	 0.012295  
784.000000	 0.012546  
783.000000	 0.012811  
782.000000	 0.013186  
781.000000	 0.013649  
780.000000	 0.014113  
779.000000	 0.014498  
778.000000	 0.014756  
777.000000	 0.014885  
776.000000	 0.014969  
775.000000	 0.015132  
774.000000	 0.015420  
773.000000	 0.015769  
772.000000	 0.016114  
771.000000	 0.016477  
770.000000	 0.016898  
769.000000	 0.017328  
768.000000	 0.017655  
767.000000	 0.017829  
766.000000	 0.017909  
765.000000	 0.017967  
764.000000	 0.018000  
763.000000	 0.017970  
762.000000	 0.017887  
761.000000	 0.017822  
760.000000	 0.017830  
759.000000	 0.017918  
758.000000	 0.018084  
757.000000	 0.018358  
756.000000	 0.018759  
755.000000	 0.019230  
754.000000	 0.019659  
753.000000	 0.019982  
752.000000	 0.020246  
751.000000	 0.020547  
750.000000	 0.020935  
749.000000	 0.021397  
748.000000	 0.021929  
747.000000	 0.022597  
746.000000	 0.023510  
745.000000	 0.024726  
744.000000	 0.026162  
743.000000	 0.027598  
742.000000	 0.028815  
741.000000	 0.029753  
740.000000	 0.030508  
739.000000	 0.031187  
738.000000	 0.031766  
737.000000	 0.032151  
736.000000	 0.032319  
735.000000	 0.032371  
734.000000	 0.032435  
733.000000	 0.032603  
732.000000	 0.032948  
731.000000	 0.033547  
730.000000	 0.034409  
729.000000	 0.035429  
728.000000	 0.036498  
727.000000	 0.037623  
726.000000	 0.038859  
725.000000	 0.040121  
724.000000	 0.041140  
723.000000	 0.041625  
722.000000	 0.041422  
721.000000	 0.040558  
720.000000	 0.039203  
719.000000	 0.037599  
718.000000	 0.035949  
717.000000	 0.034380  
716.000000	 0.032968  
715.000000	 0.031765  
714.000000	 0.030784  
713.000000	 0.029964  
712.000000	 0.029214  
711.000000	 0.028472  
710.000000	 0.027751  
709.000000	 0.027146  
708.000000	 0.026785  
707.000000	 0.026730  
706.000000	 0.026892  
705.000000	 0.027078  
704.000000	 0.027163  
703.000000	 0.027144  
702.000000	 0.027053  
701.000000	 0.026876  
700.000000	 0.026594  
699.000000	 0.026229  
698.000000	 0.025783  
697.000000	 0.025190  
696.000000	 0.024430  
695.000000	 0.023630  
694.000000	 0.022964  
693.000000	 0.022463  
692.000000	 0.021987  
691.000000	 0.021441  
690.000000	 0.020895  
689.000000	 0.020474  
688.000000	 0.020177  
687.000000	 0.019875  
686.000000	 0.019496  
685.000000	 0.019112  
684.000000	 0.018821  
683.000000	 0.018620  
682.000000	 0.018412  
681.000000	 0.018092  
680.000000	 0.017643  
679.000000	 0.017153  
678.000000	 0.016748  
677.000000	 0.016482  
676.000000	 0.016343  
675.000000	 0.016258  
674.000000	 0.016123  
673.000000	 0.015917  
672.000000	 0.015859  
671.000000	 0.016379  
670.000000	 0.017816  
669.000000	 0.019949  
668.000000	 0.021075  
667.000000	 0.019476  
666.000000	 0.016847  
665.000000	 0.015052  
664.000000	 0.014281  
663.000000	 0.014188  
662.000000	 0.014403  
661.000000	 0.014637  
660.000000	 0.014728  
659.000000	 0.014602  
658.000000	 0.014303  
657.000000	 0.013968  
656.000000	 0.013713  
655.000000	 0.013483  
654.000000	 0.013090  
653.000000	 0.012500  
652.000000	 0.011962  
651.000000	 0.011773  
650.000000	 0.011897  

