PE IR                   SPECTRUM    ASCII       PEDS        1.60        
  -1
NB40~1.ASC
17/05/24
07:40:56.00
17/05/24
07:40:56.00
Admin

650.000000
4









SPECTRUM ONE,CPU32 MAIN 00.02.6000 25-JUNE-2003 12:00:00
MIR TGS
MIR
OPTKBR
68128
0.200000

4.000000
STRONG
RATIO
SPECTRUM
MAGNITUDE
UNIVERSAL ATR
DOUBLE

COMBINED


0


#HDR
-1
-1
#GR
CM-1
A
0.00000011920928955078
0.0
4000.000000
-1.000000
3351
8
0.200580
0.000592
#DATA
4000.000000	0.003839 
3999.000000	0.003789 
3998.000000	0.003772 
3997.000000	0.003735 
3996.000000	0.003629 
3995.000000	0.003465 
3994.000000	0.003301 
3993.000000	0.003187 
3992.000000	0.003136 
3991.000000	0.003140 
3990.000000	0.003192 
3989.000000	0.003286 
3988.000000	0.003409 
3987.000000	0.003538 
3986.000000	0.003656 
3985.000000	0.003749 
3984.000000	0.003803 
3983.000000	0.003793 
3982.000000	0.003692 
3981.000000	0.003497 
3980.000000	0.003253 
3979.000000	0.003041 
3978.000000	0.002940 
3977.000000	0.002984 
3976.000000	0.003158 
3975.000000	0.003394 
3974.000000	0.003610 
3973.000000	0.003732 
3972.000000	0.003732 
3971.000000	0.003641 
3970.000000	0.003523 
3969.000000	0.003433 
3968.000000	0.003380 
3967.000000	0.003346 
3966.000000	0.003315 
3965.000000	0.003287 
3964.000000	0.003263 
3963.000000	0.003237 
3962.000000	0.003210 
3961.000000	0.003196 
3960.000000	0.003211 
3959.000000	0.003245 
3958.000000	0.003267 
3957.000000	0.003257 
3956.000000	0.003229 
3955.000000	0.003219 
3954.000000	0.003243 
3953.000000	0.003281 
3952.000000	0.003307 
3951.000000	0.003316 
3950.000000	0.003323 
3949.000000	0.003316 
3948.000000	0.003262 
3947.000000	0.003136 
3946.000000	0.002959 
3945.000000	0.002780 
3944.000000	0.002660 
3943.000000	0.002647 
3942.000000	0.002746 
3941.000000	0.002923 
3940.000000	0.003118 
3939.000000	0.003272 
3938.000000	0.003351 
3937.000000	0.003376 
3936.000000	0.003384 
3935.000000	0.003380 
3934.000000	0.003322 
3933.000000	0.003185 
3932.000000	0.003030 
3931.000000	0.002967 
3930.000000	0.003027 
3929.000000	0.003135 
3928.000000	0.003187 
3927.000000	0.003135 
3926.000000	0.003008 
3925.000000	0.002871 
3924.000000	0.002760 
3923.000000	0.002674 
3922.000000	0.002623 
3921.000000	0.002649 
3920.000000	0.002784 
3919.000000	0.003001 
3918.000000	0.003205 
3917.000000	0.003308 
3916.000000	0.003320 
3915.000000	0.003333 
3914.000000	0.003431 
3913.000000	0.003622 
3912.000000	0.003823 
3911.000000	0.003915 
3910.000000	0.003824 
3909.000000	0.003572 
3908.000000	0.003262 
3907.000000	0.003019 
3906.000000	0.002930 
3905.000000	0.002969 
3904.000000	0.002993 
3903.000000	0.002880 
3902.000000	0.002666 
3901.000000	0.002500 
3900.000000	0.002494 
3899.000000	0.002639 
3898.000000	0.002845 
3897.000000	0.003023 
3896.000000	0.003114 
3895.000000	0.003086 
3894.000000	0.002952 
3893.000000	0.002796 
3892.000000	0.002730 
3891.000000	0.002771 
3890.000000	0.002844 
3889.000000	0.002876 
3888.000000	0.002830 
3887.000000	0.002724 
3886.000000	0.002645 
3885.000000	0.002665 
3884.000000	0.002758 
3883.000000	0.002865 
3882.000000	0.002962 
3881.000000	0.003055 
3880.000000	0.003128 
3879.000000	0.003148 
3878.000000	0.003109 
3877.000000	0.003017 
3876.000000	0.002887 
3875.000000	0.002773 
3874.000000	0.002708 
3873.000000	0.002644 
3872.000000	0.002535 
3871.000000	0.002440 
3870.000000	0.002466 
3869.000000	0.002602 
3868.000000	0.002748 
3867.000000	0.002835 
3866.000000	0.002856 
3865.000000	0.002867 
3864.000000	0.002917 
3863.000000	0.002966 
3862.000000	0.002941 
3861.000000	0.002836 
3860.000000	0.002703 
3859.000000	0.002608 
3858.000000	0.002589 
3857.000000	0.002621 
3856.000000	0.002613 
3855.000000	0.002535 
3854.000000	0.002566 
3853.000000	0.002793 
3852.000000	0.002973 
3851.000000	0.003002 
3850.000000	0.002951 
3849.000000	0.002879 
3848.000000	0.002790 
3847.000000	0.002653 
3846.000000	0.002451 
3845.000000	0.002244 
3844.000000	0.002155 
3843.000000	0.002279 
3842.000000	0.002587 
3841.000000	0.002936 
3840.000000	0.003174 
3839.000000	0.003233 
3838.000000	0.003140 
3837.000000	0.002947 
3836.000000	0.002712 
3835.000000	0.002511 
3834.000000	0.002414 
3833.000000	0.002442 
3832.000000	0.002548 
3831.000000	0.002648 
3830.000000	0.002689 
3829.000000	0.002668 
3828.000000	0.002613 
3827.000000	0.002546 
3826.000000	0.002451 
3825.000000	0.002288 
3824.000000	0.002041 
3823.000000	0.001799 
3822.000000	0.001785 
3821.000000	0.002093 
3820.000000	0.002489 
3819.000000	0.002778 
3818.000000	0.002972 
3817.000000	0.003150 
3816.000000	0.003334 
3815.000000	0.003457 
3814.000000	0.003455 
3813.000000	0.003326 
3812.000000	0.003101 
3811.000000	0.002827 
3810.000000	0.002568 
3809.000000	0.002400 
3808.000000	0.002380 
3807.000000	0.002478 
3806.000000	0.002582 
3805.000000	0.002630 
3804.000000	0.002631 
3803.000000	0.002616 
3802.000000	0.002589 
3801.000000	0.002490 
3800.000000	0.002294 
3799.000000	0.002133 
3798.000000	0.002161 
3797.000000	0.002384 
3796.000000	0.002641 
3795.000000	0.002778 
3794.000000	0.002786 
3793.000000	0.002752 
3792.000000	0.002754 
3791.000000	0.002805 
3790.000000	0.002870 
3789.000000	0.002915 
3788.000000	0.002939 
3787.000000	0.002973 
3786.000000	0.003042 
3785.000000	0.003123 
3784.000000	0.003163 
3783.000000	0.003122 
3782.000000	0.003009 
3781.000000	0.002883 
3780.000000	0.002814 
3779.000000	0.002813 
3778.000000	0.002808 
3777.000000	0.002749 
3776.000000	0.002660 
3775.000000	0.002597 
3774.000000	0.002600 
3773.000000	0.002642 
3772.000000	0.002644 
3771.000000	0.002554 
3770.000000	0.002414 
3769.000000	0.002324 
3768.000000	0.002336 
3767.000000	0.002427 
3766.000000	0.002525 
3765.000000	0.002585 
3764.000000	0.002623 
3763.000000	0.002683 
3762.000000	0.002782 
3761.000000	0.002892 
3760.000000	0.002945 
3759.000000	0.002874 
3758.000000	0.002684 
3757.000000	0.002464 
3756.000000	0.002304 
3755.000000	0.002225 
3754.000000	0.002194 
3753.000000	0.002212 
3752.000000	0.002376 
3751.000000	0.002737 
3750.000000	0.003088 
3749.000000	0.003252 
3748.000000	0.003287 
3747.000000	0.003262 
3746.000000	0.003151 
3745.000000	0.002918 
3744.000000	0.002612 
3743.000000	0.002363 
3742.000000	0.002237 
3741.000000	0.002213 
3740.000000	0.002263 
3739.000000	0.002379 
3738.000000	0.002545 
3737.000000	0.002709 
3736.000000	0.002765 
3735.000000	0.002631 
3734.000000	0.002380 
3733.000000	0.002177 
3732.000000	0.002105 
3731.000000	0.002138 
3730.000000	0.002207 
3729.000000	0.002242 
3728.000000	0.002189 
3727.000000	0.002045 
3726.000000	0.001862 
3725.000000	0.001728 
3724.000000	0.001718 
3723.000000	0.001855 
3722.000000	0.002076 
3721.000000	0.002274 
3720.000000	0.002377 
3719.000000	0.002375 
3718.000000	0.002303 
3717.000000	0.002198 
3716.000000	0.002063 
3715.000000	0.001845 
3714.000000	0.001489 
3713.000000	0.001069 
3712.000000	0.000880 
3711.000000	0.001117 
3710.000000	0.001566 
3709.000000	0.001939 
3708.000000	0.002179 
3707.000000	0.002362 
3706.000000	0.002535 
3705.000000	0.002682 
3704.000000	0.002755 
3703.000000	0.002741 
3702.000000	0.002674 
3701.000000	0.002589 
3700.000000	0.002506 
3699.000000	0.002457 
3698.000000	0.002481 
3697.000000	0.002589 
3696.000000	0.002733 
3695.000000	0.002826 
3694.000000	0.002810 
3693.000000	0.002708 
3692.000000	0.002622 
3691.000000	0.002678 
3690.000000	0.002915 
3689.000000	0.003187 
3688.000000	0.003325 
3687.000000	0.003356 
3686.000000	0.003367 
3685.000000	0.003351 
3684.000000	0.003233 
3683.000000	0.002954 
3682.000000	0.002541 
3681.000000	0.002122 
3680.000000	0.001871 
3679.000000	0.001911 
3678.000000	0.002273 
3677.000000	0.002866 
3676.000000	0.003377 
3675.000000	0.003412 
3674.000000	0.002996 
3673.000000	0.002501 
3672.000000	0.002246 
3671.000000	0.002401 
3670.000000	0.002846 
3669.000000	0.003168 
3668.000000	0.003168 
3667.000000	0.002991 
3666.000000	0.002825 
3665.000000	0.002761 
3664.000000	0.002809 
3663.000000	0.002910 
3662.000000	0.002980 
3661.000000	0.002965 
3660.000000	0.002872 
3659.000000	0.002741 
3658.000000	0.002631 
3657.000000	0.002619 
3656.000000	0.002750 
3655.000000	0.002992 
3654.000000	0.003270 
3653.000000	0.003500 
3652.000000	0.003616 
3651.000000	0.003629 
3650.000000	0.003662 
3649.000000	0.003759 
3648.000000	0.003738 
3647.000000	0.003528 
3646.000000	0.003282 
3645.000000	0.003140 
3644.000000	0.003124 
3643.000000	0.003184 
3642.000000	0.003260 
3641.000000	0.003314 
3640.000000	0.003325 
3639.000000	0.003282 
3638.000000	0.003186 
3637.000000	0.003061 
3636.000000	0.002941 
3635.000000	0.002857 
3634.000000	0.002816 
3633.000000	0.002810 
3632.000000	0.002840 
3631.000000	0.002953 
3630.000000	0.003208 
3629.000000	0.003502 
3628.000000	0.003592 
3627.000000	0.003479 
3626.000000	0.003344 
3625.000000	0.003274 
3624.000000	0.003269 
3623.000000	0.003311 
3622.000000	0.003409 
3621.000000	0.003570 
3620.000000	0.003733 
3619.000000	0.003742 
3618.000000	0.003521 
3617.000000	0.003178 
3616.000000	0.002888 
3615.000000	0.002774 
3614.000000	0.002884 
3613.000000	0.003165 
3612.000000	0.003499 
3611.000000	0.003789 
3610.000000	0.004001 
3609.000000	0.004164 
3608.000000	0.004320 
3607.000000	0.004459 
3606.000000	0.004538 
3605.000000	0.004541 
3604.000000	0.004478 
3603.000000	0.004367 
3602.000000	0.004253 
3601.000000	0.004212 
3600.000000	0.004302 
3599.000000	0.004486 
3598.000000	0.004654 
3597.000000	0.004721 
3596.000000	0.004702 
3595.000000	0.004690 
3594.000000	0.004749 
3593.000000	0.004844 
3592.000000	0.004904 
3591.000000	0.004873 
3590.000000	0.004734 
3589.000000	0.004545 
3588.000000	0.004440 
3587.000000	0.004486 
3586.000000	0.004606 
3585.000000	0.004719 
3584.000000	0.004798 
3583.000000	0.004835 
3582.000000	0.004846 
3581.000000	0.004883 
3580.000000	0.005018 
3579.000000	0.005274 
3578.000000	0.005578 
3577.000000	0.005810 
3576.000000	0.005904 
3575.000000	0.005908 
3574.000000	0.005920 
3573.000000	0.005993 
3572.000000	0.006099 
3571.000000	0.006166 
3570.000000	0.006126 
3569.000000	0.005953 
3568.000000	0.005710 
3567.000000	0.005519 
3566.000000	0.005421 
3565.000000	0.005371 
3564.000000	0.005350 
3563.000000	0.005378 
3562.000000	0.005471 
3561.000000	0.005614 
3560.000000	0.005774 
3559.000000	0.005933 
3558.000000	0.006101 
3557.000000	0.006286 
3556.000000	0.006469 
3555.000000	0.006609 
3554.000000	0.006674 
3553.000000	0.006658 
3552.000000	0.006577 
3551.000000	0.006461 
3550.000000	0.006349 
3549.000000	0.006292 
3548.000000	0.006341 
3547.000000	0.006503 
3546.000000	0.006722 
3545.000000	0.006910 
3544.000000	0.007034 
3543.000000	0.007125 
3542.000000	0.007228 
3541.000000	0.007352 
3540.000000	0.007468 
3539.000000	0.007527 
3538.000000	0.007496 
3537.000000	0.007389 
3536.000000	0.007263 
3535.000000	0.007179 
3534.000000	0.007155 
3533.000000	0.007158 
3532.000000	0.007139 
3531.000000	0.007069 
3530.000000	0.006975 
3529.000000	0.006915 
3528.000000	0.006926 
3527.000000	0.006992 
3526.000000	0.007082 
3525.000000	0.007202 
3524.000000	0.007377 
3523.000000	0.007610 
3522.000000	0.007869 
3521.000000	0.008114 
3520.000000	0.008306 
3519.000000	0.008385 
3518.000000	0.008313 
3517.000000	0.008139 
3516.000000	0.008000 
3515.000000	0.008012 
3514.000000	0.008164 
3513.000000	0.008354 
3512.000000	0.008509 
3511.000000	0.008658 
3510.000000	0.008840 
3509.000000	0.009010 
3508.000000	0.009088 
3507.000000	0.009066 
3506.000000	0.009021 
3505.000000	0.009016 
3504.000000	0.009034 
3503.000000	0.009014 
3502.000000	0.008946 
3501.000000	0.008888 
3500.000000	0.008885 
3499.000000	0.008924 
3498.000000	0.008978 
3497.000000	0.009050 
3496.000000	0.009168 
3495.000000	0.009313 
3494.000000	0.009426 
3493.000000	0.009475 
3492.000000	0.009506 
3491.000000	0.009589 
3490.000000	0.009724 
3489.000000	0.009835 
3488.000000	0.009876 
3487.000000	0.009904 
3486.000000	0.010017 
3485.000000	0.010222 
3484.000000	0.010399 
3483.000000	0.010415 
3482.000000	0.010262 
3481.000000	0.010077 
3480.000000	0.010007 
3479.000000	0.010088 
3478.000000	0.010256 
3477.000000	0.010454 
3476.000000	0.010678 
3475.000000	0.010943 
3474.000000	0.011214 
3473.000000	0.011408 
3472.000000	0.011465 
3471.000000	0.011391 
3470.000000	0.011249 
3469.000000	0.011107 
3468.000000	0.011011 
3467.000000	0.010978 
3466.000000	0.010993 
3465.000000	0.011024 
3464.000000	0.011044 
3463.000000	0.011049 
3462.000000	0.011052 
3461.000000	0.011065 
3460.000000	0.011101 
3459.000000	0.011180 
3458.000000	0.011312 
3457.000000	0.011473 
3456.000000	0.011615 
3455.000000	0.011695 
3454.000000	0.011711 
3453.000000	0.011697 
3452.000000	0.011702 
3451.000000	0.011765 
3450.000000	0.011905 
3449.000000	0.012109 
3448.000000	0.012334 
3447.000000	0.012513 
3446.000000	0.012587 
3445.000000	0.012542 
3444.000000	0.012423 
3443.000000	0.012307 
3442.000000	0.012260 
3441.000000	0.012307 
3440.000000	0.012434 
3439.000000	0.012597 
3438.000000	0.012726 
3437.000000	0.012753 
3436.000000	0.012677 
3435.000000	0.012584 
3434.000000	0.012583 
3433.000000	0.012714 
3432.000000	0.012946 
3431.000000	0.013219 
3430.000000	0.013487 
3429.000000	0.013693 
3428.000000	0.013779 
3427.000000	0.013737 
3426.000000	0.013621 
3425.000000	0.013501 
3424.000000	0.013395 
3423.000000	0.013268 
3422.000000	0.013111 
3421.000000	0.012967 
3420.000000	0.012887 
3419.000000	0.012867 
3418.000000	0.012862 
3417.000000	0.012850 
3416.000000	0.012876 
3415.000000	0.013006 
3414.000000	0.013257 
3413.000000	0.013562 
3412.000000	0.013820 
3411.000000	0.013968 
3410.000000	0.014019 
3409.000000	0.014041 
3408.000000	0.014109 
3407.000000	0.014253 
3406.000000	0.014430 
3405.000000	0.014560 
3404.000000	0.014586 
3403.000000	0.014523 
3402.000000	0.014433 
3401.000000	0.014371 
3400.000000	0.014364 
3399.000000	0.014408 
3398.000000	0.014467 
3397.000000	0.014476 
3396.000000	0.014396 
3395.000000	0.014258 
3394.000000	0.014164 
3393.000000	0.014202 
3392.000000	0.014375 
3391.000000	0.014599 
3390.000000	0.014774 
3389.000000	0.014842 
3388.000000	0.014818 
3387.000000	0.014768 
3386.000000	0.014751 
3385.000000	0.014777 
3384.000000	0.014821 
3383.000000	0.014867 
3382.000000	0.014917 
3381.000000	0.014973 
3380.000000	0.015020 
3379.000000	0.015041 
3378.000000	0.015037 
3377.000000	0.015023 
3376.000000	0.015014 
3375.000000	0.015008 
3374.000000	0.014979 
3373.000000	0.014901 
3372.000000	0.014800 
3371.000000	0.014763 
3370.000000	0.014858 
3369.000000	0.015050 
3368.000000	0.015220 
3367.000000	0.015286 
3366.000000	0.015264 
3365.000000	0.015205 
3364.000000	0.015124 
3363.000000	0.015010 
3362.000000	0.014902 
3361.000000	0.014872 
3360.000000	0.014961 
3359.000000	0.015140 
3358.000000	0.015346 
3357.000000	0.015525 
3356.000000	0.015653 
3355.000000	0.015735 
3354.000000	0.015792 
3353.000000	0.015826 
3352.000000	0.015810 
3351.000000	0.015723 
3350.000000	0.015597 
3349.000000	0.015496 
3348.000000	0.015456 
3347.000000	0.015454 
3346.000000	0.015465 
3345.000000	0.015501 
3344.000000	0.015598 
3343.000000	0.015739 
3342.000000	0.015834 
3341.000000	0.015783 
3340.000000	0.015562 
3339.000000	0.015256 
3338.000000	0.015007 
3337.000000	0.014913 
3336.000000	0.014982 
3335.000000	0.015153 
3334.000000	0.015355 
3333.000000	0.015530 
3332.000000	0.015633 
3331.000000	0.015637 
3330.000000	0.015562 
3329.000000	0.015463 
3328.000000	0.015391 
3327.000000	0.015365 
3326.000000	0.015399 
3325.000000	0.015519 
3324.000000	0.015737 
3323.000000	0.016001 
3322.000000	0.016203 
3321.000000	0.016267 
3320.000000	0.016221 
3319.000000	0.016177 
3318.000000	0.016209 
3317.000000	0.016282 
3316.000000	0.016307 
3315.000000	0.016250 
3314.000000	0.016172 
3313.000000	0.016155 
3312.000000	0.016216 
3311.000000	0.016310 
3310.000000	0.016388 
3309.000000	0.016444 
3308.000000	0.016490 
3307.000000	0.016523 
3306.000000	0.016516 
3305.000000	0.016456 
3304.000000	0.016375 
3303.000000	0.016331 
3302.000000	0.016344 
3301.000000	0.016365 
3300.000000	0.016332 
3299.000000	0.016241 
3298.000000	0.016153 
3297.000000	0.016114 
3296.000000	0.016107 
3295.000000	0.016086 
3294.000000	0.016050 
3293.000000	0.016042 
3292.000000	0.016090 
3291.000000	0.016179 
3290.000000	0.016269 
3289.000000	0.016332 
3288.000000	0.016367 
3287.000000	0.016392 
3286.000000	0.016426 
3285.000000	0.016470 
3284.000000	0.016503 
3283.000000	0.016519 
3282.000000	0.016537 
3281.000000	0.016556 
3280.000000	0.016526 
3279.000000	0.016382 
3278.000000	0.016131 
3277.000000	0.015860 
3276.000000	0.015662 
3275.000000	0.015565 
3274.000000	0.015547 
3273.000000	0.015589 
3272.000000	0.015676 
3271.000000	0.015775 
3270.000000	0.015838 
3269.000000	0.015847 
3268.000000	0.015830 
3267.000000	0.015834 
3266.000000	0.015868 
3265.000000	0.015889 
3264.000000	0.015843 
3263.000000	0.015719 
3262.000000	0.015565 
3261.000000	0.015444 
3260.000000	0.015382 
3259.000000	0.015373 
3258.000000	0.015419 
3257.000000	0.015537 
3256.000000	0.015714 
3255.000000	0.015883 
3254.000000	0.015968 
3253.000000	0.015949 
3252.000000	0.015866 
3251.000000	0.015763 
3250.000000	0.015661 
3249.000000	0.015572 
3248.000000	0.015510 
3247.000000	0.015491 
3246.000000	0.015519 
3245.000000	0.015582 
3244.000000	0.015655 
3243.000000	0.015698 
3242.000000	0.015671 
3241.000000	0.015565 
3240.000000	0.015418 
3239.000000	0.015285 
3238.000000	0.015196 
3237.000000	0.015145 
3236.000000	0.015127 
3235.000000	0.015146 
3234.000000	0.015211 
3233.000000	0.015297 
3232.000000	0.015360 
3231.000000	0.015365 
3230.000000	0.015322 
3229.000000	0.015276 
3228.000000	0.015268 
3227.000000	0.015315 
3226.000000	0.015409 
3225.000000	0.015537 
3224.000000	0.015682 
3223.000000	0.015790 
3222.000000	0.015781 
3221.000000	0.015608 
3220.000000	0.015326 
3219.000000	0.015081 
3218.000000	0.014994 
3217.000000	0.015055 
3216.000000	0.015143 
3215.000000	0.015153 
3214.000000	0.015087 
3213.000000	0.015022 
3212.000000	0.015001 
3211.000000	0.014997 
3210.000000	0.014967 
3209.000000	0.014902 
3208.000000	0.014831 
3207.000000	0.014774 
3206.000000	0.014745 
3205.000000	0.014754 
3204.000000	0.014798 
3203.000000	0.014833 
3202.000000	0.014793 
3201.000000	0.014646 
3200.000000	0.014433 
3199.000000	0.014232 
3198.000000	0.014111 
3197.000000	0.014083 
3196.000000	0.014121 
3195.000000	0.014184 
3194.000000	0.014242 
3193.000000	0.014278 
3192.000000	0.014279 
3191.000000	0.014223 
3190.000000	0.014097 
3189.000000	0.013931 
3188.000000	0.013800 
3187.000000	0.013765 
3186.000000	0.013826 
3185.000000	0.013930 
3184.000000	0.014034 
3183.000000	0.014130 
3182.000000	0.014211 
3181.000000	0.014238 
3180.000000	0.014159 
3179.000000	0.013965 
3178.000000	0.013703 
3177.000000	0.013453 
3176.000000	0.013274 
3175.000000	0.013178 
3174.000000	0.013134 
3173.000000	0.013102 
3172.000000	0.013064 
3171.000000	0.013025 
3170.000000	0.012992 
3169.000000	0.012959 
3168.000000	0.012938 
3167.000000	0.012971 
3166.000000	0.013095 
3165.000000	0.013280 
3164.000000	0.013422 
3163.000000	0.013417 
3162.000000	0.013247 
3161.000000	0.012988 
3160.000000	0.012748 
3159.000000	0.012591 
3158.000000	0.012507 
3157.000000	0.012448 
3156.000000	0.012388 
3155.000000	0.012351 
3154.000000	0.012383 
3153.000000	0.012480 
3152.000000	0.012579 
3151.000000	0.012622 
3150.000000	0.012605 
3149.000000	0.012572 
3148.000000	0.012549 
3147.000000	0.012516 
3146.000000	0.012433 
3145.000000	0.012281 
3144.000000	0.012087 
3143.000000	0.011908 
3142.000000	0.011795 
3141.000000	0.011755 
3140.000000	0.011737 
3139.000000	0.011688 
3138.000000	0.011609 
3137.000000	0.011571 
3136.000000	0.011643 
3135.000000	0.011815 
3134.000000	0.011984 
3133.000000	0.012038 
3132.000000	0.011954 
3131.000000	0.011807 
3130.000000	0.011696 
3129.000000	0.011659 
3128.000000	0.011665 
3127.000000	0.011671 
3126.000000	0.011667 
3125.000000	0.011669 
3124.000000	0.011689 
3123.000000	0.011719 
3122.000000	0.011735 
3121.000000	0.011718 
3120.000000	0.011664 
3119.000000	0.011598 
3118.000000	0.011555 
3117.000000	0.011554 
3116.000000	0.011586 
3115.000000	0.011639 
3114.000000	0.011707 
3113.000000	0.011778 
3112.000000	0.011817 
3111.000000	0.011782 
3110.000000	0.011660 
3109.000000	0.011484 
3108.000000	0.011314 
3107.000000	0.011199 
3106.000000	0.011153 
3105.000000	0.011148 
3104.000000	0.011143 
3103.000000	0.011139 
3102.000000	0.011188 
3101.000000	0.011324 
3100.000000	0.011499 
3099.000000	0.011620 
3098.000000	0.011636 
3097.000000	0.011581 
3096.000000	0.011511 
3095.000000	0.011456 
3094.000000	0.011408 
3093.000000	0.011358 
3092.000000	0.011309 
3091.000000	0.011270 
3090.000000	0.011255 
3089.000000	0.011271 
3088.000000	0.011299 
3087.000000	0.011305 
3086.000000	0.011286 
3085.000000	0.011288 
3084.000000	0.011350 
3083.000000	0.011434 
3082.000000	0.011446 
3081.000000	0.011342 
3080.000000	0.011181 
3079.000000	0.011066 
3078.000000	0.011046 
3077.000000	0.011094 
3076.000000	0.011163 
3075.000000	0.011223 
3074.000000	0.011260 
3073.000000	0.011257 
3072.000000	0.011199 
3071.000000	0.011089 
3070.000000	0.010957 
3069.000000	0.010849 
3068.000000	0.010804 
3067.000000	0.010822 
3066.000000	0.010859 
3065.000000	0.010857 
3064.000000	0.010802 
3063.000000	0.010727 
3062.000000	0.010671 
3061.000000	0.010645 
3060.000000	0.010638 
3059.000000	0.010640 
3058.000000	0.010647 
3057.000000	0.010649 
3056.000000	0.010630 
3055.000000	0.010597 
3054.000000	0.010584 
3053.000000	0.010624 
3052.000000	0.010723 
3051.000000	0.010845 
3050.000000	0.010926 
3049.000000	0.010913 
3048.000000	0.010813 
3047.000000	0.010705 
3046.000000	0.010674 
3045.000000	0.010740 
3044.000000	0.010842 
3043.000000	0.010910 
3042.000000	0.010930 
3041.000000	0.010942 
3040.000000	0.010985 
3039.000000	0.011063 
3038.000000	0.011155 
3037.000000	0.011238 
3036.000000	0.011300 
3035.000000	0.011337 
3034.000000	0.011369 
3033.000000	0.011429 
3032.000000	0.011537 
3031.000000	0.011670 
3030.000000	0.011778 
3029.000000	0.011839 
3028.000000	0.011895 
3027.000000	0.012023 
3026.000000	0.012255 
3025.000000	0.012543 
3024.000000	0.012807 
3023.000000	0.013025 
3022.000000	0.013257 
3021.000000	0.013589 
3020.000000	0.014056 
3019.000000	0.014632 
3018.000000	0.015264 
3017.000000	0.015902 
3016.000000	0.016504 
3015.000000	0.017038 
3014.000000	0.017493 
3013.000000	0.017877 
3012.000000	0.018203 
3011.000000	0.018463 
3010.000000	0.018627 
3009.000000	0.018669 
3008.000000	0.018586 
3007.000000	0.018400 
3006.000000	0.018142 
3005.000000	0.017844 
3004.000000	0.017553 
3003.000000	0.017318 
3002.000000	0.017146 
3001.000000	0.016996 
3000.000000	0.016832 
2999.000000	0.016679 
2998.000000	0.016598 
2997.000000	0.016607 
2996.000000	0.016660 
2995.000000	0.016725 
2994.000000	0.016830 
2993.000000	0.017012 
2992.000000	0.017262 
2991.000000	0.017552 
2990.000000	0.017915 
2989.000000	0.018430 
2988.000000	0.019122 
2987.000000	0.019922 
2986.000000	0.020740 
2985.000000	0.021566 
2984.000000	0.022468 
2983.000000	0.023490 
2982.000000	0.024608 
2981.000000	0.025787 
2980.000000	0.027074 
2979.000000	0.028582 
2978.000000	0.030392 
2977.000000	0.032462 
2976.000000	0.034693 
2975.000000	0.037061 
2974.000000	0.039678 
2973.000000	0.042686 
2972.000000	0.046120 
2971.000000	0.049898 
2970.000000	0.053937 
2969.000000	0.058239 
2968.000000	0.062844 
2967.000000	0.067725 
2966.000000	0.072749 
2965.000000	0.077752 
2964.000000	0.082622 
2963.000000	0.087311 
2962.000000	0.091783 
2961.000000	0.095975 
2960.000000	0.099795 
2959.000000	0.103137 
2958.000000	0.105890 
2957.000000	0.107949 
2956.000000	0.109237 
2955.000000	0.109735 
2954.000000	0.109493 
2953.000000	0.108617 
2952.000000	0.107242 
2951.000000	0.105513 
2950.000000	0.103605 
2949.000000	0.101757 
2948.000000	0.100228 
2947.000000	0.099195 
2946.000000	0.098712 
2945.000000	0.098784 
2944.000000	0.099480 
2943.000000	0.100946 
2942.000000	0.103299 
2941.000000	0.106525 
2940.000000	0.110489 
2939.000000	0.115029 
2938.000000	0.120027 
2937.000000	0.125412 
2936.000000	0.131139 
2935.000000	0.137179 
2934.000000	0.143510 
2933.000000	0.150096 
2932.000000	0.156851 
2931.000000	0.163627 
2930.000000	0.170244 
2929.000000	0.176567 
2928.000000	0.182522 
2927.000000	0.188025 
2926.000000	0.192883 
2925.000000	0.196789 
2924.000000	0.199423 
2923.000000	0.200580 
2922.000000	0.200233 
2921.000000	0.198538 
2920.000000	0.195748 
2919.000000	0.192078 
2918.000000	0.187676 
2917.000000	0.182701 
2916.000000	0.177397 
2915.000000	0.172029 
2914.000000	0.166772 
2913.000000	0.161681 
2912.000000	0.156752 
2911.000000	0.151986 
2910.000000	0.147403 
2909.000000	0.143030 
2908.000000	0.138874 
2907.000000	0.134915 
2906.000000	0.131121 
2905.000000	0.127478 
2904.000000	0.123987 
2903.000000	0.120639 
2902.000000	0.117400 
2901.000000	0.114227 
2900.000000	0.111076 
2899.000000	0.107920 
2898.000000	0.104774 
2897.000000	0.101701 
2896.000000	0.098761 
2895.000000	0.095946 
2894.000000	0.093193 
2893.000000	0.090465 
2892.000000	0.087776 
2891.000000	0.085147 
2890.000000	0.082587 
2889.000000	0.080132 
2888.000000	0.077882 
2887.000000	0.075948 
2886.000000	0.074387 
2885.000000	0.073189 
2884.000000	0.072342 
2883.000000	0.071881 
2882.000000	0.071893 
2881.000000	0.072478 
2880.000000	0.073683 
2879.000000	0.075476 
2878.000000	0.077757 
2877.000000	0.080400 
2876.000000	0.083244 
2875.000000	0.086056 
2874.000000	0.088547 
2873.000000	0.090486 
2872.000000	0.091823 
2871.000000	0.092680 
2870.000000	0.093239 
2869.000000	0.093651 
2868.000000	0.094046 
2867.000000	0.094585 
2866.000000	0.095474 
2865.000000	0.096929 
2864.000000	0.099103 
2863.000000	0.102028 
2862.000000	0.105616 
2861.000000	0.109706 
2860.000000	0.114109 
2859.000000	0.118604 
2858.000000	0.122940 
2857.000000	0.126851 
2856.000000	0.130057 
2855.000000	0.132209 
2854.000000	0.132916 
2853.000000	0.131902 
2852.000000	0.129163 
2851.000000	0.124956 
2850.000000	0.119629 
2849.000000	0.113501 
2848.000000	0.106874 
2847.000000	0.100062 
2846.000000	0.093357 
2845.000000	0.086952 
2844.000000	0.080901 
2843.000000	0.075168 
2842.000000	0.069723 
2841.000000	0.064594 
2840.000000	0.059840 
2839.000000	0.055513 
2838.000000	0.051655 
2837.000000	0.048303 
2836.000000	0.045456 
2835.000000	0.043037 
2834.000000	0.040918 
2833.000000	0.038990 
2832.000000	0.037216 
2831.000000	0.035598 
2830.000000	0.034140 
2829.000000	0.032834 
2828.000000	0.031662 
2827.000000	0.030585 
2826.000000	0.029554 
2825.000000	0.028538 
2824.000000	0.027538 
2823.000000	0.026576 
2822.000000	0.025674 
2821.000000	0.024854 
2820.000000	0.024139 
2819.000000	0.023521 
2818.000000	0.022959 
2817.000000	0.022414 
2816.000000	0.021880 
2815.000000	0.021365 
2814.000000	0.020858 
2813.000000	0.020334 
2812.000000	0.019803 
2811.000000	0.019299 
2810.000000	0.018850 
2809.000000	0.018458 
2808.000000	0.018123 
2807.000000	0.017856 
2806.000000	0.017655 
2805.000000	0.017496 
2804.000000	0.017355 
2803.000000	0.017219 
2802.000000	0.017062 
2801.000000	0.016844 
2800.000000	0.016555 
2799.000000	0.016259 
2798.000000	0.016050 
2797.000000	0.015973 
2796.000000	0.015985 
2795.000000	0.016004 
2794.000000	0.015985 
2793.000000	0.015930 
2792.000000	0.015864 
2791.000000	0.015796 
2790.000000	0.015715 
2789.000000	0.015608 
2788.000000	0.015479 
2787.000000	0.015343 
2786.000000	0.015216 
2785.000000	0.015108 
2784.000000	0.015020 
2783.000000	0.014935 
2782.000000	0.014824 
2781.000000	0.014675 
2780.000000	0.014504 
2779.000000	0.014346 
2778.000000	0.014203 
2777.000000	0.014031 
2776.000000	0.013783 
2775.000000	0.013464 
2774.000000	0.013133 
2773.000000	0.012860 
2772.000000	0.012669 
2771.000000	0.012526 
2770.000000	0.012379 
2769.000000	0.012198 
2768.000000	0.011996 
2767.000000	0.011806 
2766.000000	0.011659 
2765.000000	0.011570 
2764.000000	0.011535 
2763.000000	0.011513 
2762.000000	0.011439 
2761.000000	0.011268 
2760.000000	0.011030 
2759.000000	0.010809 
2758.000000	0.010673 
2757.000000	0.010625 
2756.000000	0.010621 
2755.000000	0.010610 
2754.000000	0.010553 
2753.000000	0.010426 
2752.000000	0.010241 
2751.000000	0.010052 
2750.000000	0.009914 
2749.000000	0.009834 
2748.000000	0.009773 
2747.000000	0.009696 
2746.000000	0.009610 
2745.000000	0.009548 
2744.000000	0.009539 
2743.000000	0.009575 
2742.000000	0.009619 
2741.000000	0.009628 
2740.000000	0.009599 
2739.000000	0.009569 
2738.000000	0.009573 
2737.000000	0.009608 
2736.000000	0.009649 
2735.000000	0.009690 
2734.000000	0.009740 
2733.000000	0.009789 
2732.000000	0.009798 
2731.000000	0.009746 
2730.000000	0.009654 
2729.000000	0.009579 
2728.000000	0.009570 
2727.000000	0.009626 
2726.000000	0.009694 
2725.000000	0.009707 
2724.000000	0.009649 
2723.000000	0.009573 
2722.000000	0.009534 
2721.000000	0.009531 
2720.000000	0.009527 
2719.000000	0.009507 
2718.000000	0.009481 
2717.000000	0.009441 
2716.000000	0.009354 
2715.000000	0.009215 
2714.000000	0.009070 
2713.000000	0.008959 
2712.000000	0.008869 
2711.000000	0.008760 
2710.000000	0.008620 
2709.000000	0.008473 
2708.000000	0.008349 
2707.000000	0.008265 
2706.000000	0.008225 
2705.000000	0.008219 
2704.000000	0.008226 
2703.000000	0.008228 
2702.000000	0.008225 
2701.000000	0.008219 
2700.000000	0.008195 
2699.000000	0.008143 
2698.000000	0.008082 
2697.000000	0.008055 
2696.000000	0.008085 
2695.000000	0.008150 
2694.000000	0.008205 
2693.000000	0.008217 
2692.000000	0.008169 
2691.000000	0.008061 
2690.000000	0.007906 
2689.000000	0.007743 
2688.000000	0.007628 
2687.000000	0.007605 
2686.000000	0.007668 
2685.000000	0.007763 
2684.000000	0.007838 
2683.000000	0.007880 
2682.000000	0.007904 
2681.000000	0.007915 
2680.000000	0.007898 
2679.000000	0.007859 
2678.000000	0.007825 
2677.000000	0.007813 
2676.000000	0.007805 
2675.000000	0.007777 
2674.000000	0.007738 
2673.000000	0.007719 
2672.000000	0.007739 
2671.000000	0.007784 
2670.000000	0.007823 
2669.000000	0.007837 
2668.000000	0.007822 
2667.000000	0.007785 
2666.000000	0.007733 
2665.000000	0.007671 
2664.000000	0.007606 
2663.000000	0.007557 
2662.000000	0.007522 
2661.000000	0.007463 
2660.000000	0.007343 
2659.000000	0.007201 
2658.000000	0.007135 
2657.000000	0.007210 
2656.000000	0.007366 
2655.000000	0.007465 
2654.000000	0.007407 
2653.000000	0.007206 
2652.000000	0.006965 
2651.000000	0.006796 
2650.000000	0.006750 
2649.000000	0.006783 
2648.000000	0.006810 
2647.000000	0.006778 
2646.000000	0.006705 
2645.000000	0.006634 
2644.000000	0.006578 
2643.000000	0.006531 
2642.000000	0.006506 
2641.000000	0.006517 
2640.000000	0.006540 
2639.000000	0.006522 
2638.000000	0.006442 
2637.000000	0.006343 
2636.000000	0.006287 
2635.000000	0.006301 
2634.000000	0.006362 
2633.000000	0.006428 
2632.000000	0.006465 
2631.000000	0.006476 
2630.000000	0.006476 
2629.000000	0.006471 
2628.000000	0.006437 
2627.000000	0.006365 
2626.000000	0.006282 
2625.000000	0.006223 
2624.000000	0.006188 
2623.000000	0.006147 
2622.000000	0.006087 
2621.000000	0.006027 
2620.000000	0.005988 
2619.000000	0.005961 
2618.000000	0.005920 
2617.000000	0.005848 
2616.000000	0.005748 
2615.000000	0.005653 
2614.000000	0.005611 
2613.000000	0.005636 
2612.000000	0.005673 
2611.000000	0.005646 
2610.000000	0.005546 
2609.000000	0.005456 
2608.000000	0.005457 
2607.000000	0.005549 
2606.000000	0.005659 
2605.000000	0.005705 
2604.000000	0.005643 
2603.000000	0.005486 
2602.000000	0.005297 
2601.000000	0.005163 
2600.000000	0.005137 
2599.000000	0.005189 
2598.000000	0.005241 
2597.000000	0.005230 
2596.000000	0.005155 
2595.000000	0.005053 
2594.000000	0.004961 
2593.000000	0.004891 
2592.000000	0.004843 
2591.000000	0.004834 
2590.000000	0.004894 
2589.000000	0.005029 
2588.000000	0.005192 
2587.000000	0.005298 
2586.000000	0.005298 
2585.000000	0.005217 
2584.000000	0.005121 
2583.000000	0.005046 
2582.000000	0.004974 
2581.000000	0.004877 
2580.000000	0.004765 
2579.000000	0.004677 
2578.000000	0.004640 
2577.000000	0.004646 
2576.000000	0.004667 
2575.000000	0.004674 
2574.000000	0.004656 
2573.000000	0.004625 
2572.000000	0.004616 
2571.000000	0.004653 
2570.000000	0.004727 
2569.000000	0.004807 
2568.000000	0.004876 
2567.000000	0.004922 
2566.000000	0.004901 
2565.000000	0.004758 
2564.000000	0.004521 
2563.000000	0.004327 
2562.000000	0.004299 
2561.000000	0.004419 
2560.000000	0.004574 
2559.000000	0.004694 
2558.000000	0.004781 
2557.000000	0.004816 
2556.000000	0.004735 
2555.000000	0.004524 
2554.000000	0.004266 
2553.000000	0.004054 
2552.000000	0.003925 
2551.000000	0.003878 
2550.000000	0.003902 
2549.000000	0.003945 
2548.000000	0.003929 
2547.000000	0.003854 
2546.000000	0.003831 
2545.000000	0.003939 
2544.000000	0.004102 
2543.000000	0.004180 
2542.000000	0.004141 
2541.000000	0.004064 
2540.000000	0.004007 
2539.000000	0.003954 
2538.000000	0.003887 
2537.000000	0.003818 
2536.000000	0.003739 
2535.000000	0.003627 
2534.000000	0.003503 
2533.000000	0.003428 
2532.000000	0.003424 
2531.000000	0.003463 
2530.000000	0.003549 
2529.000000	0.003732 
2528.000000	0.004003 
2527.000000	0.004227 
2526.000000	0.004263 
2525.000000	0.004101 
2524.000000	0.003850 
2523.000000	0.003632 
2522.000000	0.003520 
2521.000000	0.003542 
2520.000000	0.003664 
2519.000000	0.003790 
2518.000000	0.003836 
2517.000000	0.003825 
2516.000000	0.003853 
2515.000000	0.003958 
2514.000000	0.004072 
2513.000000	0.004098 
2512.000000	0.004004 
2511.000000	0.003833 
2510.000000	0.003655 
2509.000000	0.003544 
2508.000000	0.003544 
2507.000000	0.003604 
2506.000000	0.003589 
2505.000000	0.003408 
2504.000000	0.003135 
2503.000000	0.002960 
2502.000000	0.002999 
2501.000000	0.003197 
2500.000000	0.003422 
2499.000000	0.003588 
2498.000000	0.003683 
2497.000000	0.003722 
2496.000000	0.003739 
2495.000000	0.003780 
2494.000000	0.003849 
2493.000000	0.003868 
2492.000000	0.003758 
2491.000000	0.003544 
2490.000000	0.003361 
2489.000000	0.003324 
2488.000000	0.003439 
2487.000000	0.003609 
2486.000000	0.003707 
2485.000000	0.003654 
2484.000000	0.003473 
2483.000000	0.003281 
2482.000000	0.003196 
2481.000000	0.003236 
2480.000000	0.003322 
2479.000000	0.003378 
2478.000000	0.003382 
2477.000000	0.003333 
2476.000000	0.003236 
2475.000000	0.003116 
2474.000000	0.003014 
2473.000000	0.002938 
2472.000000	0.002868 
2471.000000	0.002813 
2470.000000	0.002811 
2469.000000	0.002865 
2468.000000	0.002924 
2467.000000	0.002950 
2466.000000	0.002958 
2465.000000	0.002970 
2464.000000	0.002981 
2463.000000	0.002981 
2462.000000	0.002980 
2461.000000	0.002974 
2460.000000	0.002941 
2459.000000	0.002906 
2458.000000	0.002936 
2457.000000	0.003043 
2456.000000	0.003132 
2455.000000	0.003119 
2454.000000	0.003043 
2453.000000	0.003013 
2452.000000	0.003063 
2451.000000	0.003145 
2450.000000	0.003215 
2449.000000	0.003266 
2448.000000	0.003266 
2447.000000	0.003157 
2446.000000	0.002934 
2445.000000	0.002698 
2444.000000	0.002585 
2443.000000	0.002665 
2442.000000	0.002884 
2441.000000	0.003093 
2440.000000	0.003154 
2439.000000	0.003051 
2438.000000	0.002898 
2437.000000	0.002825 
2436.000000	0.002864 
2435.000000	0.002952 
2434.000000	0.003025 
2433.000000	0.003069 
2432.000000	0.003108 
2431.000000	0.003173 
2430.000000	0.003272 
2429.000000	0.003345 
2428.000000	0.003295 
2427.000000	0.003083 
2426.000000	0.002798 
2425.000000	0.002582 
2424.000000	0.002516 
2423.000000	0.002587 
2422.000000	0.002740 
2421.000000	0.002902 
2420.000000	0.002992 
2419.000000	0.002981 
2418.000000	0.002935 
2417.000000	0.002943 
2416.000000	0.003002 
2415.000000	0.003033 
2414.000000	0.003004 
2413.000000	0.002963 
2412.000000	0.002945 
2411.000000	0.002914 
2410.000000	0.002831 
2409.000000	0.002738 
2408.000000	0.002713 
2407.000000	0.002758 
2406.000000	0.002793 
2405.000000	0.002762 
2404.000000	0.002703 
2403.000000	0.002705 
2402.000000	0.002801 
2401.000000	0.002938 
2400.000000	0.003036 
2399.000000	0.003066 
2398.000000	0.003051 
2397.000000	0.003021 
2396.000000	0.002989 
2395.000000	0.002963 
2394.000000	0.002939 
2393.000000	0.002885 
2392.000000	0.002774 
2391.000000	0.002633 
2390.000000	0.002545 
2389.000000	0.002548 
2388.000000	0.002589 
2387.000000	0.002598 
2386.000000	0.002578 
2385.000000	0.002596 
2384.000000	0.002705 
2383.000000	0.002913 
2382.000000	0.003192 
2381.000000	0.003475 
2380.000000	0.003652 
2379.000000	0.003633 
2378.000000	0.003428 
2377.000000	0.003115 
2376.000000	0.002733 
2375.000000	0.002275 
2374.000000	0.001832 
2373.000000	0.001627 
2372.000000	0.001810 
2371.000000	0.002297 
2370.000000	0.002874 
2369.000000	0.003395 
2368.000000	0.003805 
2367.000000	0.004084 
2366.000000	0.004257 
2365.000000	0.004333 
2364.000000	0.004190 
2363.000000	0.003681 
2362.000000	0.002913 
2361.000000	0.002301 
2360.000000	0.002181 
2359.000000	0.002506 
2358.000000	0.003037 
2357.000000	0.003537 
2356.000000	0.003823 
2355.000000	0.003872 
2354.000000	0.003836 
2353.000000	0.003821 
2352.000000	0.003726 
2351.000000	0.003506 
2350.000000	0.003319 
2349.000000	0.003337 
2348.000000	0.003549 
2347.000000	0.003690 
2346.000000	0.003510 
2345.000000	0.003102 
2344.000000	0.002811 
2343.000000	0.002799 
2342.000000	0.002970 
2341.000000	0.003230 
2340.000000	0.003484 
2339.000000	0.003634 
2338.000000	0.003666 
2337.000000	0.003651 
2336.000000	0.003611 
2335.000000	0.003503 
2334.000000	0.003337 
2333.000000	0.003206 
2332.000000	0.003147 
2331.000000	0.003107 
2330.000000	0.003049 
2329.000000	0.002992 
2328.000000	0.002993 
2327.000000	0.003007 
2326.000000	0.002981 
2325.000000	0.002890 
2324.000000	0.002791 
2323.000000	0.002746 
2322.000000	0.002694 
2321.000000	0.002513 
2320.000000	0.002160 
2319.000000	0.001802 
2318.000000	0.001650 
2317.000000	0.001788 
2316.000000	0.002123 
2315.000000	0.002498 
2314.000000	0.002790 
2313.000000	0.002924 
2312.000000	0.002891 
2311.000000	0.002748 
2310.000000	0.002584 
2309.000000	0.002437 
2308.000000	0.002315 
2307.000000	0.002235 
2306.000000	0.002228 
2305.000000	0.002268 
2304.000000	0.002305 
2303.000000	0.002336 
2302.000000	0.002407 
2301.000000	0.002506 
2300.000000	0.002550 
2299.000000	0.002487 
2298.000000	0.002367 
2297.000000	0.002259 
2296.000000	0.002191 
2295.000000	0.002188 
2294.000000	0.002302 
2293.000000	0.002512 
2292.000000	0.002675 
2291.000000	0.002656 
2290.000000	0.002484 
2289.000000	0.002298 
2288.000000	0.002185 
2287.000000	0.002132 
2286.000000	0.002114 
2285.000000	0.002141 
2284.000000	0.002216 
2283.000000	0.002319 
2282.000000	0.002443 
2281.000000	0.002571 
2280.000000	0.002641 
2279.000000	0.002601 
2278.000000	0.002488 
2277.000000	0.002391 
2276.000000	0.002334 
2275.000000	0.002282 
2274.000000	0.002243 
2273.000000	0.002270 
2272.000000	0.002359 
2271.000000	0.002432 
2270.000000	0.002452 
2269.000000	0.002468 
2268.000000	0.002527 
2267.000000	0.002598 
2266.000000	0.002630 
2265.000000	0.002598 
2264.000000	0.002474 
2263.000000	0.002230 
2262.000000	0.001920 
2261.000000	0.001703 
2260.000000	0.001718 
2259.000000	0.001954 
2258.000000	0.002257 
2257.000000	0.002455 
2256.000000	0.002469 
2255.000000	0.002358 
2254.000000	0.002247 
2253.000000	0.002220 
2252.000000	0.002258 
2251.000000	0.002283 
2250.000000	0.002233 
2249.000000	0.002099 
2248.000000	0.001940 
2247.000000	0.001890 
2246.000000	0.002059 
2245.000000	0.002390 
2244.000000	0.002665 
2243.000000	0.002726 
2242.000000	0.002632 
2241.000000	0.002534 
2240.000000	0.002476 
2239.000000	0.002419 
2238.000000	0.002378 
2237.000000	0.002380 
2236.000000	0.002320 
2235.000000	0.002040 
2234.000000	0.001583 
2233.000000	0.001223 
2232.000000	0.001182 
2231.000000	0.001418 
2230.000000	0.001703 
2229.000000	0.001848 
2228.000000	0.001791 
2227.000000	0.001585 
2226.000000	0.001361 
2225.000000	0.001280 
2224.000000	0.001451 
2223.000000	0.001898 
2222.000000	0.002532 
2221.000000	0.003138 
2220.000000	0.003460 
2219.000000	0.003383 
2218.000000	0.003039 
2217.000000	0.002662 
2216.000000	0.002401 
2215.000000	0.002303 
2214.000000	0.002402 
2213.000000	0.002657 
2212.000000	0.002874 
2211.000000	0.002868 
2210.000000	0.002704 
2209.000000	0.002641 
2208.000000	0.002807 
2207.000000	0.003068 
2206.000000	0.003223 
2205.000000	0.003213 
2204.000000	0.003089 
2203.000000	0.002892 
2202.000000	0.002650 
2201.000000	0.002399 
2200.000000	0.002150 
2199.000000	0.001909 
2198.000000	0.001726 
2197.000000	0.001689 
2196.000000	0.001818 
2195.000000	0.002040 
2194.000000	0.002268 
2193.000000	0.002424 
2192.000000	0.002429 
2191.000000	0.002262 
2190.000000	0.002043 
2189.000000	0.001936 
2188.000000	0.001966 
2187.000000	0.001997 
2186.000000	0.001893 
2185.000000	0.001648 
2184.000000	0.001347 
2183.000000	0.001093 
2182.000000	0.000966 
2181.000000	0.000968 
2180.000000	0.001045 
2179.000000	0.001203 
2178.000000	0.001554 
2177.000000	0.002119 
2176.000000	0.002683 
2175.000000	0.002983 
2174.000000	0.002984 
2173.000000	0.002809 
2172.000000	0.002480 
2171.000000	0.001918 
2170.000000	0.001218 
2169.000000	0.000697 
2168.000000	0.000592 
2167.000000	0.000841 
2166.000000	0.001217 
2165.000000	0.001561 
2164.000000	0.001844 
2163.000000	0.002099 
2162.000000	0.002359 
2161.000000	0.002592 
2160.000000	0.002691 
2159.000000	0.002596 
2158.000000	0.002391 
2157.000000	0.002172 
2156.000000	0.001917 
2155.000000	0.001623 
2154.000000	0.001436 
2153.000000	0.001502 
2152.000000	0.001743 
2151.000000	0.001939 
2150.000000	0.001970 
2149.000000	0.001873 
2148.000000	0.001738 
2147.000000	0.001668 
2146.000000	0.001778 
2145.000000	0.002065 
2144.000000	0.002315 
2143.000000	0.002303 
2142.000000	0.002075 
2141.000000	0.001890 
2140.000000	0.001907 
2139.000000	0.002045 
2138.000000	0.002144 
2137.000000	0.002121 
2136.000000	0.001982 
2135.000000	0.001803 
2134.000000	0.001707 
2133.000000	0.001755 
2132.000000	0.001861 
2131.000000	0.001900 
2130.000000	0.001863 
2129.000000	0.001829 
2128.000000	0.001824 
2127.000000	0.001821 
2126.000000	0.001832 
2125.000000	0.001895 
2124.000000	0.001978 
2123.000000	0.002026 
2122.000000	0.002090 
2121.000000	0.002268 
2120.000000	0.002531 
2119.000000	0.002712 
2118.000000	0.002704 
2117.000000	0.002558 
2116.000000	0.002381 
2115.000000	0.002234 
2114.000000	0.002163 
2113.000000	0.002201 
2112.000000	0.002282 
2111.000000	0.002260 
2110.000000	0.002088 
2109.000000	0.001908 
2108.000000	0.001884 
2107.000000	0.002022 
2106.000000	0.002181 
2105.000000	0.002222 
2104.000000	0.002077 
2103.000000	0.001764 
2102.000000	0.001394 
2101.000000	0.001119 
2100.000000	0.001024 
2099.000000	0.001078 
2098.000000	0.001208 
2097.000000	0.001388 
2096.000000	0.001622 
2095.000000	0.001905 
2094.000000	0.002202 
2093.000000	0.002433 
2092.000000	0.002496 
2091.000000	0.002368 
2090.000000	0.002170 
2089.000000	0.002068 
2088.000000	0.002081 
2087.000000	0.002100 
2086.000000	0.002067 
2085.000000	0.002048 
2084.000000	0.002108 
2083.000000	0.002208 
2082.000000	0.002266 
2081.000000	0.002246 
2080.000000	0.002154 
2079.000000	0.002031 
2078.000000	0.001951 
2077.000000	0.001957 
2076.000000	0.001974 
2075.000000	0.001862 
2074.000000	0.001604 
2073.000000	0.001354 
2072.000000	0.001271 
2071.000000	0.001362 
2070.000000	0.001514 
2069.000000	0.001607 
2068.000000	0.001584 
2067.000000	0.001494 
2066.000000	0.001478 
2065.000000	0.001628 
2064.000000	0.001843 
2063.000000	0.001938 
2062.000000	0.001883 
2061.000000	0.001814 
2060.000000	0.001829 
2059.000000	0.001879 
2058.000000	0.001908 
2057.000000	0.001947 
2056.000000	0.002041 
2055.000000	0.002153 
2054.000000	0.002214 
2053.000000	0.002192 
2052.000000	0.002098 
2051.000000	0.001982 
2050.000000	0.001934 
2049.000000	0.001971 
2048.000000	0.001943 
2047.000000	0.001705 
2046.000000	0.001383 
2045.000000	0.001292 
2044.000000	0.001535 
2043.000000	0.001880 
2042.000000	0.002066 
2041.000000	0.002056 
2040.000000	0.001930 
2039.000000	0.001731 
2038.000000	0.001528 
2037.000000	0.001446 
2036.000000	0.001485 
2035.000000	0.001458 
2034.000000	0.001250 
2033.000000	0.001033 
2032.000000	0.001063 
2031.000000	0.001379 
2030.000000	0.001797 
2029.000000	0.002113 
2028.000000	0.002241 
2027.000000	0.002256 
2026.000000	0.002338 
2025.000000	0.002584 
2024.000000	0.002877 
2023.000000	0.003035 
2022.000000	0.003072 
2021.000000	0.003137 
2020.000000	0.003215 
2019.000000	0.003083 
2018.000000	0.002642 
2017.000000	0.002107 
2016.000000	0.001771 
2015.000000	0.001719 
2014.000000	0.001873 
2013.000000	0.002072 
2012.000000	0.002083 
2011.000000	0.001753 
2010.000000	0.001234 
2009.000000	0.000874 
2008.000000	0.000811 
2007.000000	0.000881 
2006.000000	0.000980 
2005.000000	0.001211 
2004.000000	0.001561 
2003.000000	0.001756 
2002.000000	0.001616 
2001.000000	0.001359 
2000.000000	0.001360 
1999.000000	0.001700 
1998.000000	0.002128 
1997.000000	0.002372 
1996.000000	0.002346 
1995.000000	0.002096 
1994.000000	0.001730 
1993.000000	0.001435 
1992.000000	0.001390 
1991.000000	0.001605 
1990.000000	0.001947 
1989.000000	0.002262 
1988.000000	0.002413 
1987.000000	0.002286 
1986.000000	0.001879 
1985.000000	0.001359 
1984.000000	0.000979 
1983.000000	0.000916 
1982.000000	0.001150 
1981.000000	0.001462 
1980.000000	0.001584 
1979.000000	0.001428 
1978.000000	0.001137 
1977.000000	0.000884 
1976.000000	0.000704 
1975.000000	0.000631 
1974.000000	0.000803 
1973.000000	0.001219 
1972.000000	0.001558 
1971.000000	0.001527 
1970.000000	0.001275 
1969.000000	0.001221 
1968.000000	0.001510 
1967.000000	0.001875 
1966.000000	0.002109 
1965.000000	0.002295 
1964.000000	0.002487 
1963.000000	0.002553 
1962.000000	0.002443 
1961.000000	0.002321 
1960.000000	0.002274 
1959.000000	0.002147 
1958.000000	0.001835 
1957.000000	0.001507 
1956.000000	0.001380 
1955.000000	0.001438 
1954.000000	0.001541 
1953.000000	0.001657 
1952.000000	0.001789 
1951.000000	0.001829 
1950.000000	0.001664 
1949.000000	0.001389 
1948.000000	0.001224 
1947.000000	0.001262 
1946.000000	0.001408 
1945.000000	0.001549 
1944.000000	0.001651 
1943.000000	0.001714 
1942.000000	0.001718 
1941.000000	0.001662 
1940.000000	0.001583 
1939.000000	0.001529 
1938.000000	0.001541 
1937.000000	0.001624 
1936.000000	0.001712 
1935.000000	0.001713 
1934.000000	0.001618 
1933.000000	0.001517 
1932.000000	0.001474 
1931.000000	0.001474 
1930.000000	0.001505 
1929.000000	0.001600 
1928.000000	0.001754 
1927.000000	0.001881 
1926.000000	0.001921 
1925.000000	0.001913 
1924.000000	0.001931 
1923.000000	0.001971 
1922.000000	0.001961 
1921.000000	0.001870 
1920.000000	0.001730 
1919.000000	0.001619 
1918.000000	0.001648 
1917.000000	0.001842 
1916.000000	0.002050 
1915.000000	0.002089 
1914.000000	0.001918 
1913.000000	0.001685 
1912.000000	0.001590 
1911.000000	0.001712 
1910.000000	0.001964 
1909.000000	0.002174 
1908.000000	0.002214 
1907.000000	0.002089 
1906.000000	0.001922 
1905.000000	0.001845 
1904.000000	0.001889 
1903.000000	0.001972 
1902.000000	0.002012 
1901.000000	0.001993 
1900.000000	0.001930 
1899.000000	0.001842 
1898.000000	0.001767 
1897.000000	0.001747 
1896.000000	0.001784 
1895.000000	0.001836 
1894.000000	0.001892 
1893.000000	0.001980 
1892.000000	0.002096 
1891.000000	0.002186 
1890.000000	0.002192 
1889.000000	0.002114 
1888.000000	0.001989 
1887.000000	0.001884 
1886.000000	0.001865 
1885.000000	0.001925 
1884.000000	0.001952 
1883.000000	0.001861 
1882.000000	0.001743 
1881.000000	0.001752 
1880.000000	0.001885 
1879.000000	0.001991 
1878.000000	0.002013 
1877.000000	0.002056 
1876.000000	0.002181 
1875.000000	0.002287 
1874.000000	0.002281 
1873.000000	0.002204 
1872.000000	0.002128 
1871.000000	0.002011 
1870.000000	0.001802 
1869.000000	0.001631 
1868.000000	0.001672 
1867.000000	0.001826 
1866.000000	0.001918 
1865.000000	0.001916 
1864.000000	0.001865 
1863.000000	0.001796 
1862.000000	0.001732 
1861.000000	0.001713 
1860.000000	0.001734 
1859.000000	0.001722 
1858.000000	0.001640 
1857.000000	0.001549 
1856.000000	0.001518 
1855.000000	0.001536 
1854.000000	0.001581 
1853.000000	0.001700 
1852.000000	0.001933 
1851.000000	0.002196 
1850.000000	0.002356 
1849.000000	0.002368 
1848.000000	0.002304 
1847.000000	0.002229 
1846.000000	0.002137 
1845.000000	0.002035 
1844.000000	0.001978 
1843.000000	0.001981 
1842.000000	0.002015 
1841.000000	0.002057 
1840.000000	0.002078 
1839.000000	0.002038 
1838.000000	0.001937 
1837.000000	0.001843 
1836.000000	0.001831 
1835.000000	0.001897 
1834.000000	0.001971 
1833.000000	0.001996 
1832.000000	0.001961 
1831.000000	0.001902 
1830.000000	0.001888 
1829.000000	0.001934 
1828.000000	0.001979 
1827.000000	0.001995 
1826.000000	0.002017 
1825.000000	0.002086 
1824.000000	0.002158 
1823.000000	0.002142 
1822.000000	0.002026 
1821.000000	0.001876 
1820.000000	0.001765 
1819.000000	0.001733 
1818.000000	0.001814 
1817.000000	0.002009 
1816.000000	0.002228 
1815.000000	0.002346 
1814.000000	0.002334 
1813.000000	0.002274 
1812.000000	0.002244 
1811.000000	0.002230 
1810.000000	0.002185 
1809.000000	0.002129 
1808.000000	0.002091 
1807.000000	0.002069 
1806.000000	0.002084 
1805.000000	0.002196 
1804.000000	0.002408 
1803.000000	0.002621 
1802.000000	0.002751 
1801.000000	0.002826 
1800.000000	0.002882 
1799.000000	0.002858 
1798.000000	0.002745 
1797.000000	0.002654 
1796.000000	0.002676 
1795.000000	0.002752 
1794.000000	0.002755 
1793.000000	0.002690 
1792.000000	0.002700 
1791.000000	0.002799 
1790.000000	0.002886 
1789.000000	0.002941 
1788.000000	0.002978 
1787.000000	0.002992 
1786.000000	0.003016 
1785.000000	0.003127 
1784.000000	0.003326 
1783.000000	0.003487 
1782.000000	0.003499 
1781.000000	0.003423 
1780.000000	0.003417 
1779.000000	0.003517 
1778.000000	0.003651 
1777.000000	0.003790 
1776.000000	0.003923 
1775.000000	0.003979 
1774.000000	0.003876 
1773.000000	0.003708 
1772.000000	0.003724 
1771.000000	0.003905 
1770.000000	0.004089 
1769.000000	0.004296 
1768.000000	0.004575 
1767.000000	0.004870 
1766.000000	0.005128 
1765.000000	0.005398 
1764.000000	0.005725 
1763.000000	0.006054 
1762.000000	0.006301 
1761.000000	0.006535 
1760.000000	0.006891 
1759.000000	0.007394 
1758.000000	0.008032 
1757.000000	0.008864 
1756.000000	0.009849 
1755.000000	0.010832 
1754.000000	0.011828 
1753.000000	0.013131 
1752.000000	0.015158 
1751.000000	0.018134 
1750.000000	0.022118 
1749.000000	0.027324 
1748.000000	0.033555 
1747.000000	0.039999 
1746.000000	0.046396 
1745.000000	0.053225 
1744.000000	0.060364 
1743.000000	0.066512 
1742.000000	0.070542 
1741.000000	0.072257 
1740.000000	0.071598 
1739.000000	0.068927 
1738.000000	0.065517 
1737.000000	0.062082 
1736.000000	0.057745 
1735.000000	0.050636 
1734.000000	0.041444 
1733.000000	0.034512 
1732.000000	0.030506 
1731.000000	0.027538 
1730.000000	0.024805 
1729.000000	0.022390 
1728.000000	0.020407 
1727.000000	0.018784 
1726.000000	0.017408 
1725.000000	0.016183 
1724.000000	0.015057 
1723.000000	0.014098 
1722.000000	0.013410 
1721.000000	0.012939 
1720.000000	0.012457 
1719.000000	0.011690 
1718.000000	0.010623 
1717.000000	0.009704 
1716.000000	0.009144 
1715.000000	0.008771 
1714.000000	0.008525 
1713.000000	0.008372 
1712.000000	0.008224 
1711.000000	0.008030 
1710.000000	0.007816 
1709.000000	0.007630 
1708.000000	0.007452 
1707.000000	0.007224 
1706.000000	0.006984 
1705.000000	0.006857 
1704.000000	0.006868 
1703.000000	0.006938 
1702.000000	0.006974 
1701.000000	0.006888 
1700.000000	0.006639 
1699.000000	0.006371 
1698.000000	0.006267 
1697.000000	0.006311 
1696.000000	0.006398 
1695.000000	0.006401 
1694.000000	0.006400 
1693.000000	0.006467 
1692.000000	0.006534 
1691.000000	0.006543 
1690.000000	0.006503 
1689.000000	0.006469 
1688.000000	0.006486 
1687.000000	0.006558 
1686.000000	0.006658 
1685.000000	0.006765 
1684.000000	0.006840 
1683.000000	0.006790 
1682.000000	0.006807 
1681.000000	0.006966 
1680.000000	0.007128 
1679.000000	0.007204 
1678.000000	0.007249 
1677.000000	0.007332 
1676.000000	0.007460 
1675.000000	0.007588 
1674.000000	0.007700 
1673.000000	0.007824 
1672.000000	0.007942 
1671.000000	0.008081 
1670.000000	0.008409 
1669.000000	0.008926 
1668.000000	0.009361 
1667.000000	0.009636 
1666.000000	0.009840 
1665.000000	0.010043 
1664.000000	0.010304 
1663.000000	0.010708 
1662.000000	0.011261 
1661.000000	0.011835 
1660.000000	0.012340 
1659.000000	0.012768 
1658.000000	0.013157 
1657.000000	0.013540 
1656.000000	0.013863 
1655.000000	0.014021 
1654.000000	0.014167 
1653.000000	0.014720 
1652.000000	0.015066 
1651.000000	0.015218 
1650.000000	0.015385 
1649.000000	0.015589 
1648.000000	0.015855 
1647.000000	0.016257 
1646.000000	0.016659 
1645.000000	0.016896 
1644.000000	0.017072 
1643.000000	0.017246 
1642.000000	0.017432 
1641.000000	0.017645 
1640.000000	0.017848 
1639.000000	0.017966 
1638.000000	0.017961 
1637.000000	0.017929 
1636.000000	0.018055 
1635.000000	0.018188 
1634.000000	0.018162 
1633.000000	0.018125 
1632.000000	0.018091 
1631.000000	0.017988 
1630.000000	0.017791 
1629.000000	0.017532 
1628.000000	0.017240 
1627.000000	0.016912 
1626.000000	0.016545 
1625.000000	0.016133 
1624.000000	0.015678 
1623.000000	0.015244 
1622.000000	0.014897 
1621.000000	0.014620 
1620.000000	0.014341 
1619.000000	0.013965 
1618.000000	0.013444 
1617.000000	0.012912 
1616.000000	0.012555 
1615.000000	0.012336 
1614.000000	0.012172 
1613.000000	0.011998 
1612.000000	0.011764 
1611.000000	0.011476 
1610.000000	0.011199 
1609.000000	0.010985 
1608.000000	0.010824 
1607.000000	0.010704 
1606.000000	0.010625 
1605.000000	0.010561 
1604.000000	0.010469 
1603.000000	0.010351 
1602.000000	0.010264 
1601.000000	0.010223 
1600.000000	0.010176 
1599.000000	0.010093 
1598.000000	0.010017 
1597.000000	0.010015 
1596.000000	0.010111 
1595.000000	0.010290 
1594.000000	0.010524 
1593.000000	0.010780 
1592.000000	0.011037 
1591.000000	0.011307 
1590.000000	0.011617 
1589.000000	0.011950 
1588.000000	0.012257 
1587.000000	0.012527 
1586.000000	0.012790 
1585.000000	0.013062 
1584.000000	0.013327 
1583.000000	0.013587 
1582.000000	0.013878 
1581.000000	0.014214 
1580.000000	0.014551 
1579.000000	0.014830 
1578.000000	0.015044 
1577.000000	0.015281 
1576.000000	0.015610 
1575.000000	0.015882 
1574.000000	0.016058 
1573.000000	0.016218 
1572.000000	0.016351 
1571.000000	0.016429 
1570.000000	0.016524 
1569.000000	0.016690 
1568.000000	0.016813 
1567.000000	0.016827 
1566.000000	0.016754 
1565.000000	0.016637 
1564.000000	0.016511 
1563.000000	0.016412 
1562.000000	0.016387 
1561.000000	0.016428 
1560.000000	0.016264 
1559.000000	0.015327 
1558.000000	0.014250 
1557.000000	0.013660 
1556.000000	0.013405 
1555.000000	0.013182 
1554.000000	0.012933 
1553.000000	0.012761 
1552.000000	0.012664 
1551.000000	0.012492 
1550.000000	0.012158 
1549.000000	0.011745 
1548.000000	0.011366 
1547.000000	0.011016 
1546.000000	0.010645 
1545.000000	0.010243 
1544.000000	0.009835 
1543.000000	0.009386 
1542.000000	0.008923 
1541.000000	0.008823 
1540.000000	0.009323 
1539.000000	0.009489 
1538.000000	0.009225 
1537.000000	0.009033 
1536.000000	0.008959 
1535.000000	0.008879 
1534.000000	0.008772 
1533.000000	0.008756 
1532.000000	0.008783 
1531.000000	0.008754 
1530.000000	0.008669 
1529.000000	0.008556 
1528.000000	0.008407 
1527.000000	0.008213 
1526.000000	0.008048 
1525.000000	0.008008 
1524.000000	0.008031 
1523.000000	0.007968 
1522.000000	0.007912 
1521.000000	0.008136 
1520.000000	0.008442 
1519.000000	0.008607 
1518.000000	0.008663 
1517.000000	0.008717 
1516.000000	0.008779 
1515.000000	0.008781 
1514.000000	0.008781 
1513.000000	0.008843 
1512.000000	0.008946 
1511.000000	0.009051 
1510.000000	0.009209 
1509.000000	0.009518 
1508.000000	0.009991 
1507.000000	0.010458 
1506.000000	0.010470 
1505.000000	0.010282 
1504.000000	0.010337 
1503.000000	0.010523 
1502.000000	0.010728 
1501.000000	0.010924 
1500.000000	0.011058 
1499.000000	0.011079 
1498.000000	0.011141 
1497.000000	0.011534 
1496.000000	0.012116 
1495.000000	0.012466 
1494.000000	0.012570 
1493.000000	0.012595 
1492.000000	0.012585 
1491.000000	0.012619 
1490.000000	0.013024 
1489.000000	0.013886 
1488.000000	0.014664 
1487.000000	0.015113 
1486.000000	0.015506 
1485.000000	0.016061 
1484.000000	0.016756 
1483.000000	0.017573 
1482.000000	0.018645 
1481.000000	0.020014 
1480.000000	0.021443 
1479.000000	0.022805 
1478.000000	0.024315 
1477.000000	0.026177 
1476.000000	0.028201 
1475.000000	0.030352 
1474.000000	0.033863 
1473.000000	0.040484 
1472.000000	0.048787 
1471.000000	0.055770 
1470.000000	0.061443 
1469.000000	0.066660 
1468.000000	0.071466 
1467.000000	0.075616 
1466.000000	0.079126 
1465.000000	0.081957 
1464.000000	0.083709 
1463.000000	0.084458 
1462.000000	0.084816 
1461.000000	0.085135 
1460.000000	0.085421 
1459.000000	0.085696 
1458.000000	0.086103 
1457.000000	0.085977 
1456.000000	0.084343 
1455.000000	0.081980 
1454.000000	0.079529 
1453.000000	0.076899 
1452.000000	0.074093 
1451.000000	0.071426 
1450.000000	0.069053 
1449.000000	0.066687 
1448.000000	0.064063 
1447.000000	0.061370 
1446.000000	0.058809 
1445.000000	0.056273 
1444.000000	0.053645 
1443.000000	0.051013 
1442.000000	0.048531 
1441.000000	0.046266 
1440.000000	0.044233 
1439.000000	0.042380 
1438.000000	0.040466 
1437.000000	0.038245 
1436.000000	0.036063 
1435.000000	0.034424 
1434.000000	0.033135 
1433.000000	0.031785 
1432.000000	0.030249 
1431.000000	0.028679 
1430.000000	0.027216 
1429.000000	0.025898 
1428.000000	0.024837 
1427.000000	0.024136 
1426.000000	0.023707 
1425.000000	0.023384 
1424.000000	0.023139 
1423.000000	0.023027 
1422.000000	0.022964 
1421.000000	0.022793 
1420.000000	0.022464 
1419.000000	0.022113 
1418.000000	0.021816 
1417.000000	0.021484 
1416.000000	0.021125 
1415.000000	0.020791 
1414.000000	0.020462 
1413.000000	0.020121 
1412.000000	0.019857 
1411.000000	0.019798 
1410.000000	0.019917 
1409.000000	0.020076 
1408.000000	0.020225 
1407.000000	0.020407 
1406.000000	0.020629 
1405.000000	0.020865 
1404.000000	0.021138 
1403.000000	0.021471 
1402.000000	0.021820 
1401.000000	0.022140 
1400.000000	0.022478 
1399.000000	0.022899 
1398.000000	0.023336 
1397.000000	0.023675 
1396.000000	0.023942 
1395.000000	0.024209 
1394.000000	0.024438 
1393.000000	0.024597 
1392.000000	0.024773 
1391.000000	0.025045 
1390.000000	0.025444 
1389.000000	0.026080 
1388.000000	0.027198 
1387.000000	0.028874 
1386.000000	0.030764 
1385.000000	0.032612 
1384.000000	0.034573 
1383.000000	0.036911 
1382.000000	0.039723 
1381.000000	0.042891 
1380.000000	0.046058 
1379.000000	0.048602 
1378.000000	0.049915 
1377.000000	0.049785 
1376.000000	0.048277 
1375.000000	0.045529 
1374.000000	0.042101 
1373.000000	0.038951 
1372.000000	0.036595 
1371.000000	0.034964 
1370.000000	0.033887 
1369.000000	0.033269 
1368.000000	0.032979 
1367.000000	0.032782 
1366.000000	0.032453 
1365.000000	0.031840 
1364.000000	0.030842 
1363.000000	0.029529 
1362.000000	0.028235 
1361.000000	0.027252 
1360.000000	0.026602 
1359.000000	0.026196 
1358.000000	0.025950 
1357.000000	0.025794 
1356.000000	0.025683 
1355.000000	0.025601 
1354.000000	0.025548 
1353.000000	0.025518 
1352.000000	0.025490 
1351.000000	0.025433 
1350.000000	0.025317 
1349.000000	0.025127 
1348.000000	0.024889 
1347.000000	0.024626 
1346.000000	0.024324 
1345.000000	0.023951 
1344.000000	0.023538 
1343.000000	0.023159 
1342.000000	0.022846 
1341.000000	0.022528 
1340.000000	0.022111 
1339.000000	0.021592 
1338.000000	0.021048 
1337.000000	0.020543 
1336.000000	0.020102 
1335.000000	0.019722 
1334.000000	0.019372 
1333.000000	0.019023 
1332.000000	0.018717 
1331.000000	0.018537 
1330.000000	0.018511 
1329.000000	0.018575 
1328.000000	0.018663 
1327.000000	0.018771 
1326.000000	0.018926 
1325.000000	0.019113 
1324.000000	0.019297 
1323.000000	0.019469 
1322.000000	0.019628 
1321.000000	0.019757 
1320.000000	0.019847 
1319.000000	0.019931 
1318.000000	0.020052 
1317.000000	0.020213 
1316.000000	0.020397 
1315.000000	0.020605 
1314.000000	0.020832 
1313.000000	0.021040 
1312.000000	0.021193 
1311.000000	0.021316 
1310.000000	0.021456 
1309.000000	0.021618 
1308.000000	0.021760 
1307.000000	0.021855 
1306.000000	0.021926 
1305.000000	0.022013 
1304.000000	0.022116 
1303.000000	0.022198 
1302.000000	0.022206 
1301.000000	0.022105 
1300.000000	0.021892 
1299.000000	0.021594 
1298.000000	0.021251 
1297.000000	0.020890 
1296.000000	0.020531 
1295.000000	0.020191 
1294.000000	0.019886 
1293.000000	0.019623 
1292.000000	0.019409 
1291.000000	0.019265 
1290.000000	0.019211 
1289.000000	0.019254 
1288.000000	0.019384 
1287.000000	0.019580 
1286.000000	0.019817 
1285.000000	0.020083 
1284.000000	0.020370 
1283.000000	0.020672 
1282.000000	0.020977 
1281.000000	0.021281 
1280.000000	0.021590 
1279.000000	0.021906 
1278.000000	0.022212 
1277.000000	0.022495 
1276.000000	0.022761 
1275.000000	0.023029 
1274.000000	0.023306 
1273.000000	0.023585 
1272.000000	0.023868 
1271.000000	0.024157 
1270.000000	0.024421 
1269.000000	0.024617 
1268.000000	0.024740 
1267.000000	0.024850 
1266.000000	0.025008 
1265.000000	0.025215 
1264.000000	0.025424 
1263.000000	0.025612 
1262.000000	0.025807 
1261.000000	0.026035 
1260.000000	0.026255 
1259.000000	0.026382 
1258.000000	0.026371 
1257.000000	0.026262 
1256.000000	0.026155 
1255.000000	0.026143 
1254.000000	0.026258 
1253.000000	0.026472 
1252.000000	0.026743 
1251.000000	0.027058 
1250.000000	0.027433 
1249.000000	0.027882 
1248.000000	0.028379 
1247.000000	0.028870 
1246.000000	0.029309 
1245.000000	0.029672 
1244.000000	0.029943 
1243.000000	0.030098 
1242.000000	0.030134 
1241.000000	0.030078 
1240.000000	0.029957 
1239.000000	0.029754 
1238.000000	0.029424 
1237.000000	0.028951 
1236.000000	0.028386 
1235.000000	0.027805 
1234.000000	0.027254 
1233.000000	0.026727 
1232.000000	0.026213 
1231.000000	0.025724 
1230.000000	0.025284 
1229.000000	0.024885 
1228.000000	0.024499 
1227.000000	0.024112 
1226.000000	0.023734 
1225.000000	0.023388 
1224.000000	0.023092 
1223.000000	0.022865 
1222.000000	0.022722 
1221.000000	0.022672 
1220.000000	0.022694 
1219.000000	0.022739 
1218.000000	0.022760 
1217.000000	0.022751 
1216.000000	0.022751 
1215.000000	0.022810 
1214.000000	0.022941 
1213.000000	0.023116 
1212.000000	0.023294 
1211.000000	0.023449 
1210.000000	0.023584 
1209.000000	0.023734 
1208.000000	0.023948 
1207.000000	0.024239 
1206.000000	0.024574 
1205.000000	0.024910 
1204.000000	0.025243 
1203.000000	0.025606 
1202.000000	0.026026 
1201.000000	0.026509 
1200.000000	0.027047 
1199.000000	0.027629 
1198.000000	0.028254 
1197.000000	0.028937 
1196.000000	0.029694 
1195.000000	0.030510 
1194.000000	0.031350 
1193.000000	0.032200 
1192.000000	0.033083 
1191.000000	0.034017 
1190.000000	0.034994 
1189.000000	0.036007 
1188.000000	0.037067 
1187.000000	0.038171 
1186.000000	0.039282 
1185.000000	0.040364 
1184.000000	0.041419 
1183.000000	0.042459 
1182.000000	0.043471 
1181.000000	0.044423 
1180.000000	0.045291 
1179.000000	0.046056 
1178.000000	0.046688 
1177.000000	0.047138 
1176.000000	0.047379 
1175.000000	0.047439 
1174.000000	0.047381 
1173.000000	0.047248 
1172.000000	0.047024 
1171.000000	0.046668 
1170.000000	0.046160 
1169.000000	0.045524 
1168.000000	0.044795 
1167.000000	0.043998 
1166.000000	0.043143 
1165.000000	0.042227 
1164.000000	0.041248 
1163.000000	0.040209 
1162.000000	0.039117 
1161.000000	0.037971 
1160.000000	0.036782 
1159.000000	0.035584 
1158.000000	0.034418 
1157.000000	0.033304 
1156.000000	0.032258 
1155.000000	0.031326 
1154.000000	0.030539 
1153.000000	0.029857 
1152.000000	0.029176 
1151.000000	0.028425 
1150.000000	0.027623 
1149.000000	0.026837 
1148.000000	0.026109 
1147.000000	0.025443 
1146.000000	0.024832 
1145.000000	0.024259 
1144.000000	0.023697 
1143.000000	0.023118 
1142.000000	0.022526 
1141.000000	0.021956 
1140.000000	0.021437 
1139.000000	0.020971 
1138.000000	0.020546 
1137.000000	0.020169 
1136.000000	0.019854 
1135.000000	0.019588 
1134.000000	0.019346 
1133.000000	0.019135 
1132.000000	0.019010 
1131.000000	0.019011 
1130.000000	0.019121 
1129.000000	0.019324 
1128.000000	0.019662 
1127.000000	0.020189 
1126.000000	0.020877 
1125.000000	0.021619 
1124.000000	0.022333 
1123.000000	0.023012 
1122.000000	0.023668 
1121.000000	0.024271 
1120.000000	0.024757 
1119.000000	0.025076 
1118.000000	0.025207 
1117.000000	0.025149 
1116.000000	0.024918 
1115.000000	0.024556 
1114.000000	0.024115 
1113.000000	0.023654 
1112.000000	0.023211 
1111.000000	0.022798 
1110.000000	0.022410 
1109.000000	0.022065 
1108.000000	0.021829 
1107.000000	0.021747 
1106.000000	0.021780 
1105.000000	0.021838 
1104.000000	0.021887 
1103.000000	0.021961 
1102.000000	0.022072 
1101.000000	0.022156 
1100.000000	0.022139 
1099.000000	0.022025 
1098.000000	0.021885 
1097.000000	0.021782 
1096.000000	0.021727 
1095.000000	0.021676 
1094.000000	0.021570 
1093.000000	0.021387 
1092.000000	0.021186 
1091.000000	0.021067 
1090.000000	0.021065 
1089.000000	0.021125 
1088.000000	0.021176 
1087.000000	0.021204 
1086.000000	0.021223 
1085.000000	0.021223 
1084.000000	0.021188 
1083.000000	0.021140 
1082.000000	0.021122 
1081.000000	0.021146 
1080.000000	0.021200 
1079.000000	0.021296 
1078.000000	0.021483 
1077.000000	0.021802 
1076.000000	0.022253 
1075.000000	0.022784 
1074.000000	0.023314 
1073.000000	0.023771 
1072.000000	0.024146 
1071.000000	0.024498 
1070.000000	0.024889 
1069.000000	0.025332 
1068.000000	0.025806 
1067.000000	0.026302 
1066.000000	0.026819 
1065.000000	0.027310 
1064.000000	0.027677 
1063.000000	0.027825 
1062.000000	0.027728 
1061.000000	0.027430 
1060.000000	0.027012 
1059.000000	0.026563 
1058.000000	0.026168 
1057.000000	0.025896 
1056.000000	0.025784 
1055.000000	0.025820 
1054.000000	0.025936 
1053.000000	0.026029 
1052.000000	0.026018 
1051.000000	0.025905 
1050.000000	0.025773 
1049.000000	0.025716 
1048.000000	0.025773 
1047.000000	0.025935 
1046.000000	0.026161 
1045.000000	0.026392 
1044.000000	0.026562 
1043.000000	0.026641 
1042.000000	0.026658 
1041.000000	0.026669 
1040.000000	0.026685 
1039.000000	0.026640 
1038.000000	0.026452 
1037.000000	0.026113 
1036.000000	0.025705 
1035.000000	0.025321 
1034.000000	0.024990 
1033.000000	0.024679 
1032.000000	0.024367 
1031.000000	0.024060 
1030.000000	0.023759 
1029.000000	0.023440 
1028.000000	0.023090 
1027.000000	0.022728 
1026.000000	0.022375 
1025.000000	0.022017 
1024.000000	0.021629 
1023.000000	0.021215 
1022.000000	0.020792 
1021.000000	0.020349 
1020.000000	0.019854 
1019.000000	0.019305 
1018.000000	0.018757 
1017.000000	0.018285 
1016.000000	0.017943 
1015.000000	0.017732 
1014.000000	0.017617 
1013.000000	0.017546 
1012.000000	0.017471 
1011.000000	0.017351 
1010.000000	0.017160 
1009.000000	0.016923 
1008.000000	0.016712 
1007.000000	0.016574 
1006.000000	0.016475 
1005.000000	0.016349 
1004.000000	0.016194 
1003.000000	0.016069 
1002.000000	0.016003 
1001.000000	0.015953 
1000.000000	0.015878 
999.000000	 0.015806 
998.000000	 0.015780 
997.000000	 0.015782 
996.000000	 0.015760 
995.000000	 0.015704 
994.000000	 0.015642 
993.000000	 0.015574 
992.000000	 0.015470 
991.000000	 0.015325 
990.000000	 0.015194 
989.000000	 0.015126 
988.000000	 0.015110 
987.000000	 0.015093 
986.000000	 0.015036 
985.000000	 0.014942 
984.000000	 0.014840 
983.000000	 0.014769 
982.000000	 0.014762 
981.000000	 0.014843 
980.000000	 0.015019 
979.000000	 0.015268 
978.000000	 0.015556 
977.000000	 0.015858 
976.000000	 0.016178 
975.000000	 0.016519 
974.000000	 0.016851 
973.000000	 0.017118 
972.000000	 0.017305 
971.000000	 0.017445 
970.000000	 0.017572 
969.000000	 0.017663 
968.000000	 0.017661 
967.000000	 0.017542 
966.000000	 0.017344 
965.000000	 0.017118 
964.000000	 0.016883 
963.000000	 0.016625 
962.000000	 0.016328 
961.000000	 0.016007 
960.000000	 0.015715 
959.000000	 0.015503 
958.000000	 0.015375 
957.000000	 0.015290 
956.000000	 0.015211 
955.000000	 0.015157 
954.000000	 0.015172 
953.000000	 0.015261 
952.000000	 0.015364 
951.000000	 0.015418 
950.000000	 0.015414 
949.000000	 0.015392 
948.000000	 0.015366 
947.000000	 0.015290 
946.000000	 0.015110 
945.000000	 0.014851 
944.000000	 0.014622 
943.000000	 0.014502 
942.000000	 0.014459 
941.000000	 0.014385 
940.000000	 0.014225 
939.000000	 0.014013 
938.000000	 0.013805 
937.000000	 0.013621 
936.000000	 0.013466 
935.000000	 0.013362 
934.000000	 0.013320 
933.000000	 0.013307 
932.000000	 0.013268 
931.000000	 0.013182 
930.000000	 0.013077 
929.000000	 0.013014 
928.000000	 0.013056 
927.000000	 0.013225 
926.000000	 0.013453 
925.000000	 0.013620 
924.000000	 0.013668 
923.000000	 0.013673 
922.000000	 0.013756 
921.000000	 0.013942 
920.000000	 0.014147 
919.000000	 0.014277 
918.000000	 0.014296 
917.000000	 0.014206 
916.000000	 0.014032 
915.000000	 0.013828 
914.000000	 0.013649 
913.000000	 0.013496 
912.000000	 0.013322 
911.000000	 0.013119 
910.000000	 0.012949 
909.000000	 0.012857 
908.000000	 0.012795 
907.000000	 0.012682 
906.000000	 0.012510 
905.000000	 0.012339 
904.000000	 0.012210 
903.000000	 0.012126 
902.000000	 0.012109 
901.000000	 0.012194 
900.000000	 0.012345 
899.000000	 0.012438 
898.000000	 0.012383 
897.000000	 0.012231 
896.000000	 0.012124 
895.000000	 0.012142 
894.000000	 0.012248 
893.000000	 0.012365 
892.000000	 0.012457 
891.000000	 0.012525 
890.000000	 0.012591 
889.000000	 0.012676 
888.000000	 0.012785 
887.000000	 0.012874 
886.000000	 0.012873 
885.000000	 0.012777 
884.000000	 0.012685 
883.000000	 0.012709 
882.000000	 0.012861 
881.000000	 0.013035 
880.000000	 0.013128 
879.000000	 0.013119 
878.000000	 0.013078 
877.000000	 0.013089 
876.000000	 0.013184 
875.000000	 0.013322 
874.000000	 0.013439 
873.000000	 0.013519 
872.000000	 0.013606 
871.000000	 0.013731 
870.000000	 0.013851 
869.000000	 0.013898 
868.000000	 0.013862 
867.000000	 0.013792 
866.000000	 0.013727 
865.000000	 0.013672 
864.000000	 0.013636 
863.000000	 0.013651 
862.000000	 0.013735 
861.000000	 0.013855 
860.000000	 0.013957 
859.000000	 0.014027 
858.000000	 0.014107 
857.000000	 0.014240 
856.000000	 0.014409 
855.000000	 0.014547 
854.000000	 0.014621 
853.000000	 0.014700 
852.000000	 0.014903 
851.000000	 0.015280 
850.000000	 0.015756 
849.000000	 0.016221 
848.000000	 0.016639 
847.000000	 0.017020 
846.000000	 0.017332 
845.000000	 0.017495 
844.000000	 0.017478 
843.000000	 0.017336 
842.000000	 0.017150 
841.000000	 0.016957 
840.000000	 0.016765 
839.000000	 0.016589 
838.000000	 0.016438 
837.000000	 0.016274 
836.000000	 0.016032 
835.000000	 0.015683 
834.000000	 0.015268 
833.000000	 0.014879 
832.000000	 0.014605 
831.000000	 0.014489 
830.000000	 0.014499 
829.000000	 0.014534 
828.000000	 0.014499 
827.000000	 0.014377 
826.000000	 0.014237 
825.000000	 0.014173 
824.000000	 0.014244 
823.000000	 0.014442 
822.000000	 0.014701 
821.000000	 0.014916 
820.000000	 0.015007 
819.000000	 0.014991 
818.000000	 0.014981 
817.000000	 0.015095 
816.000000	 0.015323 
815.000000	 0.015513 
814.000000	 0.015514 
813.000000	 0.015342 
812.000000	 0.015167 
811.000000	 0.015126 
810.000000	 0.015202 
809.000000	 0.015294 
808.000000	 0.015374 
807.000000	 0.015508 
806.000000	 0.015731 
805.000000	 0.015950 
804.000000	 0.016001 
803.000000	 0.015788 
802.000000	 0.015365 
801.000000	 0.014891 
800.000000	 0.014518 
799.000000	 0.014298 
798.000000	 0.014189 
797.000000	 0.014116 
796.000000	 0.014011 
795.000000	 0.013828 
794.000000	 0.013579 
793.000000	 0.013381 
792.000000	 0.013399 
791.000000	 0.013686 
790.000000	 0.014111 
789.000000	 0.014496 
788.000000	 0.014799 
787.000000	 0.015087 
786.000000	 0.015382 
785.000000	 0.015627 
784.000000	 0.015823 
783.000000	 0.016095 
782.000000	 0.016557 
781.000000	 0.017157 
780.000000	 0.017709 
779.000000	 0.018062 
778.000000	 0.018220 
777.000000	 0.018317 
776.000000	 0.018511 
775.000000	 0.018865 
774.000000	 0.019311 
773.000000	 0.019735 
772.000000	 0.020104 
771.000000	 0.020471 
770.000000	 0.020866 
769.000000	 0.021237 
768.000000	 0.021530 
767.000000	 0.021760 
766.000000	 0.021959 
765.000000	 0.022098 
764.000000	 0.022128 
763.000000	 0.022075 
762.000000	 0.022029 
761.000000	 0.022036 
760.000000	 0.022068 
759.000000	 0.022122 
758.000000	 0.022265 
757.000000	 0.022566 
756.000000	 0.022985 
755.000000	 0.023395 
754.000000	 0.023680 
753.000000	 0.023835 
752.000000	 0.023976 
751.000000	 0.024262 
750.000000	 0.024766 
749.000000	 0.025395 
748.000000	 0.025971 
747.000000	 0.026450 
746.000000	 0.027021 
745.000000	 0.027951 
744.000000	 0.029301 
743.000000	 0.030838 
742.000000	 0.032227 
741.000000	 0.033305 
740.000000	 0.034137 
739.000000	 0.034863 
738.000000	 0.035528 
737.000000	 0.036080 
736.000000	 0.036474 
735.000000	 0.036748 
734.000000	 0.037004 
733.000000	 0.037338 
732.000000	 0.037816 
731.000000	 0.038495 
730.000000	 0.039418 
729.000000	 0.040564 
728.000000	 0.041832 
727.000000	 0.043108 
726.000000	 0.044322 
725.000000	 0.045433 
724.000000	 0.046359 
723.000000	 0.046931 
722.000000	 0.046928 
721.000000	 0.046209 
720.000000	 0.044856 
719.000000	 0.043162 
718.000000	 0.041441 
717.000000	 0.039881 
716.000000	 0.038541 
715.000000	 0.037407 
714.000000	 0.036413 
713.000000	 0.035480 
712.000000	 0.034574 
711.000000	 0.033718 
710.000000	 0.032959 
709.000000	 0.032353 
708.000000	 0.031956 
707.000000	 0.031780 
706.000000	 0.031728 
705.000000	 0.031672 
704.000000	 0.031598 
703.000000	 0.031600 
702.000000	 0.031724 
701.000000	 0.031886 
700.000000	 0.031952 
699.000000	 0.031830 
698.000000	 0.031446 
697.000000	 0.030747 
696.000000	 0.029788 
695.000000	 0.028749 
694.000000	 0.027826 
693.000000	 0.027116 
692.000000	 0.026621 
691.000000	 0.026310 
690.000000	 0.026101 
689.000000	 0.025839 
688.000000	 0.025401 
687.000000	 0.024783 
686.000000	 0.024073 
685.000000	 0.023381 
684.000000	 0.022826 
683.000000	 0.022503 
682.000000	 0.022382 
681.000000	 0.022296 
680.000000	 0.022104 
679.000000	 0.021814 
678.000000	 0.021493 
677.000000	 0.021154 
676.000000	 0.020859 
675.000000	 0.020680 
674.000000	 0.020593 
673.000000	 0.020505 
672.000000	 0.020439 
671.000000	 0.020595 
670.000000	 0.021260 
669.000000	 0.022289 
668.000000	 0.022145 
667.000000	 0.020091 
666.000000	 0.018454 
665.000000	 0.017953 
664.000000	 0.017896 
663.000000	 0.017851 
662.000000	 0.017663 
661.000000	 0.017283 
660.000000	 0.016806 
659.000000	 0.016520 
658.000000	 0.016676 
657.000000	 0.017157 
656.000000	 0.017561 
655.000000	 0.017527 
654.000000	 0.017042 
653.000000	 0.012996 
652.000000	 0.012585 
651.000000	 0.012386 
650.000000	 0.012286 

