PE IR                   SPECTRUM    ASCII       PEDS        1.60        
  -1
NB442~1.ASC
17/05/24
07:54:07.00
17/05/24
07:54:07.00
Admin

650.000000
4









SPECTRUM ONE,CPU32 MAIN 00.02.6000 25-JUNE-2003 12:00:00
MIR TGS
MIR
OPTKBR
68128
0.200000

4.000000
STRONG
RATIO
SPECTRUM
MAGNITUDE
UNIVERSAL ATR
DOUBLE

COMBINED


0


#HDR
-1
-1
#GR
CM-1
A
0.00000011920928955078
0.0
4000.000000
-1.000000
3351
8
0.196805
-0.001248
#DATA
4000.000000	0.003346  
3999.000000	0.003370  
3998.000000	0.003364  
3997.000000	0.003320  
3996.000000	0.003232  
3995.000000	0.003088  
3994.000000	0.002894  
3993.000000	0.002687  
3992.000000	0.002536  
3991.000000	0.002508  
3990.000000	0.002629  
3989.000000	0.002860  
3988.000000	0.003121  
3987.000000	0.003326  
3986.000000	0.003425  
3985.000000	0.003407  
3984.000000	0.003307  
3983.000000	0.003189  
3982.000000	0.003109  
3981.000000	0.003076  
3980.000000	0.003054  
3979.000000	0.002999  
3978.000000	0.002903  
3977.000000	0.002790  
3976.000000	0.002701  
3975.000000	0.002676  
3974.000000	0.002742  
3973.000000	0.002892  
3972.000000	0.003075  
3971.000000	0.003219  
3970.000000	0.003277  
3969.000000	0.003249  
3968.000000	0.003159  
3967.000000	0.003035  
3966.000000	0.002905  
3965.000000	0.002793  
3964.000000	0.002716  
3963.000000	0.002681  
3962.000000	0.002683  
3961.000000	0.002704  
3960.000000	0.002723  
3959.000000	0.002715  
3958.000000	0.002680  
3957.000000	0.002652  
3956.000000	0.002672  
3955.000000	0.002755  
3954.000000	0.002872  
3953.000000	0.002969  
3952.000000	0.003005  
3951.000000	0.002987  
3950.000000	0.002955  
3949.000000	0.002944  
3948.000000	0.002946  
3947.000000	0.002936  
3946.000000	0.002905  
3945.000000	0.002863  
3944.000000	0.002831  
3943.000000	0.002830  
3942.000000	0.002869  
3941.000000	0.002932  
3940.000000	0.002982  
3939.000000	0.002977  
3938.000000	0.002910  
3937.000000	0.002837  
3936.000000	0.002842  
3935.000000	0.002973  
3934.000000	0.003177  
3933.000000	0.003337  
3932.000000	0.003384  
3931.000000	0.003365  
3930.000000	0.003366  
3929.000000	0.003408  
3928.000000	0.003434  
3927.000000	0.003372  
3926.000000	0.003229  
3925.000000	0.003110  
3924.000000	0.003078  
3923.000000	0.003073  
3922.000000	0.003001  
3921.000000	0.002858  
3920.000000	0.002747  
3919.000000	0.002772  
3918.000000	0.002925  
3917.000000	0.003098  
3916.000000	0.003216  
3915.000000	0.003295  
3914.000000	0.003378  
3913.000000	0.003465  
3912.000000	0.003505  
3911.000000	0.003445  
3910.000000	0.003281  
3909.000000	0.003057  
3908.000000	0.002831  
3907.000000	0.002647  
3906.000000	0.002576  
3905.000000	0.002738  
3904.000000	0.003183  
3903.000000	0.003735  
3902.000000	0.004094  
3901.000000	0.004107  
3900.000000	0.003883  
3899.000000	0.003653  
3898.000000	0.003536  
3897.000000	0.003507  
3896.000000	0.003498  
3895.000000	0.003463  
3894.000000	0.003389  
3893.000000	0.003322  
3892.000000	0.003345  
3891.000000	0.003426  
3890.000000	0.003443  
3889.000000	0.003337  
3888.000000	0.003120  
3887.000000	0.002866  
3886.000000	0.002740  
3885.000000	0.002849  
3884.000000	0.003101  
3883.000000	0.003321  
3882.000000	0.003413  
3881.000000	0.003453  
3880.000000	0.003552  
3879.000000	0.003703  
3878.000000	0.003834  
3877.000000	0.003871  
3876.000000	0.003782  
3875.000000	0.003662  
3874.000000	0.003672  
3873.000000	0.003811  
3872.000000	0.003897  
3871.000000	0.003822  
3870.000000	0.003746  
3869.000000	0.003843  
3868.000000	0.004078  
3867.000000	0.004287  
3866.000000	0.004320  
3865.000000	0.004176  
3864.000000	0.003985  
3863.000000	0.003812  
3862.000000	0.003644  
3861.000000	0.003467  
3860.000000	0.003288  
3859.000000	0.003127  
3858.000000	0.003065  
3857.000000	0.003218  
3856.000000	0.003481  
3855.000000	0.003486  
3854.000000	0.003389  
3853.000000	0.003586  
3852.000000	0.003836  
3851.000000	0.003865  
3850.000000	0.003718  
3849.000000	0.003555  
3848.000000	0.003477  
3847.000000	0.003476  
3846.000000	0.003490  
3845.000000	0.003511  
3844.000000	0.003647  
3843.000000	0.004021  
3842.000000	0.004605  
3841.000000	0.005190  
3840.000000	0.005546  
3839.000000	0.005609  
3838.000000	0.005498  
3837.000000	0.005327  
3836.000000	0.005102  
3835.000000	0.004794  
3834.000000	0.004420  
3833.000000	0.004068  
3832.000000	0.003840  
3831.000000	0.003758  
3830.000000	0.003745  
3829.000000	0.003698  
3828.000000	0.003593  
3827.000000	0.003535  
3826.000000	0.003649  
3825.000000	0.003944  
3824.000000	0.004242  
3823.000000	0.004232  
3822.000000	0.003977  
3821.000000	0.003941  
3820.000000	0.004205  
3819.000000	0.004468  
3818.000000	0.004466  
3817.000000	0.004167  
3816.000000	0.003799  
3815.000000	0.003558  
3814.000000	0.003427  
3813.000000	0.003337  
3812.000000	0.003278  
3811.000000	0.003283  
3810.000000	0.003347  
3809.000000	0.003403  
3808.000000	0.003475  
3807.000000	0.003718  
3806.000000	0.004180  
3805.000000	0.004724  
3804.000000	0.005076  
3803.000000	0.004985  
3802.000000	0.004614  
3801.000000	0.004347  
3800.000000	0.004245  
3799.000000	0.004133  
3798.000000	0.003899  
3797.000000	0.003593  
3796.000000	0.003331  
3795.000000	0.003144  
3794.000000	0.002982  
3793.000000	0.002811  
3792.000000	0.002655  
3791.000000	0.002571  
3790.000000	0.002594  
3789.000000	0.002708  
3788.000000	0.002860  
3787.000000	0.002992  
3786.000000	0.003094  
3785.000000	0.003203  
3784.000000	0.003355  
3783.000000	0.003527  
3782.000000	0.003602  
3781.000000	0.003451  
3780.000000	0.003115  
3779.000000	0.002787  
3778.000000	0.002594  
3777.000000	0.002523  
3776.000000	0.002515  
3775.000000	0.002549  
3774.000000	0.002640  
3773.000000	0.002764  
3772.000000	0.002842  
3771.000000	0.002843  
3770.000000	0.002873  
3769.000000	0.003032  
3768.000000	0.003283  
3767.000000	0.003498  
3766.000000	0.003576  
3765.000000	0.003537  
3764.000000	0.003484  
3763.000000	0.003491  
3762.000000	0.003530  
3761.000000	0.003529  
3760.000000	0.003488  
3759.000000	0.003468  
3758.000000	0.003485  
3757.000000	0.003528  
3756.000000	0.003627  
3755.000000	0.003822  
3754.000000	0.004053  
3753.000000	0.004169  
3752.000000	0.004239  
3751.000000	0.004572  
3750.000000	0.005096  
3749.000000	0.005445  
3748.000000	0.005482  
3747.000000	0.005224  
3746.000000	0.004684  
3745.000000	0.004095  
3744.000000	0.003794  
3743.000000	0.003753  
3742.000000	0.003747  
3741.000000	0.003678  
3740.000000	0.003608  
3739.000000	0.003646  
3738.000000	0.003792  
3737.000000	0.003922  
3736.000000	0.003945  
3735.000000	0.003869  
3734.000000	0.003719  
3733.000000	0.003526  
3732.000000	0.003344  
3731.000000	0.003191  
3730.000000	0.003049  
3729.000000	0.002892  
3728.000000	0.002721  
3727.000000	0.002578  
3726.000000	0.002513  
3725.000000	0.002514  
3724.000000	0.002537  
3723.000000	0.002577  
3722.000000	0.002648  
3721.000000	0.002713  
3720.000000	0.002689  
3719.000000	0.002543  
3718.000000	0.002346  
3717.000000	0.002247  
3716.000000	0.002383  
3715.000000	0.002770  
3714.000000	0.003206  
3713.000000	0.003407  
3712.000000	0.003349  
3711.000000	0.003239  
3710.000000	0.003175  
3709.000000	0.003146  
3708.000000	0.003147  
3707.000000	0.003184  
3706.000000	0.003244  
3705.000000	0.003282  
3704.000000	0.003228  
3703.000000	0.003069  
3702.000000	0.002901  
3701.000000	0.002820  
3700.000000	0.002819  
3699.000000	0.002840  
3698.000000	0.002847  
3697.000000	0.002860  
3696.000000	0.002949  
3695.000000	0.003188  
3694.000000	0.003592  
3693.000000	0.004061  
3692.000000	0.004363  
3691.000000	0.004275  
3690.000000	0.003859  
3689.000000	0.003432  
3688.000000	0.003201  
3687.000000	0.003151  
3686.000000	0.003184  
3685.000000	0.003225  
3684.000000	0.003247  
3683.000000	0.003239  
3682.000000	0.003206  
3681.000000	0.003213  
3680.000000	0.003402  
3679.000000	0.003858  
3678.000000	0.004391  
3677.000000	0.004603  
3676.000000	0.004487  
3675.000000	0.004335  
3674.000000	0.004241  
3673.000000	0.004170  
3672.000000	0.004038  
3671.000000	0.003868  
3670.000000	0.003851  
3669.000000	0.003932  
3668.000000	0.003853  
3667.000000	0.003539  
3666.000000	0.003100  
3665.000000	0.002713  
3664.000000	0.002522  
3663.000000	0.002550  
3662.000000	0.002692  
3661.000000	0.002805  
3660.000000	0.002809  
3659.000000	0.002710  
3658.000000	0.002593  
3657.000000	0.002642  
3656.000000	0.002984  
3655.000000	0.003531  
3654.000000	0.004137  
3653.000000	0.004687  
3652.000000	0.005012  
3651.000000	0.005030  
3650.000000	0.005109  
3649.000000	0.005493  
3648.000000	0.005728  
3647.000000	0.005492  
3646.000000	0.004946  
3645.000000	0.004331  
3644.000000	0.003797  
3643.000000	0.003433  
3642.000000	0.003283  
3641.000000	0.003307  
3640.000000	0.003386  
3639.000000	0.003408  
3638.000000	0.003337  
3637.000000	0.003211  
3636.000000	0.003077  
3635.000000	0.002967  
3634.000000	0.002923  
3633.000000	0.003007  
3632.000000	0.003260  
3631.000000	0.003588  
3630.000000	0.003884  
3629.000000	0.004226  
3628.000000	0.004534  
3627.000000	0.004605  
3626.000000	0.004432  
3625.000000	0.004170  
3624.000000	0.004001  
3623.000000	0.004041  
3622.000000	0.004267  
3621.000000	0.004528  
3620.000000	0.004684  
3619.000000	0.004720  
3618.000000	0.004670  
3617.000000	0.004544  
3616.000000	0.004335  
3615.000000	0.004067  
3614.000000	0.003818  
3613.000000	0.003676  
3612.000000	0.003649  
3611.000000	0.003683  
3610.000000	0.003732  
3609.000000	0.003802  
3608.000000	0.003931  
3607.000000	0.004094  
3606.000000	0.004237  
3605.000000	0.004353  
3604.000000	0.004461  
3603.000000	0.004562  
3602.000000	0.004646  
3601.000000	0.004721  
3600.000000	0.004794  
3599.000000	0.004848  
3598.000000	0.004862  
3597.000000	0.004819  
3596.000000	0.004726  
3595.000000	0.004613  
3594.000000	0.004513  
3593.000000	0.004429  
3592.000000	0.004364  
3591.000000	0.004331  
3590.000000	0.004327  
3589.000000	0.004375  
3588.000000	0.004608  
3587.000000	0.005063  
3586.000000	0.005524  
3585.000000	0.005766  
3584.000000	0.005737  
3583.000000	0.005517  
3582.000000	0.005247  
3581.000000	0.005063  
3580.000000	0.005034  
3579.000000	0.005117  
3578.000000	0.005189  
3577.000000	0.005145  
3576.000000	0.004991  
3575.000000	0.004833  
3574.000000	0.004787  
3573.000000	0.004896  
3572.000000	0.005138  
3571.000000	0.005471  
3570.000000	0.005835  
3569.000000	0.006131  
3568.000000	0.006314  
3567.000000	0.006416  
3566.000000	0.006413  
3565.000000	0.006259  
3564.000000	0.006015  
3563.000000	0.005821  
3562.000000	0.005771  
3561.000000	0.005840  
3560.000000	0.005928  
3559.000000	0.005970  
3558.000000	0.005990  
3557.000000	0.006044  
3556.000000	0.006153  
3555.000000	0.006286  
3554.000000	0.006409  
3553.000000	0.006511  
3552.000000	0.006588  
3551.000000	0.006609  
3550.000000	0.006554  
3549.000000	0.006461  
3548.000000	0.006429  
3547.000000	0.006536  
3546.000000	0.006741  
3545.000000	0.006896  
3544.000000	0.006911  
3543.000000	0.006846  
3542.000000	0.006818  
3541.000000	0.006874  
3540.000000	0.006946  
3539.000000	0.006933  
3538.000000	0.006801  
3537.000000	0.006631  
3536.000000	0.006552  
3535.000000	0.006626  
3534.000000	0.006816  
3533.000000	0.007036  
3532.000000	0.007202  
3531.000000	0.007263  
3530.000000	0.007220  
3529.000000	0.007133  
3528.000000	0.007107  
3527.000000	0.007212  
3526.000000	0.007435  
3525.000000	0.007677  
3524.000000	0.007829  
3523.000000	0.007871  
3522.000000	0.007873  
3521.000000	0.007913  
3520.000000	0.007992  
3519.000000	0.008045  
3518.000000	0.008015  
3517.000000	0.007919  
3516.000000	0.007828  
3515.000000	0.007791  
3514.000000	0.007795  
3513.000000	0.007814  
3512.000000	0.007869  
3511.000000	0.008017  
3510.000000	0.008275  
3509.000000	0.008568  
3508.000000	0.008784  
3507.000000	0.008877  
3506.000000	0.008881  
3505.000000	0.008873  
3504.000000	0.008905  
3503.000000	0.008966  
3502.000000	0.009004  
3501.000000	0.008982  
3500.000000	0.008896  
3499.000000	0.008775  
3498.000000	0.008689  
3497.000000	0.008721  
3496.000000	0.008890  
3495.000000	0.009102  
3494.000000	0.009225  
3493.000000	0.009235  
3492.000000	0.009236  
3491.000000	0.009332  
3490.000000	0.009503  
3489.000000	0.009648  
3488.000000	0.009731  
3487.000000	0.009823  
3486.000000	0.009977  
3485.000000	0.010133  
3484.000000	0.010182  
3483.000000	0.010100  
3482.000000	0.009986  
3481.000000	0.009958  
3480.000000	0.010047  
3479.000000	0.010212  
3478.000000	0.010410  
3477.000000	0.010629  
3476.000000	0.010859  
3475.000000	0.011053  
3474.000000	0.011133  
3473.000000	0.011059  
3472.000000	0.010881  
3471.000000	0.010701  
3470.000000	0.010583  
3469.000000	0.010525  
3468.000000	0.010508  
3467.000000	0.010544  
3466.000000	0.010649  
3465.000000	0.010792  
3464.000000	0.010904  
3463.000000	0.010948  
3462.000000	0.010945  
3461.000000	0.010946  
3460.000000	0.010981  
3459.000000	0.011046  
3458.000000	0.011129  
3457.000000	0.011218  
3456.000000	0.011318  
3455.000000	0.011438  
3454.000000	0.011568  
3453.000000	0.011676  
3452.000000	0.011740  
3451.000000	0.011779  
3450.000000	0.011843  
3449.000000	0.011965  
3448.000000	0.012137  
3447.000000	0.012298  
3446.000000	0.012384  
3445.000000	0.012369  
3444.000000	0.012286  
3443.000000	0.012201  
3442.000000	0.012160  
3441.000000	0.012167  
3440.000000	0.012191  
3439.000000	0.012214  
3438.000000	0.012241  
3437.000000	0.012294  
3436.000000	0.012380  
3435.000000	0.012483  
3434.000000	0.012569  
3433.000000	0.012614  
3432.000000	0.012648  
3431.000000	0.012729  
3430.000000	0.012876  
3429.000000	0.013024  
3428.000000	0.013082  
3427.000000	0.013030  
3426.000000	0.012928  
3425.000000	0.012850  
3424.000000	0.012813  
3423.000000	0.012788  
3422.000000	0.012754  
3421.000000	0.012725  
3420.000000	0.012725  
3419.000000	0.012749  
3418.000000	0.012760  
3417.000000	0.012735  
3416.000000	0.012699  
3415.000000	0.012722  
3414.000000	0.012857  
3413.000000	0.013078  
3412.000000	0.013287  
3411.000000	0.013383  
3410.000000	0.013342  
3409.000000	0.013243  
3408.000000	0.013220  
3407.000000	0.013350  
3406.000000	0.013575  
3405.000000	0.013742  
3404.000000	0.013751  
3403.000000	0.013649  
3402.000000	0.013580  
3401.000000	0.013640  
3400.000000	0.013813  
3399.000000	0.014004  
3398.000000	0.014120  
3397.000000	0.014116  
3396.000000	0.014011  
3395.000000	0.013878  
3394.000000	0.013803  
3393.000000	0.013832  
3392.000000	0.013949  
3391.000000	0.014107  
3390.000000	0.014254  
3389.000000	0.014345  
3388.000000	0.014358  
3387.000000	0.014315  
3386.000000	0.014275  
3385.000000	0.014278  
3384.000000	0.014311  
3383.000000	0.014344  
3382.000000	0.014367  
3381.000000	0.014387  
3380.000000	0.014395  
3379.000000	0.014357  
3378.000000	0.014265  
3377.000000	0.014150  
3376.000000	0.014068  
3375.000000	0.014044  
3374.000000	0.014040  
3373.000000	0.013995  
3372.000000	0.013901  
3371.000000	0.013842  
3370.000000	0.013924  
3369.000000	0.014161  
3368.000000	0.014439  
3367.000000	0.014608  
3366.000000	0.014599  
3365.000000	0.014454  
3364.000000	0.014271  
3363.000000	0.014147  
3362.000000	0.014142  
3361.000000	0.014266  
3360.000000	0.014465  
3359.000000	0.014649  
3358.000000	0.014752  
3357.000000	0.014761  
3356.000000	0.014707  
3355.000000	0.014634  
3354.000000	0.014573  
3353.000000	0.014544  
3352.000000	0.014558  
3351.000000	0.014604  
3350.000000	0.014648  
3349.000000	0.014657  
3348.000000	0.014631  
3347.000000	0.014607  
3346.000000	0.014623  
3345.000000	0.014681  
3344.000000	0.014744  
3343.000000	0.014780  
3342.000000	0.014787  
3341.000000	0.014782  
3340.000000	0.014772  
3339.000000	0.014755  
3338.000000	0.014722  
3337.000000	0.014676  
3336.000000	0.014625  
3335.000000	0.014580  
3334.000000	0.014545  
3333.000000	0.014513  
3332.000000	0.014472  
3331.000000	0.014424  
3330.000000	0.014382  
3329.000000	0.014367  
3328.000000	0.014397  
3327.000000	0.014467  
3326.000000	0.014555  
3325.000000	0.014635  
3324.000000	0.014711  
3323.000000	0.014805  
3322.000000	0.014907  
3321.000000	0.014968  
3320.000000	0.014952  
3319.000000	0.014890  
3318.000000	0.014847  
3317.000000	0.014838  
3316.000000	0.014821  
3315.000000	0.014770  
3314.000000	0.014713  
3313.000000	0.014692  
3312.000000	0.014704  
3311.000000	0.014714  
3310.000000	0.014701  
3309.000000	0.014678  
3308.000000	0.014661  
3307.000000	0.014655  
3306.000000	0.014652  
3305.000000	0.014635  
3304.000000	0.014594  
3303.000000	0.014542  
3302.000000	0.014501  
3301.000000	0.014475  
3300.000000	0.014432  
3299.000000	0.014343  
3298.000000	0.014218  
3297.000000	0.014093  
3296.000000	0.014000  
3295.000000	0.013957  
3294.000000	0.013979  
3293.000000	0.014080  
3292.000000	0.014238  
3291.000000	0.014394  
3290.000000	0.014472  
3289.000000	0.014427  
3288.000000	0.014285  
3287.000000	0.014139  
3286.000000	0.014083  
3285.000000	0.014131  
3284.000000	0.014204  
3283.000000	0.014220  
3282.000000	0.014190  
3281.000000	0.014182  
3280.000000	0.014226  
3279.000000	0.014257  
3278.000000	0.014192  
3277.000000	0.014015  
3276.000000	0.013791  
3275.000000	0.013608  
3274.000000	0.013517  
3273.000000	0.013519  
3272.000000	0.013571  
3271.000000	0.013606  
3270.000000	0.013577  
3269.000000	0.013489  
3268.000000	0.013394  
3267.000000	0.013347  
3266.000000	0.013356  
3265.000000	0.013373  
3264.000000	0.013344  
3263.000000	0.013273  
3262.000000	0.013217  
3261.000000	0.013226  
3260.000000	0.013287  
3259.000000	0.013327  
3258.000000	0.013295  
3257.000000	0.013205  
3256.000000	0.013113  
3255.000000	0.013056  
3254.000000	0.013014  
3253.000000	0.012941  
3252.000000	0.012829  
3251.000000	0.012725  
3250.000000	0.012689  
3249.000000	0.012730  
3248.000000	0.012793  
3247.000000	0.012801  
3246.000000	0.012724  
3245.000000	0.012598  
3244.000000	0.012488  
3243.000000	0.012426  
3242.000000	0.012385  
3241.000000	0.012317  
3240.000000	0.012207  
3239.000000	0.012101  
3238.000000	0.012069  
3237.000000	0.012130  
3236.000000	0.012233  
3235.000000	0.012301  
3234.000000	0.012296  
3233.000000	0.012237  
3232.000000	0.012170  
3231.000000	0.012120  
3230.000000	0.012083  
3229.000000	0.012048  
3228.000000	0.012030  
3227.000000	0.012063  
3226.000000	0.012156  
3225.000000	0.012266  
3224.000000	0.012331  
3223.000000	0.012316  
3222.000000	0.012230  
3221.000000	0.012092  
3220.000000	0.011926  
3219.000000	0.011774  
3218.000000	0.011684  
3217.000000	0.011657  
3216.000000	0.011633  
3215.000000	0.011562  
3214.000000	0.011457  
3213.000000	0.011372  
3212.000000	0.011337  
3211.000000	0.011341  
3210.000000	0.011358  
3209.000000	0.011365  
3208.000000	0.011341  
3207.000000	0.011290  
3206.000000	0.011241  
3205.000000	0.011223  
3204.000000	0.011229  
3203.000000	0.011221  
3202.000000	0.011174  
3201.000000	0.011092  
3200.000000	0.010980  
3199.000000	0.010832  
3198.000000	0.010656  
3197.000000	0.010487  
3196.000000	0.010354  
3195.000000	0.010266  
3194.000000	0.010231  
3193.000000	0.010267  
3192.000000	0.010378  
3191.000000	0.010515  
3190.000000	0.010587  
3189.000000	0.010533  
3188.000000	0.010370  
3187.000000	0.010180  
3186.000000	0.010044  
3185.000000	0.010006  
3184.000000	0.010064  
3183.000000	0.010186  
3182.000000	0.010319  
3181.000000	0.010395  
3180.000000	0.010368  
3179.000000	0.010240  
3178.000000	0.010059  
3177.000000	0.009888  
3176.000000	0.009767  
3175.000000	0.009712  
3174.000000	0.009721  
3173.000000	0.009773  
3172.000000	0.009829  
3171.000000	0.009837  
3170.000000	0.009753  
3169.000000	0.009572  
3168.000000	0.009365  
3167.000000	0.009256  
3166.000000	0.009328  
3165.000000	0.009530  
3164.000000	0.009703  
3163.000000	0.009712  
3162.000000	0.009553  
3161.000000	0.009319  
3160.000000	0.009097  
3159.000000	0.008916  
3158.000000	0.008765  
3157.000000	0.008642  
3156.000000	0.008571  
3155.000000	0.008577  
3154.000000	0.008663  
3153.000000	0.008787  
3152.000000	0.008878  
3151.000000	0.008888  
3150.000000	0.008821  
3149.000000	0.008732  
3148.000000	0.008683  
3147.000000	0.008705  
3146.000000	0.008763  
3145.000000	0.008771  
3144.000000	0.008662  
3143.000000	0.008460  
3142.000000	0.008276  
3141.000000	0.008208  
3140.000000	0.008249  
3139.000000	0.008309  
3138.000000	0.008320  
3137.000000	0.008297  
3136.000000	0.008299  
3135.000000	0.008339  
3134.000000	0.008368  
3133.000000	0.008327  
3132.000000	0.008222  
3131.000000	0.008127  
3130.000000	0.008096  
3129.000000	0.008112  
3128.000000	0.008126  
3127.000000	0.008125  
3126.000000	0.008134  
3125.000000	0.008157  
3124.000000	0.008149  
3123.000000	0.008075  
3122.000000	0.007966  
3121.000000	0.007883  
3120.000000	0.007864  
3119.000000	0.007896  
3118.000000	0.007939  
3117.000000	0.007954  
3116.000000	0.007921  
3115.000000	0.007857  
3114.000000	0.007805  
3113.000000	0.007790  
3112.000000	0.007793  
3111.000000	0.007781  
3110.000000	0.007732  
3109.000000	0.007642  
3108.000000	0.007527  
3107.000000	0.007433  
3106.000000	0.007406  
3105.000000	0.007429  
3104.000000	0.007412  
3103.000000	0.007293  
3102.000000	0.007135  
3101.000000	0.007075  
3100.000000	0.007170  
3099.000000	0.007331  
3098.000000	0.007427  
3097.000000	0.007413  
3096.000000	0.007347  
3095.000000	0.007313  
3094.000000	0.007337  
3093.000000	0.007387  
3092.000000	0.007418  
3091.000000	0.007419  
3090.000000	0.007406  
3089.000000	0.007382  
3088.000000	0.007328  
3087.000000	0.007232  
3086.000000	0.007119  
3085.000000	0.007030  
3084.000000	0.006983  
3083.000000	0.006958  
3082.000000	0.006927  
3081.000000	0.006872  
3080.000000	0.006801  
3079.000000	0.006750  
3078.000000	0.006768  
3077.000000	0.006872  
3076.000000	0.007020  
3075.000000	0.007149  
3074.000000	0.007224  
3073.000000	0.007244  
3072.000000	0.007213  
3071.000000	0.007140  
3070.000000	0.007057  
3069.000000	0.007007  
3068.000000	0.007010  
3067.000000	0.007044  
3066.000000	0.007063  
3065.000000	0.007028  
3064.000000	0.006936  
3063.000000	0.006828  
3062.000000	0.006771  
3061.000000	0.006801  
3060.000000	0.006884  
3059.000000	0.006956  
3058.000000	0.006984  
3057.000000	0.006976  
3056.000000	0.006941  
3055.000000	0.006879  
3054.000000	0.006814  
3053.000000	0.006808  
3052.000000	0.006900  
3051.000000	0.007068  
3050.000000	0.007251  
3049.000000	0.007387  
3048.000000	0.007433  
3047.000000	0.007386  
3046.000000	0.007285  
3045.000000	0.007200  
3044.000000	0.007180  
3043.000000	0.007223  
3042.000000	0.007288  
3041.000000	0.007338  
3040.000000	0.007353  
3039.000000	0.007345  
3038.000000	0.007360  
3037.000000	0.007445  
3036.000000	0.007590  
3035.000000	0.007734  
3034.000000	0.007832  
3033.000000	0.007904  
3032.000000	0.007989  
3031.000000	0.008077  
3030.000000	0.008133  
3029.000000	0.008174  
3028.000000	0.008275  
3027.000000	0.008490  
3026.000000	0.008782  
3025.000000	0.009049  
3024.000000	0.009221  
3023.000000	0.009329  
3022.000000	0.009481  
3021.000000	0.009781  
3020.000000	0.010259  
3019.000000	0.010859  
3018.000000	0.011486  
3017.000000	0.012066  
3016.000000	0.012564  
3015.000000	0.012984  
3014.000000	0.013352  
3013.000000	0.013702  
3012.000000	0.014042  
3011.000000	0.014341  
3010.000000	0.014545  
3009.000000	0.014617  
3008.000000	0.014566  
3007.000000	0.014428  
3006.000000	0.014233  
3005.000000	0.013988  
3004.000000	0.013697  
3003.000000	0.013384  
3002.000000	0.013089  
3001.000000	0.012839  
3000.000000	0.012640  
2999.000000	0.012495  
2998.000000	0.012424  
2997.000000	0.012445  
2996.000000	0.012544  
2995.000000	0.012681  
2994.000000	0.012829  
2993.000000	0.013004  
2992.000000	0.013246  
2991.000000	0.013585  
2990.000000	0.014035  
2989.000000	0.014599  
2988.000000	0.015261  
2987.000000	0.015991  
2986.000000	0.016755  
2985.000000	0.017549  
2984.000000	0.018404  
2983.000000	0.019369  
2982.000000	0.020481  
2981.000000	0.021750  
2980.000000	0.023177  
2979.000000	0.024770  
2978.000000	0.026544  
2977.000000	0.028511  
2976.000000	0.030686  
2975.000000	0.033133  
2974.000000	0.035966  
2973.000000	0.039270  
2972.000000	0.043019  
2971.000000	0.047090  
2970.000000	0.051388  
2969.000000	0.055930  
2968.000000	0.060796  
2967.000000	0.065990  
2966.000000	0.071373  
2965.000000	0.076723  
2964.000000	0.081848  
2963.000000	0.086651  
2962.000000	0.091125  
2961.000000	0.095313  
2960.000000	0.099231  
2959.000000	0.102778  
2958.000000	0.105733  
2957.000000	0.107848  
2956.000000	0.108979  
2955.000000	0.109128  
2954.000000	0.108416  
2953.000000	0.107049  
2952.000000	0.105286  
2951.000000	0.103358  
2950.000000	0.101411  
2949.000000	0.099543  
2948.000000	0.097882  
2947.000000	0.096615  
2946.000000	0.095926  
2945.000000	0.095935  
2944.000000	0.096706  
2943.000000	0.098273  
2942.000000	0.100634  
2941.000000	0.103749  
2940.000000	0.107564  
2939.000000	0.112056  
2938.000000	0.117203  
2937.000000	0.122897  
2936.000000	0.128933  
2935.000000	0.135112  
2934.000000	0.141357  
2933.000000	0.147724  
2932.000000	0.154275  
2931.000000	0.160951  
2930.000000	0.167560  
2929.000000	0.173880  
2928.000000	0.179748  
2927.000000	0.185045  
2926.000000	0.189616  
2925.000000	0.193249  
2924.000000	0.195712  
2923.000000	0.196805  
2922.000000	0.196437  
2921.000000	0.194694  
2920.000000	0.191822  
2919.000000	0.188100  
2918.000000	0.183729  
2917.000000	0.178852  
2916.000000	0.173637  
2915.000000	0.168276  
2914.000000	0.162927  
2913.000000	0.157693  
2912.000000	0.152647  
2911.000000	0.147849  
2910.000000	0.143337  
2909.000000	0.139110  
2908.000000	0.135135  
2907.000000	0.131359  
2906.000000	0.127719  
2905.000000	0.124163  
2904.000000	0.120663  
2903.000000	0.117223  
2902.000000	0.113876  
2901.000000	0.110657  
2900.000000	0.107558  
2899.000000	0.104525  
2898.000000	0.101510  
2897.000000	0.098517  
2896.000000	0.095577  
2895.000000	0.092702  
2894.000000	0.089889  
2893.000000	0.087157  
2892.000000	0.084533  
2891.000000	0.082013  
2890.000000	0.079562  
2889.000000	0.077184  
2888.000000	0.074954  
2887.000000	0.072980  
2886.000000	0.071347  
2885.000000	0.070114  
2884.000000	0.069329  
2883.000000	0.069041  
2882.000000	0.069298  
2881.000000	0.070145  
2880.000000	0.071598  
2879.000000	0.073627  
2878.000000	0.076156  
2877.000000	0.079064  
2876.000000	0.082166  
2875.000000	0.085179  
2874.000000	0.087771  
2873.000000	0.089707  
2872.000000	0.090949  
2871.000000	0.091640  
2870.000000	0.091993  
2869.000000	0.092200  
2868.000000	0.092425  
2867.000000	0.092836  
2866.000000	0.093621  
2865.000000	0.094967  
2864.000000	0.096997  
2863.000000	0.099723  
2862.000000	0.103076  
2861.000000	0.106934  
2860.000000	0.111106  
2859.000000	0.115304  
2858.000000	0.119218  
2857.000000	0.122632  
2856.000000	0.125400  
2855.000000	0.127275  
2854.000000	0.127845  
2853.000000	0.126740  
2852.000000	0.123879  
2851.000000	0.119501  
2850.000000	0.114001  
2849.000000	0.107792  
2848.000000	0.101252  
2847.000000	0.094678  
2846.000000	0.088250  
2845.000000	0.082049  
2844.000000	0.076114  
2843.000000	0.070459  
2842.000000	0.065080  
2841.000000	0.059993  
2840.000000	0.055258  
2839.000000	0.050949  
2838.000000	0.047100  
2837.000000	0.043697  
2836.000000	0.040713  
2835.000000	0.038114  
2834.000000	0.035835  
2833.000000	0.033791  
2832.000000	0.031927  
2831.000000	0.030226  
2830.000000	0.028684  
2829.000000	0.027280  
2828.000000	0.025997  
2827.000000	0.024824  
2826.000000	0.023739  
2825.000000	0.022708  
2824.000000	0.021712  
2823.000000	0.020785  
2822.000000	0.019966  
2821.000000	0.019257  
2820.000000	0.018617  
2819.000000	0.018018  
2818.000000	0.017464  
2817.000000	0.016963  
2816.000000	0.016499  
2815.000000	0.016047  
2814.000000	0.015610  
2813.000000	0.015208  
2812.000000	0.014841  
2811.000000	0.014482  
2810.000000	0.014108  
2809.000000	0.013731  
2808.000000	0.013392  
2807.000000	0.013117  
2806.000000	0.012896  
2805.000000	0.012695  
2804.000000	0.012488  
2803.000000	0.012270  
2802.000000	0.012030  
2801.000000	0.011751  
2800.000000	0.011443  
2799.000000	0.011160  
2798.000000	0.010972  
2797.000000	0.010897  
2796.000000	0.010890  
2795.000000	0.010893  
2794.000000	0.010877  
2793.000000	0.010842  
2792.000000	0.010789  
2791.000000	0.010709  
2790.000000	0.010597  
2789.000000	0.010459  
2788.000000	0.010301  
2787.000000	0.010130  
2786.000000	0.009963  
2785.000000	0.009825  
2784.000000	0.009730  
2783.000000	0.009651  
2782.000000	0.009537  
2781.000000	0.009348  
2780.000000	0.009096  
2779.000000	0.008837  
2778.000000	0.008631  
2777.000000	0.008499  
2776.000000	0.008410  
2775.000000	0.008312  
2774.000000	0.008177  
2773.000000	0.008016  
2772.000000	0.007860  
2771.000000	0.007724  
2770.000000	0.007600  
2769.000000	0.007476  
2768.000000	0.007352  
2767.000000	0.007229  
2766.000000	0.007109  
2765.000000	0.006999  
2764.000000	0.006918  
2763.000000	0.006880  
2762.000000	0.006873  
2761.000000	0.006873  
2760.000000	0.006865  
2759.000000	0.006847  
2758.000000	0.006812  
2757.000000	0.006752  
2756.000000	0.006680  
2755.000000	0.006615  
2754.000000	0.006542  
2753.000000	0.006418  
2752.000000	0.006238  
2751.000000	0.006064  
2750.000000	0.005968  
2749.000000	0.005949  
2748.000000	0.005944  
2747.000000	0.005903  
2746.000000	0.005837  
2745.000000	0.005789  
2744.000000	0.005780  
2743.000000	0.005808  
2742.000000	0.005863  
2741.000000	0.005939  
2740.000000	0.006027  
2739.000000	0.006112  
2738.000000	0.006175  
2737.000000	0.006199  
2736.000000	0.006195  
2735.000000	0.006196  
2734.000000	0.006231  
2733.000000	0.006290  
2732.000000	0.006334  
2731.000000	0.006339  
2730.000000	0.006315  
2729.000000	0.006280  
2728.000000	0.006238  
2727.000000	0.006182  
2726.000000	0.006111  
2725.000000	0.006039  
2724.000000	0.005987  
2723.000000	0.005981  
2722.000000	0.006023  
2721.000000	0.006075  
2720.000000	0.006089  
2719.000000	0.006059  
2718.000000	0.006014  
2717.000000	0.005971  
2716.000000	0.005911  
2715.000000	0.005810  
2714.000000	0.005680  
2713.000000	0.005556  
2712.000000	0.005454  
2711.000000	0.005365  
2710.000000	0.005285  
2709.000000	0.005214  
2708.000000	0.005155  
2707.000000	0.005107  
2706.000000	0.005073  
2705.000000	0.005048  
2704.000000	0.005019  
2703.000000	0.004981  
2702.000000	0.004956  
2701.000000	0.004955  
2700.000000	0.004954  
2699.000000	0.004919  
2698.000000	0.004854  
2697.000000	0.004805  
2696.000000	0.004809  
2695.000000	0.004848  
2694.000000	0.004888  
2693.000000	0.004916  
2692.000000	0.004951  
2691.000000	0.004997  
2690.000000	0.005023  
2689.000000	0.004999  
2688.000000	0.004943  
2687.000000	0.004899  
2686.000000	0.004887  
2685.000000	0.004877  
2684.000000	0.004850  
2683.000000	0.004831  
2682.000000	0.004854  
2681.000000	0.004898  
2680.000000	0.004902  
2679.000000	0.004846  
2678.000000	0.004778  
2677.000000	0.004752  
2676.000000	0.004784  
2675.000000	0.004857  
2674.000000	0.004949  
2673.000000	0.005028  
2672.000000	0.005048  
2671.000000	0.004991  
2670.000000	0.004892  
2669.000000	0.004816  
2668.000000	0.004792  
2667.000000	0.004803  
2666.000000	0.004812  
2665.000000	0.004786  
2664.000000	0.004711  
2663.000000	0.004606  
2662.000000	0.004505  
2661.000000	0.004429  
2660.000000	0.004373  
2659.000000	0.004334  
2658.000000	0.004335  
2657.000000	0.004382  
2656.000000	0.004427  
2655.000000	0.004402  
2654.000000	0.004290  
2653.000000	0.004143  
2652.000000	0.004033  
2651.000000	0.003987  
2650.000000	0.003985  
2649.000000	0.003977  
2648.000000	0.003923  
2647.000000	0.003830  
2646.000000	0.003753  
2645.000000	0.003745  
2644.000000	0.003792  
2643.000000	0.003839  
2642.000000	0.003850  
2641.000000	0.003840  
2640.000000	0.003824  
2639.000000	0.003792  
2638.000000	0.003728  
2637.000000	0.003631  
2636.000000	0.003526  
2635.000000	0.003438  
2634.000000	0.003393  
2633.000000	0.003392  
2632.000000	0.003411  
2631.000000	0.003406  
2630.000000	0.003361  
2629.000000	0.003298  
2628.000000	0.003265  
2627.000000	0.003295  
2626.000000	0.003390  
2625.000000	0.003500  
2624.000000	0.003549  
2623.000000	0.003491  
2622.000000	0.003371  
2621.000000	0.003288  
2620.000000	0.003308  
2619.000000	0.003404  
2618.000000	0.003494  
2617.000000	0.003516  
2616.000000	0.003457  
2615.000000	0.003346  
2614.000000	0.003229  
2613.000000	0.003125  
2612.000000	0.003021  
2611.000000	0.002903  
2610.000000	0.002805  
2609.000000	0.002790  
2608.000000	0.002887  
2607.000000	0.003052  
2606.000000	0.003202  
2605.000000	0.003264  
2604.000000	0.003212  
2603.000000	0.003076  
2602.000000	0.002931  
2601.000000	0.002841  
2600.000000	0.002794  
2599.000000	0.002721  
2598.000000	0.002587  
2597.000000	0.002450  
2596.000000	0.002397  
2595.000000	0.002445  
2594.000000	0.002539  
2593.000000	0.002617  
2592.000000	0.002673  
2591.000000	0.002733  
2590.000000	0.002816  
2589.000000	0.002908  
2588.000000	0.002969  
2587.000000	0.002955  
2586.000000	0.002851  
2585.000000	0.002696  
2584.000000	0.002557  
2583.000000	0.002464  
2582.000000	0.002391  
2581.000000	0.002294  
2580.000000	0.002186  
2579.000000	0.002132  
2578.000000	0.002167  
2577.000000	0.002247  
2576.000000	0.002293  
2575.000000	0.002286  
2574.000000	0.002281  
2573.000000	0.002322  
2572.000000	0.002372  
2571.000000	0.002356  
2570.000000	0.002250  
2569.000000	0.002104  
2568.000000	0.001979  
2567.000000	0.001888  
2566.000000	0.001817  
2565.000000	0.001762  
2564.000000	0.001727  
2563.000000	0.001698  
2562.000000	0.001642  
2561.000000	0.001560  
2560.000000	0.001521  
2559.000000	0.001613  
2558.000000	0.001838  
2557.000000	0.002091  
2556.000000	0.002246  
2555.000000	0.002254  
2554.000000	0.002153  
2553.000000	0.001994  
2552.000000	0.001814  
2551.000000	0.001660  
2550.000000	0.001567  
2549.000000	0.001521  
2548.000000	0.001472  
2547.000000	0.001420  
2546.000000	0.001431  
2545.000000	0.001534  
2544.000000	0.001654  
2543.000000	0.001703  
2542.000000	0.001683  
2541.000000	0.001671  
2540.000000	0.001702  
2539.000000	0.001744  
2538.000000	0.001762  
2537.000000	0.001759  
2536.000000	0.001733  
2535.000000	0.001668  
2534.000000	0.001553  
2533.000000	0.001404  
2532.000000	0.001243  
2531.000000	0.001101  
2530.000000	0.001044  
2529.000000	0.001131  
2528.000000	0.001332  
2527.000000	0.001526  
2526.000000	0.001606  
2525.000000	0.001570  
2524.000000	0.001489  
2523.000000	0.001427  
2522.000000	0.001408  
2521.000000	0.001437  
2520.000000	0.001491  
2519.000000	0.001531  
2518.000000	0.001538  
2517.000000	0.001550  
2516.000000	0.001611  
2515.000000	0.001694  
2514.000000	0.001712  
2513.000000	0.001614  
2512.000000	0.001444  
2511.000000	0.001277  
2510.000000	0.001159  
2509.000000	0.001106  
2508.000000	0.001139  
2507.000000	0.001260  
2506.000000	0.001405  
2505.000000	0.001474  
2504.000000	0.001432  
2503.000000	0.001351  
2502.000000	0.001335  
2501.000000	0.001439  
2500.000000	0.001642  
2499.000000	0.001867  
2498.000000	0.002010  
2497.000000	0.001989  
2496.000000	0.001830  
2495.000000	0.001654  
2494.000000	0.001561  
2493.000000	0.001529  
2492.000000	0.001479  
2491.000000	0.001409  
2490.000000	0.001396  
2489.000000	0.001479  
2488.000000	0.001601  
2487.000000	0.001683  
2486.000000	0.001693  
2485.000000	0.001634  
2484.000000	0.001519  
2483.000000	0.001389  
2482.000000	0.001310  
2481.000000	0.001307  
2480.000000	0.001337  
2479.000000	0.001343  
2478.000000	0.001295  
2477.000000	0.001179  
2476.000000	0.000976  
2475.000000	0.000717  
2474.000000	0.000502  
2473.000000	0.000436  
2472.000000	0.000525  
2471.000000	0.000677  
2470.000000	0.000777  
2469.000000	0.000775  
2468.000000	0.000707  
2467.000000	0.000651  
2466.000000	0.000651  
2465.000000	0.000673  
2464.000000	0.000664  
2463.000000	0.000645  
2462.000000	0.000684  
2461.000000	0.000769  
2460.000000	0.000791  
2459.000000	0.000683  
2458.000000	0.000519  
2457.000000	0.000419  
2456.000000	0.000404  
2455.000000	0.000413  
2454.000000	0.000417  
2453.000000	0.000448  
2452.000000	0.000531  
2451.000000	0.000655  
2450.000000	0.000802  
2449.000000	0.000942  
2448.000000	0.001002  
2447.000000	0.000910  
2446.000000	0.000689  
2445.000000	0.000456  
2444.000000	0.000337  
2443.000000	0.000382  
2442.000000	0.000555  
2441.000000	0.000755  
2440.000000	0.000863  
2439.000000	0.000837  
2438.000000	0.000749  
2437.000000	0.000715  
2436.000000	0.000766  
2435.000000	0.000833  
2434.000000	0.000848  
2433.000000	0.000817  
2432.000000	0.000802  
2431.000000	0.000867  
2430.000000	0.001029  
2429.000000	0.001229  
2428.000000	0.001337  
2427.000000	0.001256  
2426.000000	0.001021  
2425.000000	0.000791  
2424.000000	0.000696  
2423.000000	0.000731  
2422.000000	0.000794  
2421.000000	0.000802  
2420.000000	0.000751  
2419.000000	0.000694  
2418.000000	0.000691  
2417.000000	0.000769  
2416.000000	0.000895  
2415.000000	0.001000  
2414.000000	0.001035  
2413.000000	0.001019  
2412.000000	0.001003  
2411.000000	0.001002  
2410.000000	0.000971  
2409.000000	0.000868  
2408.000000	0.000717  
2407.000000	0.000586  
2406.000000	0.000498  
2405.000000	0.000417  
2404.000000	0.000330  
2403.000000	0.000304  
2402.000000	0.000400  
2401.000000	0.000566  
2400.000000	0.000673  
2399.000000	0.000657  
2398.000000	0.000580  
2397.000000	0.000536  
2396.000000	0.000561  
2395.000000	0.000639  
2394.000000	0.000742  
2393.000000	0.000829  
2392.000000	0.000860  
2391.000000	0.000841  
2390.000000	0.000815  
2389.000000	0.000787  
2388.000000	0.000716  
2387.000000	0.000600  
2386.000000	0.000510  
2385.000000	0.000507  
2384.000000	0.000573  
2383.000000	0.000674  
2382.000000	0.000837  
2381.000000	0.001079  
2380.000000	0.001302  
2379.000000	0.001361  
2378.000000	0.001242  
2377.000000	0.001054  
2376.000000	0.000850  
2375.000000	0.000575  
2374.000000	0.000272  
2373.000000	0.000145  
2372.000000	0.000305  
2371.000000	0.000581  
2370.000000	0.000756  
2369.000000	0.000859  
2368.000000	0.001058  
2367.000000	0.001360  
2366.000000	0.001572  
2365.000000	0.001446  
2364.000000	0.000833  
2363.000000	-0.000142 
2362.000000	-0.001014 
2361.000000	-0.001202 
2360.000000	-0.000606 
2359.000000	0.000238  
2358.000000	0.000773  
2357.000000	0.000839  
2356.000000	0.000632  
2355.000000	0.000434  
2354.000000	0.000414  
2353.000000	0.000481  
2352.000000	0.000364  
2351.000000	0.000061  
2350.000000	-0.000128 
2349.000000	0.000054  
2348.000000	0.000532  
2347.000000	0.000848  
2346.000000	0.000684  
2345.000000	0.000198  
2344.000000	-0.000221 
2343.000000	-0.000480 
2342.000000	-0.000628 
2341.000000	-0.000538 
2340.000000	-0.000201 
2339.000000	0.000196  
2338.000000	0.000481  
2337.000000	0.000654  
2336.000000	0.000732  
2335.000000	0.000687  
2334.000000	0.000526  
2333.000000	0.000347  
2332.000000	0.000188  
2331.000000	0.000076  
2330.000000	0.000041  
2329.000000	0.000091  
2328.000000	0.000174  
2327.000000	0.000146  
2326.000000	0.000019  
2325.000000	-0.000115 
2324.000000	-0.000128 
2323.000000	-0.000020 
2322.000000	0.000106  
2321.000000	0.000165  
2320.000000	0.000083  
2319.000000	-0.000114 
2318.000000	-0.000356 
2317.000000	-0.000496 
2316.000000	-0.000449 
2315.000000	-0.000251 
2314.000000	-0.000053 
2313.000000	0.000005  
2312.000000	-0.000088 
2311.000000	-0.000223 
2310.000000	-0.000277 
2309.000000	-0.000243 
2308.000000	-0.000197 
2307.000000	-0.000197 
2306.000000	-0.000216 
2305.000000	-0.000216 
2304.000000	-0.000207 
2303.000000	-0.000216 
2302.000000	-0.000229 
2301.000000	-0.000211 
2300.000000	-0.000149 
2299.000000	-0.000080 
2298.000000	-0.000059 
2297.000000	-0.000134 
2296.000000	-0.000284 
2295.000000	-0.000403 
2294.000000	-0.000356 
2293.000000	-0.000150 
2292.000000	0.000033  
2291.000000	0.000014  
2290.000000	-0.000184 
2289.000000	-0.000379 
2288.000000	-0.000444 
2287.000000	-0.000418 
2286.000000	-0.000397 
2285.000000	-0.000407 
2284.000000	-0.000405 
2283.000000	-0.000348 
2282.000000	-0.000237 
2281.000000	-0.000115 
2280.000000	-0.000040 
2279.000000	-0.000023 
2278.000000	-0.000008 
2277.000000	0.000059  
2276.000000	0.000138  
2275.000000	0.000146  
2274.000000	0.000074  
2273.000000	-0.000015 
2272.000000	-0.000100 
2271.000000	-0.000222 
2270.000000	-0.000359 
2269.000000	-0.000380 
2268.000000	-0.000181 
2267.000000	0.000172  
2266.000000	0.000489  
2265.000000	0.000592  
2264.000000	0.000405  
2263.000000	-0.000020 
2262.000000	-0.000518 
2261.000000	-0.000859 
2260.000000	-0.000890 
2259.000000	-0.000646 
2258.000000	-0.000330 
2257.000000	-0.000170 
2256.000000	-0.000260 
2255.000000	-0.000477 
2254.000000	-0.000581 
2253.000000	-0.000424 
2252.000000	-0.000094 
2251.000000	0.000179  
2250.000000	0.000233  
2249.000000	0.000084  
2248.000000	-0.000124 
2247.000000	-0.000245 
2246.000000	-0.000216 
2245.000000	-0.000081 
2244.000000	0.000056  
2243.000000	0.000146  
2242.000000	0.000210  
2241.000000	0.000257  
2240.000000	0.000242  
2239.000000	0.000168  
2238.000000	0.000133  
2237.000000	0.000182  
2236.000000	0.000181  
2235.000000	-0.000032 
2234.000000	-0.000388 
2233.000000	-0.000608 
2232.000000	-0.000499 
2231.000000	-0.000127 
2230.000000	0.000275  
2229.000000	0.000483  
2228.000000	0.000381  
2227.000000	0.000035  
2226.000000	-0.000309 
2225.000000	-0.000408 
2224.000000	-0.000245 
2223.000000	0.000001  
2222.000000	0.000185  
2221.000000	0.000264  
2220.000000	0.000206  
2219.000000	-0.000019 
2218.000000	-0.000318 
2217.000000	-0.000491 
2216.000000	-0.000434 
2215.000000	-0.000214 
2214.000000	0.000058  
2213.000000	0.000315  
2212.000000	0.000476  
2211.000000	0.000477  
2210.000000	0.000411  
2209.000000	0.000482  
2208.000000	0.000739  
2207.000000	0.000974  
2206.000000	0.000994  
2205.000000	0.000852  
2204.000000	0.000742  
2203.000000	0.000739  
2202.000000	0.000767  
2201.000000	0.000726  
2200.000000	0.000564  
2199.000000	0.000287  
2198.000000	-0.000006 
2197.000000	-0.000159 
2196.000000	-0.000101 
2195.000000	0.000082  
2194.000000	0.000272  
2193.000000	0.000416  
2192.000000	0.000489  
2191.000000	0.000433  
2190.000000	0.000215  
2189.000000	-0.000116 
2188.000000	-0.000484 
2187.000000	-0.000814 
2186.000000	-0.000994 
2185.000000	-0.000911 
2184.000000	-0.000623 
2183.000000	-0.000374 
2182.000000	-0.000337 
2181.000000	-0.000427 
2180.000000	-0.000435 
2179.000000	-0.000266 
2178.000000	0.000027  
2177.000000	0.000316  
2176.000000	0.000434  
2175.000000	0.000276  
2174.000000	-0.000042 
2173.000000	-0.000229 
2172.000000	-0.000145 
2171.000000	-0.000000 
2170.000000	-0.000069 
2169.000000	-0.000289 
2168.000000	-0.000313 
2167.000000	0.000041  
2166.000000	0.000594  
2165.000000	0.001078  
2164.000000	0.001437  
2163.000000	0.001707  
2162.000000	0.001770  
2161.000000	0.001437  
2160.000000	0.000791  
2159.000000	0.000220  
2158.000000	0.000001  
2157.000000	0.000017  
2156.000000	-0.000012 
2155.000000	-0.000197 
2154.000000	-0.000441 
2153.000000	-0.000618 
2152.000000	-0.000688 
2151.000000	-0.000694 
2150.000000	-0.000750 
2149.000000	-0.000946 
2148.000000	-0.001192 
2147.000000	-0.001193 
2146.000000	-0.000756 
2145.000000	-0.000088 
2144.000000	0.000376  
2143.000000	0.000462  
2142.000000	0.000371  
2141.000000	0.000339  
2140.000000	0.000353  
2139.000000	0.000300  
2138.000000	0.000194  
2137.000000	0.000099  
2136.000000	-0.000017 
2135.000000	-0.000200 
2134.000000	-0.000353 
2133.000000	-0.000356 
2132.000000	-0.000240 
2131.000000	-0.000124 
2130.000000	-0.000058 
2129.000000	-0.000033 
2128.000000	-0.000081 
2127.000000	-0.000216 
2126.000000	-0.000315 
2125.000000	-0.000225 
2124.000000	0.000030  
2123.000000	0.000269  
2122.000000	0.000362  
2121.000000	0.000324  
2120.000000	0.000217  
2119.000000	0.000090  
2118.000000	0.000011  
2117.000000	0.000040  
2116.000000	0.000137  
2115.000000	0.000199  
2114.000000	0.000192  
2113.000000	0.000156  
2112.000000	0.000082  
2111.000000	-0.000080 
2110.000000	-0.000290 
2109.000000	-0.000423 
2108.000000	-0.000439 
2107.000000	-0.000429 
2106.000000	-0.000457 
2105.000000	-0.000486 
2104.000000	-0.000494 
2103.000000	-0.000521 
2102.000000	-0.000555 
2101.000000	-0.000505 
2100.000000	-0.000363 
2099.000000	-0.000270 
2098.000000	-0.000318 
2097.000000	-0.000395 
2096.000000	-0.000321 
2095.000000	-0.000059 
2094.000000	0.000280  
2093.000000	0.000565  
2092.000000	0.000692  
2091.000000	0.000602  
2090.000000	0.000345  
2089.000000	0.000080  
2088.000000	-0.000079 
2087.000000	-0.000144 
2086.000000	-0.000148 
2085.000000	-0.000064 
2084.000000	0.000104  
2083.000000	0.000225  
2082.000000	0.000156  
2081.000000	-0.000069 
2080.000000	-0.000268 
2079.000000	-0.000307 
2078.000000	-0.000199 
2077.000000	-0.000047 
2076.000000	0.000050  
2075.000000	0.000045  
2074.000000	-0.000039 
2073.000000	-0.000128 
2072.000000	-0.000179 
2071.000000	-0.000223 
2070.000000	-0.000308 
2069.000000	-0.000428 
2068.000000	-0.000539 
2067.000000	-0.000601 
2066.000000	-0.000581 
2065.000000	-0.000460 
2064.000000	-0.000274 
2063.000000	-0.000096 
2062.000000	0.000026  
2061.000000	0.000092  
2060.000000	0.000096  
2059.000000	0.000043  
2058.000000	0.000009  
2057.000000	0.000089  
2056.000000	0.000260  
2055.000000	0.000368  
2054.000000	0.000296  
2053.000000	0.000079  
2052.000000	-0.000160 
2051.000000	-0.000306 
2050.000000	-0.000269 
2049.000000	-0.000044 
2048.000000	0.000199  
2047.000000	0.000251  
2046.000000	0.000119  
2045.000000	0.000045  
2044.000000	0.000184  
2043.000000	0.000428  
2042.000000	0.000599  
2041.000000	0.000693  
2040.000000	0.000782  
2039.000000	0.000836  
2038.000000	0.000771  
2037.000000	0.000604  
2036.000000	0.000420  
2035.000000	0.000283  
2034.000000	0.000252  
2033.000000	0.000388  
2032.000000	0.000617  
2031.000000	0.000698  
2030.000000	0.000457  
2029.000000	0.000008  
2028.000000	-0.000356 
2027.000000	-0.000413 
2026.000000	-0.000102 
2025.000000	0.000479  
2024.000000	0.001083  
2023.000000	0.001438  
2022.000000	0.001483  
2021.000000	0.001368  
2020.000000	0.001188  
2019.000000	0.000827  
2018.000000	0.000192  
2017.000000	-0.000522 
2016.000000	-0.000978 
2015.000000	-0.001025 
2014.000000	-0.000741 
2013.000000	-0.000310 
2012.000000	0.000018  
2011.000000	0.000042  
2010.000000	-0.000190 
2009.000000	-0.000396 
2008.000000	-0.000375 
2007.000000	-0.000204 
2006.000000	-0.000012 
2005.000000	0.000216  
2004.000000	0.000469  
2003.000000	0.000529  
2002.000000	0.000231  
2001.000000	-0.000232 
2000.000000	-0.000447 
1999.000000	-0.000251 
1998.000000	0.000114  
1997.000000	0.000295  
1996.000000	0.000145  
1995.000000	-0.000228 
1994.000000	-0.000548 
1993.000000	-0.000489 
1992.000000	0.000036  
1991.000000	0.000671  
1990.000000	0.000919  
1989.000000	0.000631  
1988.000000	0.000076  
1987.000000	-0.000404 
1986.000000	-0.000718 
1985.000000	-0.000959 
1984.000000	-0.001167 
1983.000000	-0.001248 
1982.000000	-0.001131 
1981.000000	-0.000891 
1980.000000	-0.000678 
1979.000000	-0.000552 
1978.000000	-0.000472 
1977.000000	-0.000419 
1976.000000	-0.000467 
1975.000000	-0.000637 
1974.000000	-0.000787 
1973.000000	-0.000769 
1972.000000	-0.000649 
1971.000000	-0.000624 
1970.000000	-0.000727 
1969.000000	-0.000745 
1968.000000	-0.000489 
1967.000000	-0.000059 
1966.000000	0.000282  
1965.000000	0.000435  
1964.000000	0.000481  
1963.000000	0.000506  
1962.000000	0.000526  
1961.000000	0.000527  
1960.000000	0.000504  
1959.000000	0.000470  
1958.000000	0.000472  
1957.000000	0.000533  
1956.000000	0.000574  
1955.000000	0.000483  
1954.000000	0.000300  
1953.000000	0.000207  
1952.000000	0.000262  
1951.000000	0.000256  
1950.000000	-0.000012 
1949.000000	-0.000411 
1948.000000	-0.000565 
1947.000000	-0.000289 
1946.000000	0.000193  
1945.000000	0.000512  
1944.000000	0.000515  
1943.000000	0.000321  
1942.000000	0.000108  
1941.000000	-0.000048 
1940.000000	-0.000109 
1939.000000	-0.000025 
1938.000000	0.000176  
1937.000000	0.000338  
1936.000000	0.000309  
1935.000000	0.000131  
1934.000000	-0.000012 
1933.000000	-0.000025 
1932.000000	-0.000007 
1931.000000	-0.000083 
1930.000000	-0.000216 
1929.000000	-0.000284 
1928.000000	-0.000257 
1927.000000	-0.000215 
1926.000000	-0.000218 
1925.000000	-0.000238 
1924.000000	-0.000222 
1923.000000	-0.000158 
1922.000000	-0.000077 
1921.000000	-0.000012 
1920.000000	0.000038  
1919.000000	0.000104  
1918.000000	0.000226  
1917.000000	0.000361  
1916.000000	0.000401  
1915.000000	0.000310  
1914.000000	0.000179  
1913.000000	0.000138  
1912.000000	0.000235  
1911.000000	0.000406  
1910.000000	0.000569  
1909.000000	0.000672  
1908.000000	0.000673  
1907.000000	0.000546  
1906.000000	0.000334  
1905.000000	0.000150  
1904.000000	0.000077  
1903.000000	0.000126  
1902.000000	0.000236  
1901.000000	0.000310  
1900.000000	0.000284  
1899.000000	0.000180  
1898.000000	0.000108  
1897.000000	0.000142  
1896.000000	0.000220  
1895.000000	0.000235  
1894.000000	0.000194  
1893.000000	0.000203  
1892.000000	0.000308  
1891.000000	0.000446  
1890.000000	0.000527  
1889.000000	0.000512  
1888.000000	0.000421  
1887.000000	0.000305  
1886.000000	0.000226  
1885.000000	0.000213  
1884.000000	0.000215  
1883.000000	0.000165  
1882.000000	0.000088  
1881.000000	0.000071  
1880.000000	0.000133  
1879.000000	0.000206  
1878.000000	0.000246  
1877.000000	0.000283  
1876.000000	0.000328  
1875.000000	0.000332  
1874.000000	0.000276  
1873.000000	0.000211  
1872.000000	0.000169  
1871.000000	0.000114  
1870.000000	0.000023  
1869.000000	-0.000007 
1868.000000	0.000100  
1867.000000	0.000253  
1866.000000	0.000344  
1865.000000	0.000358  
1864.000000	0.000319  
1863.000000	0.000255  
1862.000000	0.000200  
1861.000000	0.000171  
1860.000000	0.000131  
1859.000000	0.000031  
1858.000000	-0.000098 
1857.000000	-0.000154 
1856.000000	-0.000082 
1855.000000	0.000069  
1854.000000	0.000235  
1853.000000	0.000371  
1852.000000	0.000442  
1851.000000	0.000417  
1850.000000	0.000319  
1849.000000	0.000247  
1848.000000	0.000263  
1847.000000	0.000293  
1846.000000	0.000216  
1845.000000	0.000047  
1844.000000	-0.000043 
1843.000000	0.000009  
1842.000000	0.000107  
1841.000000	0.000168  
1840.000000	0.000162  
1839.000000	0.000096  
1838.000000	0.000024  
1837.000000	0.000017  
1836.000000	0.000085  
1835.000000	0.000159  
1834.000000	0.000176  
1833.000000	0.000140  
1832.000000	0.000096  
1831.000000	0.000066  
1830.000000	0.000058  
1829.000000	0.000061  
1828.000000	0.000038  
1827.000000	-0.000017 
1826.000000	-0.000080 
1825.000000	-0.000084 
1824.000000	-0.000014 
1823.000000	0.000059  
1822.000000	0.000075  
1821.000000	0.000036  
1820.000000	-0.000018 
1819.000000	-0.000045 
1818.000000	0.000008  
1817.000000	0.000158  
1816.000000	0.000313  
1815.000000	0.000368  
1814.000000	0.000328  
1813.000000	0.000296  
1812.000000	0.000330  
1811.000000	0.000363  
1810.000000	0.000340  
1809.000000	0.000304  
1808.000000	0.000289  
1807.000000	0.000265  
1806.000000	0.000223  
1805.000000	0.000226  
1804.000000	0.000333  
1803.000000	0.000533  
1802.000000	0.000747  
1801.000000	0.000905  
1800.000000	0.000956  
1799.000000	0.000880  
1798.000000	0.000739  
1797.000000	0.000646  
1796.000000	0.000652  
1795.000000	0.000690  
1794.000000	0.000673  
1793.000000	0.000661  
1792.000000	0.000771  
1791.000000	0.000931  
1790.000000	0.001013  
1789.000000	0.001017  
1788.000000	0.000979  
1787.000000	0.000920  
1786.000000	0.000886  
1785.000000	0.000948  
1784.000000	0.001096  
1783.000000	0.001238  
1782.000000	0.001278  
1781.000000	0.001257  
1780.000000	0.001288  
1779.000000	0.001371  
1778.000000	0.001433  
1777.000000	0.001469  
1776.000000	0.001545  
1775.000000	0.001680  
1774.000000	0.001786  
1773.000000	0.001825  
1772.000000	0.001900  
1771.000000	0.001981  
1770.000000	0.002012  
1769.000000	0.002094  
1768.000000	0.002317  
1767.000000	0.002621  
1766.000000	0.002890  
1765.000000	0.003106  
1764.000000	0.003310  
1763.000000	0.003519  
1762.000000	0.003732  
1761.000000	0.004003  
1760.000000	0.004375  
1759.000000	0.004835  
1758.000000	0.005394  
1757.000000	0.006118  
1756.000000	0.006989  
1755.000000	0.007852  
1754.000000	0.008689  
1753.000000	0.009773  
1752.000000	0.011551  
1751.000000	0.014308  
1750.000000	0.018099  
1749.000000	0.022995  
1748.000000	0.028698  
1747.000000	0.034455  
1746.000000	0.040053  
1745.000000	0.045950  
1744.000000	0.052088  
1743.000000	0.057379  
1742.000000	0.060856  
1741.000000	0.062315  
1740.000000	0.061643  
1739.000000	0.059133  
1738.000000	0.055909  
1737.000000	0.052635  
1736.000000	0.048646  
1735.000000	0.042534  
1734.000000	0.035127  
1733.000000	0.029806  
1732.000000	0.026859  
1731.000000	0.024713  
1730.000000	0.022759  
1729.000000	0.021061  
1728.000000	0.019713  
1727.000000	0.018669  
1726.000000	0.017842  
1725.000000	0.017140  
1724.000000	0.016451  
1723.000000	0.015750  
1722.000000	0.015123  
1721.000000	0.014595  
1720.000000	0.014027  
1719.000000	0.013181  
1718.000000	0.012079  
1717.000000	0.011128  
1716.000000	0.010382  
1715.000000	0.009663  
1714.000000	0.009007  
1713.000000	0.008452  
1712.000000	0.007914  
1711.000000	0.007328  
1710.000000	0.006739  
1709.000000	0.006241  
1708.000000	0.005852  
1707.000000	0.005483  
1706.000000	0.005110  
1705.000000	0.004831  
1704.000000	0.004683  
1703.000000	0.004640  
1702.000000	0.004658  
1701.000000	0.004630  
1700.000000	0.004520  
1699.000000	0.004424  
1698.000000	0.004434  
1697.000000	0.004444  
1696.000000	0.004265  
1695.000000	0.003958  
1694.000000	0.003767  
1693.000000	0.003732  
1692.000000	0.003711  
1691.000000	0.003606  
1690.000000	0.003464  
1689.000000	0.003378  
1688.000000	0.003382  
1687.000000	0.003428  
1686.000000	0.003442  
1685.000000	0.003412  
1684.000000	0.003536  
1683.000000	0.003759  
1682.000000	0.003952  
1681.000000	0.004055  
1680.000000	0.004003  
1679.000000	0.003861  
1678.000000	0.003763  
1677.000000	0.003751  
1676.000000	0.003762  
1675.000000	0.003769  
1674.000000	0.003800  
1673.000000	0.003876  
1672.000000	0.003951  
1671.000000	0.004001  
1670.000000	0.004134  
1669.000000	0.004388  
1668.000000	0.004630  
1667.000000	0.004821  
1666.000000	0.004994  
1665.000000	0.005158  
1664.000000	0.005298  
1663.000000	0.005480  
1662.000000	0.005763  
1661.000000	0.006055  
1660.000000	0.006266  
1659.000000	0.006386  
1658.000000	0.006453  
1657.000000	0.006518  
1656.000000	0.006625  
1655.000000	0.006720  
1654.000000	0.006807  
1653.000000	0.007191  
1652.000000	0.007473  
1651.000000	0.007579  
1650.000000	0.007701  
1649.000000	0.007821  
1648.000000	0.007890  
1647.000000	0.008020  
1646.000000	0.008243  
1645.000000	0.008394  
1644.000000	0.008454  
1643.000000	0.008471  
1642.000000	0.008498  
1641.000000	0.008564  
1640.000000	0.008649  
1639.000000	0.008721  
1638.000000	0.008784  
1637.000000	0.008849  
1636.000000	0.008884  
1635.000000	0.008786  
1634.000000	0.008623  
1633.000000	0.008556  
1632.000000	0.008540  
1631.000000	0.008485  
1630.000000	0.008374  
1629.000000	0.008230  
1628.000000	0.008059  
1627.000000	0.007863  
1626.000000	0.007668  
1625.000000	0.007493  
1624.000000	0.007311  
1623.000000	0.007106  
1622.000000	0.006886  
1621.000000	0.006679  
1620.000000	0.006518  
1619.000000	0.006380  
1618.000000	0.006224  
1617.000000	0.006050  
1616.000000	0.005886  
1615.000000	0.005739  
1614.000000	0.005650  
1613.000000	0.005602  
1612.000000	0.005531  
1611.000000	0.005425  
1610.000000	0.005326  
1609.000000	0.005248  
1608.000000	0.005161  
1607.000000	0.005058  
1606.000000	0.004959  
1605.000000	0.004863  
1604.000000	0.004763  
1603.000000	0.004663  
1602.000000	0.004580  
1601.000000	0.004506  
1600.000000	0.004406  
1599.000000	0.004284  
1598.000000	0.004189  
1597.000000	0.004176  
1596.000000	0.004246  
1595.000000	0.004361  
1594.000000	0.004473  
1593.000000	0.004555  
1592.000000	0.004614  
1591.000000	0.004691  
1590.000000	0.004825  
1589.000000	0.004997  
1588.000000	0.005160  
1587.000000	0.005308  
1586.000000	0.005483  
1585.000000	0.005686  
1584.000000	0.005881  
1583.000000	0.006043  
1582.000000	0.006173  
1581.000000	0.006285  
1580.000000	0.006399  
1579.000000	0.006531  
1578.000000	0.006672  
1577.000000	0.006831  
1576.000000	0.007014  
1575.000000	0.007134  
1574.000000	0.007179  
1573.000000	0.007221  
1572.000000	0.007264  
1571.000000	0.007298  
1570.000000	0.007395  
1569.000000	0.007559  
1568.000000	0.007672  
1567.000000	0.007705  
1566.000000	0.007691  
1565.000000	0.007611  
1564.000000	0.007463  
1563.000000	0.007277  
1562.000000	0.007159  
1561.000000	0.007156  
1560.000000	0.007072  
1559.000000	0.006625  
1558.000000	0.006191  
1557.000000	0.005977  
1556.000000	0.005910  
1555.000000	0.005808  
1554.000000	0.005594  
1553.000000	0.005363  
1552.000000	0.005194  
1551.000000	0.005084  
1550.000000	0.005026  
1549.000000	0.004993  
1548.000000	0.004920  
1547.000000	0.004780  
1546.000000	0.004626  
1545.000000	0.004549  
1544.000000	0.004534  
1543.000000	0.004473  
1542.000000	0.004387  
1541.000000	0.004545  
1540.000000	0.004854  
1539.000000	0.004741  
1538.000000	0.004412  
1537.000000	0.004257  
1536.000000	0.004244  
1535.000000	0.004250  
1534.000000	0.004258  
1533.000000	0.004351  
1532.000000	0.004435  
1531.000000	0.004400  
1530.000000	0.004272  
1529.000000	0.004117  
1528.000000	0.003989  
1527.000000	0.003909  
1526.000000	0.003907  
1525.000000	0.004006  
1524.000000	0.004137  
1523.000000	0.004178  
1522.000000	0.004168  
1521.000000	0.004243  
1520.000000	0.004310  
1519.000000	0.004320  
1518.000000	0.004354  
1517.000000	0.004498  
1516.000000	0.004668  
1515.000000	0.004736  
1514.000000	0.004772  
1513.000000	0.004871  
1512.000000	0.005010  
1511.000000	0.005124  
1510.000000	0.005298  
1509.000000	0.005727  
1508.000000	0.006446  
1507.000000	0.006922  
1506.000000	0.006832  
1505.000000	0.006696  
1504.000000	0.006768  
1503.000000	0.006907  
1502.000000	0.007054  
1501.000000	0.007205  
1500.000000	0.007310  
1499.000000	0.007303  
1498.000000	0.007343  
1497.000000	0.007727  
1496.000000	0.008280  
1495.000000	0.008582  
1494.000000	0.008666  
1493.000000	0.008752  
1492.000000	0.008910  
1491.000000	0.009173  
1490.000000	0.009686  
1489.000000	0.010427  
1488.000000	0.011034  
1487.000000	0.011391  
1486.000000	0.011745  
1485.000000	0.012252  
1484.000000	0.012891  
1483.000000	0.013682  
1482.000000	0.014781  
1481.000000	0.016178  
1480.000000	0.017547  
1479.000000	0.018717  
1478.000000	0.019964  
1477.000000	0.021618  
1476.000000	0.023593  
1475.000000	0.025816  
1474.000000	0.029351  
1473.000000	0.035739  
1472.000000	0.043689  
1471.000000	0.050529  
1470.000000	0.056179  
1469.000000	0.061386  
1468.000000	0.066135  
1467.000000	0.070212  
1466.000000	0.073646  
1465.000000	0.076418  
1464.000000	0.078164  
1463.000000	0.078952  
1462.000000	0.079333  
1461.000000	0.079610  
1460.000000	0.079822  
1459.000000	0.080107  
1458.000000	0.080811  
1457.000000	0.081104  
1456.000000	0.079665  
1455.000000	0.077260  
1454.000000	0.074740  
1453.000000	0.072044  
1452.000000	0.069186  
1451.000000	0.066446  
1450.000000	0.063998  
1449.000000	0.061590  
1448.000000	0.058955  
1447.000000	0.056234  
1446.000000	0.053615  
1445.000000	0.051009  
1444.000000	0.048341  
1443.000000	0.045719  
1442.000000	0.043279  
1441.000000	0.041042  
1440.000000	0.038997  
1439.000000	0.037115  
1438.000000	0.035249  
1437.000000	0.033241  
1436.000000	0.031354  
1435.000000	0.029928  
1434.000000	0.028757  
1433.000000	0.027467  
1432.000000	0.025956  
1431.000000	0.024369  
1430.000000	0.022856  
1429.000000	0.021512  
1428.000000	0.020457  
1427.000000	0.019764  
1426.000000	0.019324  
1425.000000	0.018982  
1424.000000	0.018722  
1423.000000	0.018565  
1422.000000	0.018411  
1421.000000	0.018136  
1420.000000	0.017778  
1419.000000	0.017471  
1418.000000	0.017184  
1417.000000	0.016808  
1416.000000	0.016386  
1415.000000	0.015982  
1414.000000	0.015578  
1413.000000	0.015165  
1412.000000	0.014827  
1411.000000	0.014657  
1410.000000	0.014597  
1409.000000	0.014530  
1408.000000	0.014450  
1407.000000	0.014460  
1406.000000	0.014623  
1405.000000	0.014910  
1404.000000	0.015263  
1403.000000	0.015612  
1402.000000	0.015891  
1401.000000	0.016110  
1400.000000	0.016391  
1399.000000	0.016816  
1398.000000	0.017259  
1397.000000	0.017579  
1396.000000	0.017835  
1395.000000	0.018154  
1394.000000	0.018515  
1393.000000	0.018850  
1392.000000	0.019184  
1391.000000	0.019559  
1390.000000	0.020028  
1389.000000	0.020768  
1388.000000	0.022067  
1387.000000	0.023934  
1386.000000	0.025952  
1385.000000	0.027879  
1384.000000	0.029919  
1383.000000	0.032346  
1382.000000	0.035237  
1381.000000	0.038455  
1380.000000	0.041657  
1379.000000	0.044244  
1378.000000	0.045610  
1377.000000	0.045522  
1376.000000	0.044032  
1375.000000	0.041272  
1374.000000	0.037803  
1373.000000	0.034615  
1372.000000	0.032255  
1371.000000	0.030627  
1370.000000	0.029525  
1369.000000	0.028864  
1368.000000	0.028552  
1367.000000	0.028352  
1366.000000	0.027985  
1365.000000	0.027269  
1364.000000	0.026172  
1363.000000	0.024871  
1362.000000	0.023703  
1361.000000	0.022852  
1360.000000	0.022256  
1359.000000	0.021819  
1358.000000	0.021502  
1357.000000	0.021286  
1356.000000	0.021146  
1355.000000	0.021064  
1354.000000	0.021033  
1353.000000	0.021044  
1352.000000	0.021068  
1351.000000	0.021068  
1350.000000	0.020996  
1349.000000	0.020820  
1348.000000	0.020555  
1347.000000	0.020248  
1346.000000	0.019927  
1345.000000	0.019599  
1344.000000	0.019295  
1343.000000	0.019059  
1342.000000	0.018902  
1341.000000	0.018760  
1340.000000	0.018515  
1339.000000	0.018102  
1338.000000	0.017591  
1337.000000	0.017100  
1336.000000	0.016683  
1335.000000	0.016330  
1334.000000	0.016017  
1333.000000	0.015743  
1332.000000	0.015542  
1331.000000	0.015448  
1330.000000	0.015434  
1329.000000	0.015450  
1328.000000	0.015481  
1327.000000	0.015551  
1326.000000	0.015657  
1325.000000	0.015765  
1324.000000	0.015863  
1323.000000	0.015976  
1322.000000	0.016113  
1321.000000	0.016244  
1320.000000	0.016339  
1319.000000	0.016405  
1318.000000	0.016470  
1317.000000	0.016560  
1316.000000	0.016699  
1315.000000	0.016902  
1314.000000	0.017142  
1313.000000	0.017354  
1312.000000	0.017496  
1311.000000	0.017587  
1310.000000	0.017670  
1309.000000	0.017766  
1308.000000	0.017866  
1307.000000	0.017949  
1306.000000	0.018007  
1305.000000	0.018045  
1304.000000	0.018076  
1303.000000	0.018094  
1302.000000	0.018062  
1301.000000	0.017947  
1300.000000	0.017756  
1299.000000	0.017529  
1298.000000	0.017293  
1297.000000	0.017055  
1296.000000	0.016825  
1295.000000	0.016614  
1294.000000	0.016420  
1293.000000	0.016229  
1292.000000	0.016053  
1291.000000	0.015928  
1290.000000	0.015886  
1289.000000	0.015932  
1288.000000	0.016047  
1287.000000	0.016202  
1286.000000	0.016376  
1285.000000	0.016573  
1284.000000	0.016820  
1283.000000	0.017118  
1282.000000	0.017426  
1281.000000	0.017710  
1280.000000	0.017979  
1279.000000	0.018258  
1278.000000	0.018532  
1277.000000	0.018766  
1276.000000	0.018963  
1275.000000	0.019158  
1274.000000	0.019353  
1273.000000	0.019520  
1272.000000	0.019660  
1271.000000	0.019807  
1270.000000	0.019956  
1269.000000	0.020054  
1268.000000	0.020079  
1267.000000	0.020097  
1266.000000	0.020186  
1265.000000	0.020343  
1264.000000	0.020502  
1263.000000	0.020627  
1262.000000	0.020747  
1261.000000	0.020887  
1260.000000	0.021023  
1259.000000	0.021102  
1258.000000	0.021106  
1257.000000	0.021090  
1256.000000	0.021147  
1255.000000	0.021344  
1254.000000	0.021669  
1253.000000	0.022038  
1252.000000	0.022377  
1251.000000	0.022687  
1250.000000	0.023033  
1249.000000	0.023464  
1248.000000	0.023951  
1247.000000	0.024406  
1246.000000	0.024758  
1245.000000	0.024999  
1244.000000	0.025154  
1243.000000	0.025227  
1242.000000	0.025189  
1241.000000	0.025014  
1240.000000	0.024720  
1239.000000	0.024348  
1238.000000	0.023937  
1237.000000	0.023511  
1236.000000	0.023084  
1235.000000	0.022669  
1234.000000	0.022266  
1233.000000	0.021868  
1232.000000	0.021479  
1231.000000	0.021106  
1230.000000	0.020750  
1229.000000	0.020412  
1228.000000	0.020102  
1227.000000	0.019838  
1226.000000	0.019621  
1225.000000	0.019444  
1224.000000	0.019313  
1223.000000	0.019238  
1222.000000	0.019210  
1221.000000	0.019223  
1220.000000	0.019291  
1219.000000	0.019428  
1218.000000	0.019588  
1217.000000	0.019692  
1216.000000	0.019719  
1215.000000	0.019739  
1214.000000	0.019834  
1213.000000	0.020010  
1212.000000	0.020216  
1211.000000	0.020411  
1210.000000	0.020597  
1209.000000	0.020797  
1208.000000	0.021028  
1207.000000	0.021301  
1206.000000	0.021614  
1205.000000	0.021959  
1204.000000	0.022332  
1203.000000	0.022742  
1202.000000	0.023198  
1201.000000	0.023691  
1200.000000	0.024191  
1199.000000	0.024672  
1198.000000	0.025129  
1197.000000	0.025603  
1196.000000	0.026156  
1195.000000	0.026824  
1194.000000	0.027580  
1193.000000	0.028363  
1192.000000	0.029141  
1191.000000	0.029927  
1190.000000	0.030748  
1189.000000	0.031610  
1188.000000	0.032487  
1187.000000	0.033349  
1186.000000	0.034189  
1185.000000	0.035030  
1184.000000	0.035883  
1183.000000	0.036718  
1182.000000	0.037473  
1181.000000	0.038117  
1180.000000	0.038682  
1179.000000	0.039225  
1178.000000	0.039753  
1177.000000	0.040195  
1176.000000	0.040460  
1175.000000	0.040519  
1174.000000	0.040426  
1173.000000	0.040248  
1172.000000	0.039990  
1171.000000	0.039619  
1170.000000	0.039124  
1169.000000	0.038542  
1168.000000	0.037912  
1167.000000	0.037238  
1166.000000	0.036483  
1165.000000	0.035610  
1164.000000	0.034622  
1163.000000	0.033571  
1162.000000	0.032523  
1161.000000	0.031519  
1160.000000	0.030571  
1159.000000	0.029680  
1158.000000	0.028831  
1157.000000	0.027988  
1156.000000	0.027133  
1155.000000	0.026316  
1154.000000	0.025609  
1153.000000	0.025012  
1152.000000	0.024438  
1151.000000	0.023806  
1150.000000	0.023116  
1149.000000	0.022433  
1148.000000	0.021808  
1147.000000	0.021244  
1146.000000	0.020708  
1145.000000	0.020174  
1144.000000	0.019638  
1143.000000	0.019120  
1142.000000	0.018642  
1141.000000	0.018198  
1140.000000	0.017774  
1139.000000	0.017363  
1138.000000	0.016979  
1137.000000	0.016630  
1136.000000	0.016299  
1135.000000	0.015962  
1134.000000	0.015628  
1133.000000	0.015348  
1132.000000	0.015185  
1131.000000	0.015164  
1130.000000	0.015263  
1129.000000	0.015465  
1128.000000	0.015783  
1127.000000	0.016232  
1126.000000	0.016780  
1125.000000	0.017373  
1124.000000	0.017986  
1123.000000	0.018624  
1122.000000	0.019280  
1121.000000	0.019911  
1120.000000	0.020459  
1119.000000	0.020872  
1118.000000	0.021113  
1117.000000	0.021171  
1116.000000	0.021077  
1115.000000	0.020884  
1114.000000	0.020627  
1113.000000	0.020321  
1112.000000	0.019975  
1111.000000	0.019618  
1110.000000	0.019278  
1109.000000	0.018984  
1108.000000	0.018774  
1107.000000	0.018674  
1106.000000	0.018665  
1105.000000	0.018688  
1104.000000	0.018707  
1103.000000	0.018731  
1102.000000	0.018770  
1101.000000	0.018794  
1100.000000	0.018753  
1099.000000	0.018637  
1098.000000	0.018504  
1097.000000	0.018429  
1096.000000	0.018427  
1095.000000	0.018429  
1094.000000	0.018342  
1093.000000	0.018167  
1092.000000	0.018026  
1091.000000	0.018052  
1090.000000	0.018244  
1089.000000	0.018478  
1088.000000	0.018657  
1087.000000	0.018793  
1086.000000	0.018960  
1085.000000	0.019213  
1084.000000	0.019574  
1083.000000	0.020041  
1082.000000	0.020571  
1081.000000	0.021093  
1080.000000	0.021589  
1079.000000	0.022123  
1078.000000	0.022769  
1077.000000	0.023528  
1076.000000	0.024334  
1075.000000	0.025112  
1074.000000	0.025796  
1073.000000	0.026307  
1072.000000	0.026595  
1071.000000	0.026695  
1070.000000	0.026707  
1069.000000	0.026708  
1068.000000	0.026716  
1067.000000	0.026735  
1066.000000	0.026789  
1065.000000	0.026889  
1064.000000	0.026996  
1063.000000	0.027048  
1062.000000	0.026980  
1061.000000	0.026726  
1060.000000	0.026236  
1059.000000	0.025539  
1058.000000	0.024769  
1057.000000	0.024098  
1056.000000	0.023638  
1055.000000	0.023402  
1054.000000	0.023334  
1053.000000	0.023368  
1052.000000	0.023471  
1051.000000	0.023647  
1050.000000	0.023899  
1049.000000	0.024192  
1048.000000	0.024465  
1047.000000	0.024690  
1046.000000	0.024874  
1045.000000	0.025027  
1044.000000	0.025139  
1043.000000	0.025187  
1042.000000	0.025156  
1041.000000	0.025034  
1040.000000	0.024828  
1039.000000	0.024576  
1038.000000	0.024331  
1037.000000	0.024126  
1036.000000	0.023962  
1035.000000	0.023830  
1034.000000	0.023744  
1033.000000	0.023722  
1032.000000	0.023762  
1031.000000	0.023813  
1030.000000	0.023772  
1029.000000	0.023529  
1028.000000	0.023049  
1027.000000	0.022413  
1026.000000	0.021754  
1025.000000	0.021147  
1024.000000	0.020569  
1023.000000	0.019969  
1022.000000	0.019332  
1021.000000	0.018673  
1020.000000	0.018013  
1019.000000	0.017392  
1018.000000	0.016871  
1017.000000	0.016499  
1016.000000	0.016280  
1015.000000	0.016178  
1014.000000	0.016151  
1013.000000	0.016165  
1012.000000	0.016186  
1011.000000	0.016170  
1010.000000	0.016072  
1009.000000	0.015875  
1008.000000	0.015600  
1007.000000	0.015287  
1006.000000	0.014955  
1005.000000	0.014597  
1004.000000	0.014222  
1003.000000	0.013891  
1002.000000	0.013665  
1001.000000	0.013544  
1000.000000	0.013485  
999.000000	 0.013466  
998.000000	 0.013497  
997.000000	 0.013573  
996.000000	 0.013650  
995.000000	 0.013703  
994.000000	 0.013753  
993.000000	 0.013820  
992.000000	 0.013870  
991.000000	 0.013845  
990.000000	 0.013726  
989.000000	 0.013532  
988.000000	 0.013286  
987.000000	 0.013013  
986.000000	 0.012753  
985.000000	 0.012543  
984.000000	 0.012379  
983.000000	 0.012241  
982.000000	 0.012153  
981.000000	 0.012173  
980.000000	 0.012325  
979.000000	 0.012555  
978.000000	 0.012797  
977.000000	 0.013042  
976.000000	 0.013321  
975.000000	 0.013632  
974.000000	 0.013928  
973.000000	 0.014169  
972.000000	 0.014362  
971.000000	 0.014539  
970.000000	 0.014725  
969.000000	 0.014908  
968.000000	 0.015041  
967.000000	 0.015085  
966.000000	 0.015050  
965.000000	 0.014991  
964.000000	 0.014932  
963.000000	 0.014830  
962.000000	 0.014637  
961.000000	 0.014399  
960.000000	 0.014236  
959.000000	 0.014223  
958.000000	 0.014323  
957.000000	 0.014447  
956.000000	 0.014560  
955.000000	 0.014681  
954.000000	 0.014815  
953.000000	 0.014914  
952.000000	 0.014919  
951.000000	 0.014807  
950.000000	 0.014610  
949.000000	 0.014388  
948.000000	 0.014179  
947.000000	 0.013977  
946.000000	 0.013746  
945.000000	 0.013473  
944.000000	 0.013186  
943.000000	 0.012926  
942.000000	 0.012690  
941.000000	 0.012436  
940.000000	 0.012134  
939.000000	 0.011790  
938.000000	 0.011448  
937.000000	 0.011154  
936.000000	 0.010940  
935.000000	 0.010804  
934.000000	 0.010710  
933.000000	 0.010621  
932.000000	 0.010520  
931.000000	 0.010399  
930.000000	 0.010253  
929.000000	 0.010103  
928.000000	 0.010010  
927.000000	 0.010029  
926.000000	 0.010136  
925.000000	 0.010246  
924.000000	 0.010312  
923.000000	 0.010374  
922.000000	 0.010498  
921.000000	 0.010687  
920.000000	 0.010873  
919.000000	 0.010971  
918.000000	 0.010940  
917.000000	 0.010794  
916.000000	 0.010601  
915.000000	 0.010443  
914.000000	 0.010354  
913.000000	 0.010288  
912.000000	 0.010169  
911.000000	 0.009990  
910.000000	 0.009819  
909.000000	 0.009715  
908.000000	 0.009664  
907.000000	 0.009604  
906.000000	 0.009504  
905.000000	 0.009389  
904.000000	 0.009303  
903.000000	 0.009283  
902.000000	 0.009353  
901.000000	 0.009515  
900.000000	 0.009707  
899.000000	 0.009824  
898.000000	 0.009798  
897.000000	 0.009661  
896.000000	 0.009514  
895.000000	 0.009429  
894.000000	 0.009420  
893.000000	 0.009472  
892.000000	 0.009574  
891.000000	 0.009702  
890.000000	 0.009808  
889.000000	 0.009844  
888.000000	 0.009792  
887.000000	 0.009665  
886.000000	 0.009502  
885.000000	 0.009376  
884.000000	 0.009352  
883.000000	 0.009435  
882.000000	 0.009555  
881.000000	 0.009642  
880.000000	 0.009683  
879.000000	 0.009709  
878.000000	 0.009742  
877.000000	 0.009798  
876.000000	 0.009882  
875.000000	 0.009972  
874.000000	 0.010022  
873.000000	 0.010020  
872.000000	 0.010000  
871.000000	 0.009981  
870.000000	 0.009940  
869.000000	 0.009876  
868.000000	 0.009855  
867.000000	 0.009921  
866.000000	 0.010012  
865.000000	 0.010030  
864.000000	 0.009982  
863.000000	 0.009979  
862.000000	 0.010092  
861.000000	 0.010271  
860.000000	 0.010427  
859.000000	 0.010539  
858.000000	 0.010661  
857.000000	 0.010857  
856.000000	 0.011134  
855.000000	 0.011439  
854.000000	 0.011712  
853.000000	 0.011974  
852.000000	 0.012329  
851.000000	 0.012845  
850.000000	 0.013439  
849.000000	 0.013949  
848.000000	 0.014302  
847.000000	 0.014537  
846.000000	 0.014672  
845.000000	 0.014651  
844.000000	 0.014450  
843.000000	 0.014158  
842.000000	 0.013877  
841.000000	 0.013600  
840.000000	 0.013254  
839.000000	 0.012835  
838.000000	 0.012422  
837.000000	 0.012086  
836.000000	 0.011828  
835.000000	 0.011616  
834.000000	 0.011413  
833.000000	 0.011199  
832.000000	 0.011002  
831.000000	 0.010892  
830.000000	 0.010891  
829.000000	 0.010894  
828.000000	 0.010787  
827.000000	 0.010635  
826.000000	 0.010641  
825.000000	 0.010870  
824.000000	 0.011123  
823.000000	 0.011189  
822.000000	 0.011100  
821.000000	 0.011018  
820.000000	 0.010993  
819.000000	 0.010982  
818.000000	 0.010998  
817.000000	 0.011122  
816.000000	 0.011352  
815.000000	 0.011549  
814.000000	 0.011577  
813.000000	 0.011454  
812.000000	 0.011309  
811.000000	 0.011233  
810.000000	 0.011236  
809.000000	 0.011314  
808.000000	 0.011493  
807.000000	 0.011773  
806.000000	 0.012063  
805.000000	 0.012219  
804.000000	 0.012145  
803.000000	 0.011863  
802.000000	 0.011479  
801.000000	 0.011112  
800.000000	 0.010816  
799.000000	 0.010591  
798.000000	 0.010434  
797.000000	 0.010353  
796.000000	 0.010311  
795.000000	 0.010214  
794.000000	 0.009999  
793.000000	 0.009752  
792.000000	 0.009661  
791.000000	 0.009820  
790.000000	 0.010146  
789.000000	 0.010497  
788.000000	 0.010815  
787.000000	 0.011115  
786.000000	 0.011384  
785.000000	 0.011611  
784.000000	 0.011860  
783.000000	 0.012242  
782.000000	 0.012770  
781.000000	 0.013335  
780.000000	 0.013809  
779.000000	 0.014137  
778.000000	 0.014322  
777.000000	 0.014401  
776.000000	 0.014463  
775.000000	 0.014631  
774.000000	 0.014954  
773.000000	 0.015362  
772.000000	 0.015752  
771.000000	 0.016096  
770.000000	 0.016412  
769.000000	 0.016694  
768.000000	 0.016908  
767.000000	 0.017056  
766.000000	 0.017177  
765.000000	 0.017296  
764.000000	 0.017399  
763.000000	 0.017459  
762.000000	 0.017468  
761.000000	 0.017431  
760.000000	 0.017374  
759.000000	 0.017369  
758.000000	 0.017508  
757.000000	 0.017849  
756.000000	 0.018355  
755.000000	 0.018908  
754.000000	 0.019365  
753.000000	 0.019661  
752.000000	 0.019869  
751.000000	 0.020160  
750.000000	 0.020637  
749.000000	 0.021239  
748.000000	 0.021833  
747.000000	 0.022409  
746.000000	 0.023143  
745.000000	 0.024222  
744.000000	 0.025633  
743.000000	 0.027143  
742.000000	 0.028477  
741.000000	 0.029503  
740.000000	 0.030270  
739.000000	 0.030905  
738.000000	 0.031481  
737.000000	 0.031969  
736.000000	 0.032317  
735.000000	 0.032535  
734.000000	 0.032695  
733.000000	 0.032869  
732.000000	 0.033127  
731.000000	 0.033572  
730.000000	 0.034311  
729.000000	 0.035315  
728.000000	 0.036427  
727.000000	 0.037533  
726.000000	 0.038674  
725.000000	 0.039887  
724.000000	 0.040988  
723.000000	 0.041596  
722.000000	 0.041420  
721.000000	 0.040483  
720.000000	 0.039085  
719.000000	 0.037534  
718.000000	 0.035954  
717.000000	 0.034388  
716.000000	 0.032946  
715.000000	 0.031787  
714.000000	 0.030968  
713.000000	 0.030368  
712.000000	 0.029793  
711.000000	 0.029114  
710.000000	 0.028350  
709.000000	 0.027641  
708.000000	 0.027162  
707.000000	 0.027002  
706.000000	 0.027084  
705.000000	 0.027240  
704.000000	 0.027359  
703.000000	 0.027416  
702.000000	 0.027408  
701.000000	 0.027328  
700.000000	 0.027187  
699.000000	 0.026983  
698.000000	 0.026599  
697.000000	 0.025875  
696.000000	 0.024835  
695.000000	 0.023751  
694.000000	 0.022910  
693.000000	 0.022364  
692.000000	 0.021956  
691.000000	 0.021560  
690.000000	 0.021179  
689.000000	 0.020859  
688.000000	 0.020586  
687.000000	 0.020283  
686.000000	 0.019896  
685.000000	 0.019466  
684.000000	 0.019104  
683.000000	 0.018882  
682.000000	 0.018729  
681.000000	 0.018494  
680.000000	 0.018144  
679.000000	 0.017832  
678.000000	 0.017676  
677.000000	 0.017579  
676.000000	 0.017403  
675.000000	 0.017155  
674.000000	 0.016901  
673.000000	 0.016654  
672.000000	 0.016433  
671.000000	 0.016493  
670.000000	 0.017177  
669.000000	 0.018372  
668.000000	 0.018448  
667.000000	 0.016612  
666.000000	 0.014826  
665.000000	 0.014094  
664.000000	 0.014083  
663.000000	 0.014300  
662.000000	 0.014415  
661.000000	 0.014310  
660.000000	 0.014232  
659.000000	 0.014161  
658.000000	 0.014505  
657.000000	 0.014414  
656.000000	 0.015012  
655.000000	 0.013267  
654.000000	 0.009965  
653.000000	 0.010242  
652.000000	 0.009803  
651.000000	 0.009999  
650.000000	 0.009927  

