PE IR                   SPECTRUM    ASCII       PEDS        1.60        
  -1
NB473~1.ASC
17/05/24
08:01:51.00
17/05/24
08:01:51.00
Admin

650.000000
4









SPECTRUM ONE,CPU32 MAIN 00.02.6000 25-JUNE-2003 12:00:00
MIR TGS
MIR
OPTKBR
68128
0.200000

4.000000
STRONG
RATIO
SPECTRUM
MAGNITUDE
UNIVERSAL ATR
DOUBLE

COMBINED


0


#HDR
-1
-1
#GR
CM-1
A
0.00000011920928955078
0.0
4000.000000
-1.000000
3351
8
0.203092
-0.001045
#DATA
4000.000000	0.004733  
3999.000000	0.004600  
3998.000000	0.004467  
3997.000000	0.004334  
3996.000000	0.004202  
3995.000000	0.004002  
3994.000000	0.003801  
3993.000000	0.003662  
3992.000000	0.003604  
3991.000000	0.003619  
3990.000000	0.003697  
3989.000000	0.003828  
3988.000000	0.003976  
3987.000000	0.004077  
3986.000000	0.004085  
3985.000000	0.004006  
3984.000000	0.003905  
3983.000000	0.003856  
3982.000000	0.003887  
3981.000000	0.003942  
3980.000000	0.003928  
3979.000000	0.003795  
3978.000000	0.003589  
3977.000000	0.003424  
3976.000000	0.003397  
3975.000000	0.003520  
3974.000000	0.003726  
3973.000000	0.003926  
3972.000000	0.004056  
3971.000000	0.004087  
3970.000000	0.004028  
3969.000000	0.003923  
3968.000000	0.003830  
3967.000000	0.003796  
3966.000000	0.003823  
3965.000000	0.003864  
3964.000000	0.003862  
3963.000000	0.003803  
3962.000000	0.003739  
3961.000000	0.003739  
3960.000000	0.003805  
3959.000000	0.003873  
3958.000000	0.003872  
3957.000000	0.003804  
3956.000000	0.003732  
3955.000000	0.003710  
3954.000000	0.003740  
3953.000000	0.003794  
3952.000000	0.003859  
3951.000000	0.003937  
3950.000000	0.004019  
3949.000000	0.004068  
3948.000000	0.004066  
3947.000000	0.004034  
3946.000000	0.004003  
3945.000000	0.003974  
3944.000000	0.003931  
3943.000000	0.003881  
3942.000000	0.003866  
3941.000000	0.003914  
3940.000000	0.003999  
3939.000000	0.004052  
3938.000000	0.004036  
3937.000000	0.003980  
3936.000000	0.003947  
3935.000000	0.003967  
3934.000000	0.004006  
3933.000000	0.004012  
3932.000000	0.003984  
3931.000000	0.003967  
3930.000000	0.003985  
3929.000000	0.004007  
3928.000000	0.003986  
3927.000000	0.003905  
3926.000000	0.003777  
3925.000000	0.003628  
3924.000000	0.003479  
3923.000000	0.003348  
3922.000000	0.003261  
3921.000000	0.003258  
3920.000000	0.003373  
3919.000000	0.003586  
3918.000000	0.003806  
3917.000000	0.003943  
3916.000000	0.003993  
3915.000000	0.004022  
3914.000000	0.004070  
3913.000000	0.004115  
3912.000000	0.004109  
3911.000000	0.004025  
3910.000000	0.003870  
3909.000000	0.003675  
3908.000000	0.003487  
3907.000000	0.003385  
3906.000000	0.003471  
3905.000000	0.003766  
3904.000000	0.004106  
3903.000000	0.004254  
3902.000000	0.004143  
3901.000000	0.003940  
3900.000000	0.003857  
3899.000000	0.003941  
3898.000000	0.004082  
3897.000000	0.004161  
3896.000000	0.004127  
3895.000000	0.003978  
3894.000000	0.003739  
3893.000000	0.003468  
3892.000000	0.003251  
3891.000000	0.003139  
3890.000000	0.003123  
3889.000000	0.003178  
3888.000000	0.003272  
3887.000000	0.003346  
3886.000000	0.003366  
3885.000000	0.003372  
3884.000000	0.003405  
3883.000000	0.003448  
3882.000000	0.003457  
3881.000000	0.003422  
3880.000000	0.003374  
3879.000000	0.003318  
3878.000000	0.003222  
3877.000000	0.003045  
3876.000000	0.002786  
3875.000000	0.002528  
3874.000000	0.002388  
3873.000000	0.002376  
3872.000000	0.002373  
3871.000000	0.002294  
3870.000000	0.002190  
3869.000000	0.002162  
3868.000000	0.002228  
3867.000000	0.002323  
3866.000000	0.002366  
3865.000000	0.002322  
3864.000000	0.002246  
3863.000000	0.002218  
3862.000000	0.002255  
3861.000000	0.002354  
3860.000000	0.002509  
3859.000000	0.002656  
3858.000000	0.002665  
3857.000000	0.002401  
3856.000000	0.001839  
3855.000000	0.001202  
3854.000000	0.000939  
3853.000000	0.001123  
3852.000000	0.001340  
3851.000000	0.001414  
3850.000000	0.001527  
3849.000000	0.001821  
3848.000000	0.002178  
3847.000000	0.002435  
3846.000000	0.002537  
3845.000000	0.002506  
3844.000000	0.002441  
3843.000000	0.002449  
3842.000000	0.002556  
3841.000000	0.002683  
3840.000000	0.002701  
3839.000000	0.002529  
3838.000000	0.002206  
3837.000000	0.001826  
3836.000000	0.001474  
3835.000000	0.001225  
3834.000000	0.001133  
3833.000000	0.001207  
3832.000000	0.001412  
3831.000000	0.001686  
3830.000000	0.001961  
3829.000000	0.002186  
3828.000000	0.002325  
3827.000000	0.002346  
3826.000000	0.002232  
3825.000000	0.001996  
3824.000000	0.001700  
3823.000000	0.001455  
3822.000000	0.001380  
3821.000000	0.001432  
3820.000000	0.001419  
3819.000000	0.001279  
3818.000000	0.001165  
3817.000000	0.001252  
3816.000000	0.001508  
3815.000000	0.001760  
3814.000000	0.001926  
3813.000000	0.002041  
3812.000000	0.002129  
3811.000000	0.002156  
3810.000000	0.002093  
3809.000000	0.001987  
3808.000000	0.001936  
3807.000000	0.001978  
3806.000000	0.002050  
3805.000000	0.002081  
3804.000000	0.002030  
3803.000000	0.001850  
3802.000000	0.001557  
3801.000000	0.001271  
3800.000000	0.001074  
3799.000000	0.001004  
3798.000000	0.001119  
3797.000000	0.001406  
3796.000000	0.001752  
3795.000000	0.002068  
3794.000000	0.002338  
3793.000000	0.002579  
3792.000000	0.002788  
3791.000000	0.002928  
3790.000000	0.002966  
3789.000000	0.002912  
3788.000000	0.002831  
3787.000000	0.002804  
3786.000000	0.002857  
3785.000000	0.002913  
3784.000000	0.002858  
3783.000000	0.002667  
3782.000000	0.002434  
3781.000000	0.002291  
3780.000000	0.002298  
3779.000000	0.002377  
3778.000000	0.002398  
3777.000000	0.002331  
3776.000000	0.002259  
3775.000000	0.002258  
3774.000000	0.002314  
3773.000000	0.002351  
3772.000000	0.002316  
3771.000000	0.002219  
3770.000000	0.002132  
3769.000000	0.002128  
3768.000000	0.002224  
3767.000000	0.002381  
3766.000000	0.002535  
3765.000000	0.002622  
3764.000000	0.002636  
3763.000000	0.002619  
3762.000000	0.002603  
3761.000000	0.002572  
3760.000000	0.002479  
3759.000000	0.002284  
3758.000000	0.002013  
3757.000000	0.001768  
3756.000000	0.001663  
3755.000000	0.001724  
3754.000000	0.001849  
3753.000000	0.001899  
3752.000000	0.001856  
3751.000000	0.001812  
3750.000000	0.001785  
3749.000000	0.001710  
3748.000000	0.001634  
3747.000000	0.001645  
3746.000000	0.001667  
3745.000000	0.001598  
3744.000000	0.001516  
3743.000000	0.001550  
3742.000000	0.001728  
3741.000000	0.001948  
3740.000000	0.002049  
3739.000000	0.002014  
3738.000000	0.001992  
3737.000000	0.002090  
3736.000000	0.002220  
3735.000000	0.002192  
3734.000000	0.001980  
3733.000000	0.001725  
3732.000000	0.001555  
3731.000000	0.001535  
3730.000000	0.001693  
3729.000000	0.002016  
3728.000000	0.002413  
3727.000000	0.002741  
3726.000000	0.002898  
3725.000000	0.002896  
3724.000000	0.002824  
3723.000000	0.002760  
3722.000000	0.002731  
3721.000000	0.002718  
3720.000000	0.002711  
3719.000000	0.002713  
3718.000000	0.002716  
3717.000000	0.002678  
3716.000000	0.002545  
3715.000000	0.002258  
3714.000000	0.001786  
3713.000000	0.001247  
3712.000000	0.000936  
3711.000000	0.001012  
3710.000000	0.001236  
3709.000000	0.001349  
3708.000000	0.001391  
3707.000000	0.001516  
3706.000000	0.001752  
3705.000000	0.002011  
3704.000000	0.002217  
3703.000000	0.002361  
3702.000000	0.002485  
3701.000000	0.002612  
3700.000000	0.002728  
3699.000000	0.002822  
3698.000000	0.002892  
3697.000000	0.002915  
3696.000000	0.002871  
3695.000000	0.002771  
3694.000000	0.002627  
3693.000000	0.002435  
3692.000000	0.002185  
3691.000000	0.001899  
3690.000000	0.001625  
3689.000000	0.001387  
3688.000000	0.001186  
3687.000000	0.001108  
3686.000000	0.001283  
3685.000000	0.001671  
3684.000000	0.002038  
3683.000000	0.002180  
3682.000000	0.002080  
3681.000000	0.001844  
3680.000000	0.001608  
3679.000000	0.001467  
3678.000000	0.001450  
3677.000000	0.001498  
3676.000000	0.001458  
3675.000000	0.001223  
3674.000000	0.000892  
3673.000000	0.000704  
3672.000000	0.000879  
3671.000000	0.001424  
3670.000000	0.002045  
3669.000000	0.002415  
3668.000000	0.002469  
3667.000000	0.002376  
3666.000000	0.002325  
3665.000000	0.002386  
3664.000000	0.002542  
3663.000000	0.002782  
3662.000000	0.003061  
3661.000000	0.003274  
3660.000000	0.003320  
3659.000000	0.003170  
3658.000000	0.002925  
3657.000000	0.002776  
3656.000000	0.002838  
3655.000000	0.003033  
3654.000000	0.003201  
3653.000000	0.003236  
3652.000000	0.003126  
3651.000000	0.003048  
3650.000000	0.003255  
3649.000000	0.003589  
3648.000000	0.003585  
3647.000000	0.003205  
3646.000000	0.002824  
3645.000000	0.002705  
3644.000000	0.002806  
3643.000000	0.002979  
3642.000000	0.003146  
3641.000000	0.003259  
3640.000000	0.003258  
3639.000000	0.003114  
3638.000000	0.002871  
3637.000000	0.002628  
3636.000000	0.002469  
3635.000000	0.002419  
3634.000000	0.002455  
3633.000000	0.002536  
3632.000000	0.002630  
3631.000000	0.002732  
3630.000000	0.002880  
3629.000000	0.003064  
3628.000000	0.003189  
3627.000000	0.003214  
3626.000000	0.003200  
3625.000000	0.003213  
3624.000000	0.003235  
3623.000000	0.003234  
3622.000000	0.003218  
3621.000000	0.003183  
3620.000000	0.003121  
3619.000000	0.003068  
3618.000000	0.003054  
3617.000000	0.003056  
3616.000000	0.003027  
3615.000000	0.002947  
3614.000000	0.002854  
3613.000000	0.002832  
3612.000000	0.002915  
3611.000000	0.003041  
3610.000000	0.003127  
3609.000000	0.003178  
3608.000000	0.003280  
3607.000000	0.003488  
3606.000000	0.003759  
3605.000000	0.004008  
3604.000000	0.004171  
3603.000000	0.004204  
3602.000000	0.004099  
3601.000000	0.003906  
3600.000000	0.003708  
3599.000000	0.003570  
3598.000000	0.003504  
3597.000000	0.003481  
3596.000000	0.003457  
3595.000000	0.003423  
3594.000000	0.003444  
3593.000000	0.003598  
3592.000000	0.003888  
3591.000000	0.004233  
3590.000000	0.004509  
3589.000000	0.004645  
3588.000000	0.004706  
3587.000000	0.004828  
3586.000000	0.005011  
3585.000000	0.005124  
3584.000000	0.005079  
3583.000000	0.004875  
3582.000000	0.004585  
3581.000000	0.004333  
3580.000000	0.004223  
3579.000000	0.004278  
3578.000000	0.004426  
3577.000000	0.004565  
3576.000000	0.004625  
3575.000000	0.004603  
3574.000000	0.004538  
3573.000000	0.004470  
3572.000000	0.004419  
3571.000000	0.004392  
3570.000000	0.004402  
3569.000000	0.004488  
3568.000000	0.004696  
3567.000000	0.004980  
3566.000000	0.005205  
3565.000000	0.005289  
3564.000000	0.005259  
3563.000000	0.005189  
3562.000000	0.005122  
3561.000000	0.005068  
3560.000000	0.005038  
3559.000000	0.005036  
3558.000000	0.005051  
3557.000000	0.005054  
3556.000000	0.005021  
3555.000000	0.004952  
3554.000000	0.004870  
3553.000000	0.004804  
3552.000000	0.004782  
3551.000000	0.004825  
3550.000000	0.004946  
3549.000000	0.005131  
3548.000000	0.005334  
3547.000000	0.005492  
3546.000000	0.005572  
3545.000000	0.005595  
3544.000000	0.005594  
3543.000000	0.005583  
3542.000000	0.005571  
3541.000000	0.005571  
3540.000000	0.005595  
3539.000000	0.005633  
3538.000000	0.005655  
3537.000000	0.005633  
3536.000000	0.005561  
3535.000000	0.005462  
3534.000000	0.005357  
3533.000000	0.005259  
3532.000000	0.005172  
3531.000000	0.005104  
3530.000000	0.005072  
3529.000000	0.005091  
3528.000000	0.005165  
3527.000000	0.005274  
3526.000000	0.005374  
3525.000000	0.005419  
3524.000000	0.005405  
3523.000000	0.005396  
3522.000000	0.005469  
3521.000000	0.005624  
3520.000000	0.005784  
3519.000000	0.005861  
3518.000000	0.005842  
3517.000000	0.005796  
3516.000000	0.005796  
3515.000000	0.005855  
3514.000000	0.005937  
3513.000000	0.006021  
3512.000000	0.006124  
3511.000000	0.006271  
3510.000000	0.006439  
3509.000000	0.006562  
3508.000000	0.006589  
3507.000000	0.006530  
3506.000000	0.006446  
3505.000000	0.006409  
3504.000000	0.006444  
3503.000000	0.006508  
3502.000000	0.006536  
3501.000000	0.006505  
3500.000000	0.006428  
3499.000000	0.006318  
3498.000000	0.006189  
3497.000000	0.006084  
3496.000000	0.006054  
3495.000000	0.006097  
3494.000000	0.006169  
3493.000000	0.006250  
3492.000000	0.006379  
3491.000000	0.006590  
3490.000000	0.006839  
3489.000000	0.007022  
3488.000000	0.007071  
3487.000000	0.007013  
3486.000000	0.006931  
3485.000000	0.006876  
3484.000000	0.006847  
3483.000000	0.006810  
3482.000000	0.006739  
3481.000000	0.006655  
3480.000000	0.006619  
3479.000000	0.006688  
3478.000000	0.006862  
3477.000000	0.007086  
3476.000000	0.007297  
3475.000000	0.007456  
3474.000000	0.007540  
3473.000000	0.007535  
3472.000000	0.007461  
3471.000000	0.007376  
3470.000000	0.007327  
3469.000000	0.007301  
3468.000000	0.007250  
3467.000000	0.007157  
3466.000000	0.007069  
3465.000000	0.007041  
3464.000000	0.007082  
3463.000000	0.007171  
3462.000000	0.007294  
3461.000000	0.007449  
3460.000000	0.007616  
3459.000000	0.007747  
3458.000000	0.007798  
3457.000000	0.007779  
3456.000000	0.007741  
3455.000000	0.007721  
3454.000000	0.007699  
3453.000000	0.007639  
3452.000000	0.007558  
3451.000000	0.007531  
3450.000000	0.007622  
3449.000000	0.007804  
3448.000000	0.007976  
3447.000000	0.008046  
3446.000000	0.008009  
3445.000000	0.007924  
3444.000000	0.007860  
3443.000000	0.007862  
3442.000000	0.007940  
3441.000000	0.008060  
3440.000000	0.008161  
3439.000000	0.008187  
3438.000000	0.008131  
3437.000000	0.008031  
3436.000000	0.007938  
3435.000000	0.007876  
3434.000000	0.007843  
3433.000000	0.007845  
3432.000000	0.007911  
3431.000000	0.008062  
3430.000000	0.008256  
3429.000000	0.008402  
3428.000000	0.008439  
3427.000000	0.008385  
3426.000000	0.008309  
3425.000000	0.008261  
3424.000000	0.008230  
3423.000000	0.008172  
3422.000000	0.008054  
3421.000000	0.007893  
3420.000000	0.007756  
3419.000000	0.007719  
3418.000000	0.007799  
3417.000000	0.007949  
3416.000000	0.008111  
3415.000000	0.008276  
3414.000000	0.008466  
3413.000000	0.008669  
3412.000000	0.008815  
3411.000000	0.008838  
3410.000000	0.008756  
3409.000000	0.008675  
3408.000000	0.008708  
3407.000000	0.008882  
3406.000000	0.009119  
3405.000000	0.009298  
3404.000000	0.009355  
3403.000000	0.009315  
3402.000000	0.009236  
3401.000000	0.009151  
3400.000000	0.009057  
3399.000000	0.008953  
3398.000000	0.008849  
3397.000000	0.008756  
3396.000000	0.008691  
3395.000000	0.008679  
3394.000000	0.008734  
3393.000000	0.008821  
3392.000000	0.008880  
3391.000000	0.008886  
3390.000000	0.008872  
3389.000000	0.008878  
3388.000000	0.008910  
3387.000000	0.008954  
3386.000000	0.009006  
3385.000000	0.009065  
3384.000000	0.009111  
3383.000000	0.009121  
3382.000000	0.009104  
3381.000000	0.009092  
3380.000000	0.009106  
3379.000000	0.009126  
3378.000000	0.009111  
3377.000000	0.009056  
3376.000000	0.008998  
3375.000000	0.008978  
3374.000000	0.008984  
3373.000000	0.008967  
3372.000000	0.008916  
3371.000000	0.008890  
3370.000000	0.008951  
3369.000000	0.009084  
3368.000000	0.009205  
3367.000000	0.009242  
3366.000000	0.009192  
3365.000000	0.009100  
3364.000000	0.009004  
3363.000000	0.008941  
3362.000000	0.008953  
3361.000000	0.009064  
3360.000000	0.009245  
3359.000000	0.009416  
3358.000000	0.009494  
3357.000000	0.009454  
3356.000000	0.009349  
3355.000000	0.009271  
3354.000000	0.009274  
3353.000000	0.009321  
3352.000000	0.009338  
3351.000000	0.009293  
3350.000000	0.009236  
3349.000000	0.009226  
3348.000000	0.009266  
3347.000000	0.009313  
3346.000000	0.009356  
3345.000000	0.009429  
3344.000000	0.009572  
3343.000000	0.009759  
3342.000000	0.009897  
3341.000000	0.009892  
3340.000000	0.009732  
3339.000000	0.009492  
3338.000000	0.009280  
3337.000000	0.009161  
3336.000000	0.009146  
3335.000000	0.009228  
3334.000000	0.009388  
3333.000000	0.009578  
3332.000000	0.009715  
3331.000000	0.009735  
3330.000000	0.009633  
3329.000000	0.009462  
3328.000000	0.009293  
3327.000000	0.009174  
3326.000000	0.009117  
3325.000000	0.009109  
3324.000000	0.009143  
3323.000000	0.009237  
3322.000000	0.009396  
3321.000000	0.009578  
3320.000000	0.009721  
3319.000000	0.009801  
3318.000000	0.009831  
3317.000000	0.009807  
3316.000000	0.009706  
3315.000000	0.009547  
3314.000000	0.009420  
3313.000000	0.009407  
3312.000000	0.009497  
3311.000000	0.009609  
3310.000000	0.009681  
3309.000000	0.009714  
3308.000000	0.009739  
3307.000000	0.009763  
3306.000000	0.009763  
3305.000000	0.009703  
3304.000000	0.009582  
3303.000000	0.009466  
3302.000000	0.009435  
3301.000000	0.009500  
3300.000000	0.009577  
3299.000000	0.009582  
3298.000000	0.009520  
3297.000000	0.009458  
3296.000000	0.009425  
3295.000000	0.009399  
3294.000000	0.009371  
3293.000000	0.009370  
3292.000000	0.009409  
3291.000000	0.009443  
3290.000000	0.009414  
3289.000000	0.009326  
3288.000000	0.009260  
3287.000000	0.009309  
3286.000000	0.009489  
3285.000000	0.009704  
3284.000000	0.009803  
3283.000000	0.009723  
3282.000000	0.009558  
3281.000000	0.009462  
3280.000000	0.009494  
3279.000000	0.009571  
3278.000000	0.009576  
3277.000000	0.009476  
3276.000000	0.009324  
3275.000000	0.009188  
3274.000000	0.009104  
3273.000000	0.009074  
3272.000000	0.009085  
3271.000000	0.009121  
3270.000000	0.009182  
3269.000000	0.009274  
3268.000000	0.009392  
3267.000000	0.009504  
3266.000000	0.009569  
3265.000000	0.009560  
3264.000000	0.009484  
3263.000000	0.009382  
3262.000000	0.009307  
3261.000000	0.009287  
3260.000000	0.009289  
3259.000000	0.009264  
3258.000000	0.009208  
3257.000000	0.009179  
3256.000000	0.009228  
3255.000000	0.009330  
3254.000000	0.009405  
3253.000000	0.009399  
3252.000000	0.009334  
3251.000000	0.009272  
3250.000000	0.009252  
3249.000000	0.009250  
3248.000000	0.009209  
3247.000000	0.009111  
3246.000000	0.009005  
3245.000000	0.008973  
3244.000000	0.009031  
3243.000000	0.009110  
3242.000000	0.009113  
3241.000000	0.009012  
3240.000000	0.008870  
3239.000000	0.008778  
3238.000000	0.008779  
3237.000000	0.008850  
3236.000000	0.008940  
3235.000000	0.009017  
3234.000000	0.009071  
3233.000000	0.009085  
3232.000000	0.009041  
3231.000000	0.008943  
3230.000000	0.008837  
3229.000000	0.008777  
3228.000000	0.008796  
3227.000000	0.008894  
3226.000000	0.009039  
3225.000000	0.009180  
3224.000000	0.009268  
3223.000000	0.009275  
3222.000000	0.009191  
3221.000000	0.009010  
3220.000000	0.008749  
3219.000000	0.008485  
3218.000000	0.008338  
3217.000000	0.008373  
3216.000000	0.008534  
3215.000000	0.008698  
3214.000000	0.008797  
3213.000000	0.008853  
3212.000000	0.008907  
3211.000000	0.008957  
3210.000000	0.008966  
3209.000000	0.008911  
3208.000000	0.008805  
3207.000000	0.008691  
3206.000000	0.008626  
3205.000000	0.008641  
3204.000000	0.008701  
3203.000000	0.008727  
3202.000000	0.008670  
3201.000000	0.008553  
3200.000000	0.008435  
3199.000000	0.008364  
3198.000000	0.008354  
3197.000000	0.008383  
3196.000000	0.008392  
3195.000000	0.008317  
3194.000000	0.008172  
3193.000000	0.008052  
3192.000000	0.008052  
3191.000000	0.008154  
3190.000000	0.008249  
3189.000000	0.008242  
3188.000000	0.008137  
3187.000000	0.008003  
3186.000000	0.007914  
3185.000000	0.007908  
3184.000000	0.007985  
3183.000000	0.008115  
3182.000000	0.008248  
3181.000000	0.008325  
3180.000000	0.008303  
3179.000000	0.008173  
3178.000000	0.007975  
3177.000000	0.007768  
3176.000000	0.007604  
3175.000000	0.007511  
3174.000000	0.007500  
3173.000000	0.007562  
3172.000000	0.007647  
3171.000000	0.007694  
3170.000000	0.007688  
3169.000000	0.007686  
3168.000000	0.007739  
3167.000000	0.007832  
3166.000000	0.007906  
3165.000000	0.007924  
3164.000000	0.007899  
3163.000000	0.007841  
3162.000000	0.007743  
3161.000000	0.007621  
3160.000000	0.007521  
3159.000000	0.007478  
3158.000000	0.007471  
3157.000000	0.007458  
3156.000000	0.007437  
3155.000000	0.007437  
3154.000000	0.007469  
3153.000000	0.007494  
3152.000000	0.007459  
3151.000000	0.007352  
3150.000000	0.007225  
3149.000000	0.007164  
3148.000000	0.007224  
3147.000000	0.007371  
3146.000000	0.007494  
3145.000000	0.007497  
3144.000000	0.007374  
3143.000000	0.007199  
3142.000000	0.007051  
3141.000000	0.006952  
3140.000000	0.006901  
3139.000000	0.006908  
3138.000000	0.006989  
3137.000000	0.007134  
3136.000000	0.007293  
3135.000000	0.007406  
3134.000000	0.007426  
3133.000000	0.007339  
3132.000000	0.007180  
3131.000000	0.007027  
3130.000000	0.006944  
3129.000000	0.006932  
3128.000000	0.006933  
3127.000000	0.006902  
3126.000000	0.006851  
3125.000000	0.006822  
3124.000000	0.006833  
3123.000000	0.006876  
3122.000000	0.006952  
3121.000000	0.007065  
3120.000000	0.007194  
3119.000000	0.007279  
3118.000000	0.007270  
3117.000000	0.007175  
3116.000000	0.007064  
3115.000000	0.007007  
3114.000000	0.007030  
3113.000000	0.007096  
3112.000000	0.007133  
3111.000000	0.007090  
3110.000000	0.006980  
3109.000000	0.006868  
3108.000000	0.006815  
3107.000000	0.006834  
3106.000000	0.006892  
3105.000000	0.006944  
3104.000000	0.006951  
3103.000000	0.006890  
3102.000000	0.006778  
3101.000000	0.006670  
3100.000000	0.006610  
3099.000000	0.006596  
3098.000000	0.006598  
3097.000000	0.006604  
3096.000000	0.006624  
3095.000000	0.006667  
3094.000000	0.006723  
3093.000000	0.006780  
3092.000000	0.006833  
3091.000000	0.006878  
3090.000000	0.006909  
3089.000000	0.006931  
3088.000000	0.006954  
3087.000000	0.006971  
3086.000000	0.006966  
3085.000000	0.006949  
3084.000000	0.006948  
3083.000000	0.006968  
3082.000000	0.006969  
3081.000000	0.006917  
3080.000000	0.006836  
3079.000000	0.006791  
3078.000000	0.006811  
3077.000000	0.006875  
3076.000000	0.006948  
3075.000000	0.007008  
3074.000000	0.007038  
3073.000000	0.007031  
3072.000000	0.006994  
3071.000000	0.006949  
3070.000000	0.006919  
3069.000000	0.006922  
3068.000000	0.006980  
3067.000000	0.007080  
3066.000000	0.007146  
3065.000000	0.007092  
3064.000000	0.006933  
3063.000000	0.006800  
3062.000000	0.006813  
3061.000000	0.006952  
3060.000000	0.007091  
3059.000000	0.007134  
3058.000000	0.007090  
3057.000000	0.007016  
3056.000000	0.006950  
3055.000000	0.006913  
3054.000000	0.006932  
3053.000000	0.007023  
3052.000000	0.007160  
3051.000000	0.007278  
3050.000000	0.007329  
3049.000000	0.007320  
3048.000000	0.007296  
3047.000000	0.007296  
3046.000000	0.007319  
3045.000000	0.007325  
3044.000000	0.007284  
3043.000000	0.007214  
3042.000000	0.007175  
3041.000000	0.007205  
3040.000000	0.007299  
3039.000000	0.007429  
3038.000000	0.007587  
3037.000000	0.007779  
3036.000000	0.007981  
3035.000000	0.008143  
3034.000000	0.008225  
3033.000000	0.008232  
3032.000000	0.008203  
3031.000000	0.008175  
3030.000000	0.008176  
3029.000000	0.008242  
3028.000000	0.008410  
3027.000000	0.008686  
3026.000000	0.009007  
3025.000000	0.009274  
3024.000000	0.009440  
3023.000000	0.009572  
3022.000000	0.009808  
3021.000000	0.010238  
3020.000000	0.010826  
3019.000000	0.011460  
3018.000000	0.012057  
3017.000000	0.012610  
3016.000000	0.013149  
3015.000000	0.013688  
3014.000000	0.014217  
3013.000000	0.014709  
3012.000000	0.015116  
3011.000000	0.015378  
3010.000000	0.015464  
3009.000000	0.015411  
3008.000000	0.015293  
3007.000000	0.015143  
3006.000000	0.014938  
3005.000000	0.014650  
3004.000000	0.014309  
3003.000000	0.013969  
3002.000000	0.013660  
3001.000000	0.013379  
3000.000000	0.013147  
2999.000000	0.013006  
2998.000000	0.012984  
2997.000000	0.013060  
2996.000000	0.013189  
2995.000000	0.013337  
2994.000000	0.013491  
2993.000000	0.013657  
2992.000000	0.013864  
2991.000000	0.014152  
2990.000000	0.014544  
2989.000000	0.015024  
2988.000000	0.015562  
2987.000000	0.016152  
2986.000000	0.016811  
2985.000000	0.017578  
2984.000000	0.018493  
2983.000000	0.019576  
2982.000000	0.020802  
2981.000000	0.022123  
2980.000000	0.023525  
2979.000000	0.025055  
2978.000000	0.026772  
2977.000000	0.028696  
2976.000000	0.030836  
2975.000000	0.033244  
2974.000000	0.036008  
2973.000000	0.039183  
2972.000000	0.042754  
2971.000000	0.046669  
2970.000000	0.050891  
2969.000000	0.055414  
2968.000000	0.060237  
2967.000000	0.065317  
2966.000000	0.070530  
2965.000000	0.075705  
2964.000000	0.080702  
2963.000000	0.085462  
2962.000000	0.089955  
2961.000000	0.094127  
2960.000000	0.097903  
2959.000000	0.101213  
2958.000000	0.103977  
2957.000000	0.106081  
2956.000000	0.107421  
2955.000000	0.107957  
2954.000000	0.107717  
2953.000000	0.106760  
2952.000000	0.105206  
2951.000000	0.103263  
2950.000000	0.101205  
2949.000000	0.099298  
2948.000000	0.097741  
2947.000000	0.096674  
2946.000000	0.096187  
2945.000000	0.096338  
2944.000000	0.097187  
2943.000000	0.098820  
2942.000000	0.101289  
2941.000000	0.104549  
2940.000000	0.108488  
2939.000000	0.113033  
2938.000000	0.118184  
2937.000000	0.123921  
2936.000000	0.130116  
2935.000000	0.136589  
2934.000000	0.143219  
2933.000000	0.149986  
2932.000000	0.156895  
2931.000000	0.163880  
2930.000000	0.170777  
2929.000000	0.177390  
2928.000000	0.183575  
2927.000000	0.189248  
2926.000000	0.194291  
2925.000000	0.198472  
2924.000000	0.201484  
2923.000000	0.203064  
2922.000000	0.203092  
2921.000000	0.201617  
2920.000000	0.198820  
2919.000000	0.194952  
2918.000000	0.190269  
2917.000000	0.185030  
2916.000000	0.179500  
2915.000000	0.173931  
2914.000000	0.168492  
2913.000000	0.163237  
2912.000000	0.158141  
2911.000000	0.153181  
2910.000000	0.148380  
2909.000000	0.143780  
2908.000000	0.139391  
2907.000000	0.135184  
2906.000000	0.131143  
2905.000000	0.127273  
2904.000000	0.123577  
2903.000000	0.120034  
2902.000000	0.116618  
2901.000000	0.113312  
2900.000000	0.110081  
2899.000000	0.106869  
2898.000000	0.103642  
2897.000000	0.100430  
2896.000000	0.097290  
2895.000000	0.094238  
2894.000000	0.091243  
2893.000000	0.088281  
2892.000000	0.085379  
2891.000000	0.082592  
2890.000000	0.079966  
2889.000000	0.077521  
2888.000000	0.075275  
2887.000000	0.073259  
2886.000000	0.071538  
2885.000000	0.070190  
2884.000000	0.069277  
2883.000000	0.068830  
2882.000000	0.068885  
2881.000000	0.069501  
2880.000000	0.070731  
2879.000000	0.072557  
2878.000000	0.074894  
2877.000000	0.077612  
2876.000000	0.080544  
2875.000000	0.083451  
2874.000000	0.086029  
2873.000000	0.088022  
2872.000000	0.089358  
2871.000000	0.090171  
2870.000000	0.090689  
2869.000000	0.091102  
2868.000000	0.091535  
2867.000000	0.092120  
2866.000000	0.093063  
2865.000000	0.094612  
2864.000000	0.096943  
2863.000000	0.100074  
2862.000000	0.103885  
2861.000000	0.108205  
2860.000000	0.112841  
2859.000000	0.117561  
2858.000000	0.122094  
2857.000000	0.126167  
2856.000000	0.129513  
2855.000000	0.131789  
2854.000000	0.132589  
2853.000000	0.131602  
2852.000000	0.128798  
2851.000000	0.124419  
2850.000000	0.118827  
2849.000000	0.112380  
2848.000000	0.105426  
2847.000000	0.098317  
2846.000000	0.091359  
2845.000000	0.084732  
2844.000000	0.078465  
2843.000000	0.072491  
2842.000000	0.066770  
2841.000000	0.061364  
2840.000000	0.056393  
2839.000000	0.051929  
2838.000000	0.047958  
2837.000000	0.044429  
2836.000000	0.041313  
2835.000000	0.038587  
2834.000000	0.036187  
2833.000000	0.034023  
2832.000000	0.032043  
2831.000000	0.030245  
2830.000000	0.028637  
2829.000000	0.027204  
2828.000000	0.025927  
2827.000000	0.024808  
2826.000000	0.023843  
2825.000000	0.022989  
2824.000000	0.022171  
2823.000000	0.021342  
2822.000000	0.020515  
2821.000000	0.019740  
2820.000000	0.019059  
2819.000000	0.018473  
2818.000000	0.017947  
2817.000000	0.017444  
2816.000000	0.016947  
2815.000000	0.016457  
2814.000000	0.015965  
2813.000000	0.015460  
2812.000000	0.014960  
2811.000000	0.014517  
2810.000000	0.014157  
2809.000000	0.013846  
2808.000000	0.013538  
2807.000000	0.013237  
2806.000000	0.012989  
2805.000000	0.012813  
2804.000000	0.012668  
2803.000000	0.012502  
2802.000000	0.012289  
2801.000000	0.012034  
2800.000000	0.011765  
2799.000000	0.011536  
2798.000000	0.011409  
2797.000000	0.011386  
2796.000000	0.011403  
2795.000000	0.011389  
2794.000000	0.011334  
2793.000000	0.011267  
2792.000000	0.011193  
2791.000000	0.011086  
2790.000000	0.010926  
2789.000000	0.010727  
2788.000000	0.010521  
2787.000000	0.010337  
2786.000000	0.010198  
2785.000000	0.010108  
2784.000000	0.010040  
2783.000000	0.009960  
2782.000000	0.009859  
2781.000000	0.009750  
2780.000000	0.009636  
2779.000000	0.009506  
2778.000000	0.009356  
2777.000000	0.009194  
2776.000000	0.009026  
2775.000000	0.008850  
2774.000000	0.008673  
2773.000000	0.008514  
2772.000000	0.008379  
2771.000000	0.008255  
2770.000000	0.008128  
2769.000000	0.007996  
2768.000000	0.007864  
2767.000000	0.007722  
2766.000000	0.007571  
2765.000000	0.007444  
2764.000000	0.007385  
2763.000000	0.007397  
2762.000000	0.007422  
2761.000000	0.007390  
2760.000000	0.007278  
2759.000000	0.007126  
2758.000000	0.006982  
2757.000000	0.006862  
2756.000000	0.006762  
2755.000000	0.006677  
2754.000000	0.006602  
2753.000000	0.006522  
2752.000000	0.006436  
2751.000000	0.006375  
2750.000000	0.006378  
2749.000000	0.006435  
2748.000000	0.006480  
2747.000000	0.006450  
2746.000000	0.006351  
2745.000000	0.006245  
2744.000000	0.006191  
2743.000000	0.006207  
2742.000000	0.006271  
2741.000000	0.006353  
2740.000000	0.006434  
2739.000000	0.006504  
2738.000000	0.006552  
2737.000000	0.006571  
2736.000000	0.006567  
2735.000000	0.006568  
2734.000000	0.006595  
2733.000000	0.006633  
2732.000000	0.006638  
2731.000000	0.006585  
2730.000000	0.006493  
2729.000000	0.006409  
2728.000000	0.006366  
2727.000000	0.006365  
2726.000000	0.006378  
2725.000000	0.006369  
2724.000000	0.006327  
2723.000000	0.006284  
2722.000000	0.006284  
2721.000000	0.006317  
2720.000000	0.006329  
2719.000000	0.006285  
2718.000000	0.006213  
2717.000000	0.006162  
2716.000000	0.006142  
2715.000000	0.006124  
2714.000000	0.006081  
2713.000000	0.006007  
2712.000000	0.005908  
2711.000000	0.005798  
2710.000000	0.005709  
2709.000000	0.005667  
2708.000000	0.005657  
2707.000000	0.005632  
2706.000000	0.005555  
2705.000000	0.005435  
2704.000000	0.005304  
2703.000000	0.005195  
2702.000000	0.005119  
2701.000000	0.005073  
2700.000000	0.005042  
2699.000000	0.005019  
2698.000000	0.005017  
2697.000000	0.005054  
2696.000000	0.005135  
2695.000000	0.005243  
2694.000000	0.005362  
2693.000000	0.005472  
2692.000000	0.005542  
2691.000000	0.005536  
2690.000000	0.005449  
2689.000000	0.005325  
2688.000000	0.005231  
2687.000000	0.005203  
2686.000000	0.005224  
2685.000000	0.005244  
2684.000000	0.005233  
2683.000000	0.005204  
2682.000000	0.005195  
2681.000000	0.005218  
2680.000000	0.005253  
2679.000000	0.005284  
2678.000000	0.005314  
2677.000000	0.005348  
2676.000000	0.005372  
2675.000000	0.005375  
2674.000000	0.005373  
2673.000000	0.005392  
2672.000000	0.005428  
2671.000000	0.005444  
2670.000000	0.005409  
2669.000000	0.005321  
2668.000000	0.005200  
2667.000000	0.005068  
2666.000000	0.004949  
2665.000000	0.004870  
2664.000000	0.004847  
2663.000000	0.004872  
2662.000000	0.004897  
2661.000000	0.004863  
2660.000000	0.004743  
2659.000000	0.004587  
2658.000000	0.004497  
2657.000000	0.004544  
2656.000000	0.004699  
2655.000000	0.004843  
2654.000000	0.004858  
2653.000000	0.004722  
2652.000000	0.004510  
2651.000000	0.004334  
2650.000000	0.004250  
2649.000000	0.004228  
2648.000000	0.004204  
2647.000000	0.004155  
2646.000000	0.004118  
2645.000000	0.004124  
2644.000000	0.004151  
2643.000000	0.004159  
2642.000000	0.004142  
2641.000000	0.004133  
2640.000000	0.004148  
2639.000000	0.004163  
2638.000000	0.004133  
2637.000000	0.004035  
2636.000000	0.003894  
2635.000000	0.003775  
2634.000000	0.003734  
2633.000000	0.003763  
2632.000000	0.003791  
2631.000000	0.003765  
2630.000000	0.003707  
2629.000000	0.003682  
2628.000000	0.003712  
2627.000000	0.003766  
2626.000000	0.003819  
2625.000000	0.003872  
2624.000000	0.003913  
2623.000000	0.003902  
2622.000000	0.003830  
2621.000000	0.003758  
2620.000000	0.003761  
2619.000000	0.003841  
2618.000000	0.003918  
2617.000000	0.003914  
2616.000000	0.003816  
2615.000000	0.003675  
2614.000000	0.003557  
2613.000000	0.003497  
2612.000000	0.003477  
2611.000000	0.003447  
2610.000000	0.003380  
2609.000000	0.003310  
2608.000000	0.003306  
2607.000000	0.003395  
2606.000000	0.003522  
2605.000000	0.003584  
2604.000000	0.003515  
2603.000000	0.003336  
2602.000000	0.003128  
2601.000000	0.002974  
2600.000000	0.002917  
2599.000000	0.002947  
2598.000000	0.003017  
2597.000000	0.003068  
2596.000000	0.003066  
2595.000000	0.003014  
2594.000000	0.002935  
2593.000000	0.002848  
2592.000000	0.002777  
2591.000000	0.002752  
2590.000000	0.002795  
2589.000000	0.002878  
2588.000000	0.002948  
2587.000000	0.002978  
2586.000000	0.003007  
2585.000000	0.003091  
2584.000000	0.003228  
2583.000000	0.003335  
2582.000000	0.003307  
2581.000000	0.003115  
2580.000000	0.002848  
2579.000000	0.002639  
2578.000000	0.002544  
2577.000000	0.002490  
2576.000000	0.002389  
2575.000000	0.002260  
2574.000000	0.002208  
2573.000000	0.002280  
2572.000000	0.002393  
2571.000000	0.002423  
2570.000000	0.002338  
2569.000000	0.002213  
2568.000000	0.002161  
2567.000000	0.002250  
2566.000000	0.002450  
2565.000000	0.002641  
2564.000000	0.002690  
2563.000000	0.002557  
2562.000000	0.002326  
2561.000000	0.002128  
2560.000000	0.002061  
2559.000000	0.002159  
2558.000000	0.002383  
2557.000000	0.002616  
2556.000000	0.002716  
2555.000000	0.002624  
2554.000000	0.002417  
2553.000000	0.002212  
2552.000000	0.002072  
2551.000000	0.001996  
2550.000000	0.001972  
2549.000000	0.001975  
2548.000000	0.001971  
2547.000000	0.001960  
2546.000000	0.001992  
2545.000000	0.002091  
2544.000000	0.002189  
2543.000000	0.002196  
2542.000000	0.002127  
2541.000000	0.002074  
2540.000000	0.002078  
2539.000000	0.002094  
2538.000000	0.002089  
2537.000000	0.002087  
2536.000000	0.002103  
2535.000000	0.002087  
2534.000000	0.001982  
2533.000000	0.001811  
2532.000000	0.001658  
2531.000000	0.001600  
2530.000000	0.001674  
2529.000000	0.001867  
2528.000000	0.002112  
2527.000000	0.002291  
2526.000000	0.002309  
2525.000000	0.002164  
2524.000000	0.001937  
2523.000000	0.001727  
2522.000000	0.001606  
2521.000000	0.001609  
2520.000000	0.001715  
2519.000000	0.001848  
2518.000000	0.001926  
2517.000000	0.001947  
2516.000000	0.001985  
2515.000000	0.002094  
2514.000000	0.002237  
2513.000000	0.002327  
2512.000000	0.002320  
2511.000000	0.002243  
2510.000000	0.002135  
2509.000000	0.002017  
2508.000000	0.001907  
2507.000000	0.001824  
2506.000000	0.001752  
2505.000000	0.001654  
2504.000000	0.001546  
2503.000000	0.001521  
2502.000000	0.001649  
2501.000000	0.001879  
2500.000000	0.002086  
2499.000000	0.002197  
2498.000000	0.002221  
2497.000000	0.002179  
2496.000000	0.002080  
2495.000000	0.001950  
2494.000000	0.001823  
2493.000000	0.001694  
2492.000000	0.001540  
2491.000000	0.001403  
2490.000000	0.001385  
2489.000000	0.001524  
2488.000000	0.001728  
2487.000000	0.001870  
2486.000000	0.001906  
2485.000000	0.001855  
2484.000000	0.001733  
2483.000000	0.001558  
2482.000000	0.001398  
2481.000000	0.001344  
2480.000000	0.001416  
2479.000000	0.001543  
2478.000000	0.001615  
2477.000000	0.001567  
2476.000000	0.001419  
2475.000000	0.001260  
2474.000000	0.001177  
2473.000000	0.001178  
2472.000000	0.001192  
2471.000000	0.001160  
2470.000000	0.001090  
2469.000000	0.001028  
2468.000000	0.001001  
2467.000000	0.001010  
2466.000000	0.001050  
2465.000000	0.001098  
2464.000000	0.001130  
2463.000000	0.001149  
2462.000000	0.001178  
2461.000000	0.001207  
2460.000000	0.001193  
2459.000000	0.001138  
2458.000000	0.001097  
2457.000000	0.001096  
2456.000000	0.001077  
2455.000000	0.000993  
2454.000000	0.000902  
2453.000000	0.000917  
2452.000000	0.001073  
2451.000000	0.001298  
2450.000000	0.001489  
2449.000000	0.001567  
2448.000000	0.001514  
2447.000000	0.001388  
2446.000000	0.001292  
2445.000000	0.001281  
2444.000000	0.001311  
2443.000000	0.001324  
2442.000000	0.001333  
2441.000000	0.001381  
2440.000000	0.001442  
2439.000000	0.001449  
2438.000000	0.001405  
2437.000000	0.001388  
2436.000000	0.001428  
2435.000000	0.001451  
2434.000000	0.001372  
2433.000000	0.001197  
2432.000000	0.001028  
2431.000000	0.000972  
2430.000000	0.001056  
2429.000000	0.001197  
2428.000000	0.001265  
2427.000000	0.001209  
2426.000000	0.001120  
2425.000000	0.001135  
2424.000000	0.001284  
2423.000000	0.001467  
2422.000000	0.001560  
2421.000000	0.001522  
2420.000000	0.001399  
2419.000000	0.001273  
2418.000000	0.001226  
2417.000000	0.001298  
2416.000000	0.001449  
2415.000000	0.001580  
2414.000000	0.001621  
2413.000000	0.001580  
2412.000000	0.001491  
2411.000000	0.001360  
2410.000000	0.001183  
2409.000000	0.001004  
2408.000000	0.000918  
2407.000000	0.000973  
2406.000000	0.001101  
2405.000000	0.001175  
2404.000000	0.001154  
2403.000000	0.001117  
2402.000000	0.001152  
2401.000000	0.001241  
2400.000000	0.001302  
2399.000000	0.001308  
2398.000000	0.001303  
2397.000000	0.001317  
2396.000000	0.001328  
2395.000000	0.001328  
2394.000000	0.001344  
2393.000000	0.001381  
2392.000000	0.001389  
2391.000000	0.001341  
2390.000000	0.001273  
2389.000000	0.001223  
2388.000000	0.001180  
2387.000000	0.001130  
2386.000000	0.001106  
2385.000000	0.001155  
2384.000000	0.001287  
2383.000000	0.001490  
2382.000000	0.001764  
2381.000000	0.002074  
2380.000000	0.002304  
2379.000000	0.002334  
2378.000000	0.002154  
2377.000000	0.001829  
2376.000000	0.001384  
2375.000000	0.000840  
2374.000000	0.000352  
2373.000000	0.000163  
2372.000000	0.000326  
2371.000000	0.000641  
2370.000000	0.000915  
2369.000000	0.001126  
2368.000000	0.001265  
2367.000000	0.001261  
2366.000000	0.001159  
2365.000000	0.001100  
2364.000000	0.001023  
2363.000000	0.000723  
2362.000000	0.000221  
2361.000000	-0.000135 
2360.000000	-0.000088 
2359.000000	0.000192  
2358.000000	0.000480  
2357.000000	0.000755  
2356.000000	0.001063  
2355.000000	0.001469  
2354.000000	0.001986  
2353.000000	0.002452  
2352.000000	0.002464  
2351.000000	0.001916  
2350.000000	0.001244  
2349.000000	0.000915  
2348.000000	0.001037  
2347.000000	0.001233  
2346.000000	0.001119  
2345.000000	0.000730  
2344.000000	0.000322  
2343.000000	0.000086  
2342.000000	0.000008  
2341.000000	0.000179  
2340.000000	0.000576  
2339.000000	0.000992  
2338.000000	0.001234  
2337.000000	0.001270  
2336.000000	0.001198  
2335.000000	0.001107  
2334.000000	0.001101  
2333.000000	0.001185  
2332.000000	0.001232  
2331.000000	0.001084  
2330.000000	0.000866  
2329.000000	0.000708  
2328.000000	0.000736  
2327.000000	0.000830  
2326.000000	0.000959  
2325.000000	0.001105  
2324.000000	0.001248  
2323.000000	0.001369  
2322.000000	0.001421  
2321.000000	0.001405  
2320.000000	0.001290  
2319.000000	0.001117  
2318.000000	0.001017  
2317.000000	0.001106  
2316.000000	0.001389  
2315.000000	0.001684  
2314.000000	0.001838  
2313.000000	0.001746  
2312.000000	0.001488  
2311.000000	0.001181  
2310.000000	0.001007  
2309.000000	0.000991  
2308.000000	0.001077  
2307.000000	0.001125  
2306.000000	0.001101  
2305.000000	0.001010  
2304.000000	0.000888  
2303.000000	0.000745  
2302.000000	0.000621  
2301.000000	0.000522  
2300.000000	0.000445  
2299.000000	0.000365  
2298.000000	0.000318  
2297.000000	0.000315  
2296.000000	0.000341  
2295.000000	0.000345  
2294.000000	0.000339  
2293.000000	0.000332  
2292.000000	0.000298  
2291.000000	0.000218  
2290.000000	0.000159  
2289.000000	0.000209  
2288.000000	0.000355  
2287.000000	0.000496  
2286.000000	0.000567  
2285.000000	0.000590  
2284.000000	0.000597  
2283.000000	0.000593  
2282.000000	0.000600  
2281.000000	0.000662  
2280.000000	0.000768  
2279.000000	0.000853  
2278.000000	0.000879  
2277.000000	0.000876  
2276.000000	0.000851  
2275.000000	0.000759  
2274.000000	0.000587  
2273.000000	0.000408  
2272.000000	0.000304  
2271.000000	0.000299  
2270.000000	0.000397  
2269.000000	0.000604  
2268.000000	0.000879  
2267.000000	0.001118  
2266.000000	0.001223  
2265.000000	0.001146  
2264.000000	0.000875  
2263.000000	0.000448  
2262.000000	0.000019  
2261.000000	-0.000190 
2260.000000	-0.000103 
2259.000000	0.000119  
2258.000000	0.000223  
2257.000000	0.000109  
2256.000000	-0.000099 
2255.000000	-0.000190 
2254.000000	-0.000035 
2253.000000	0.000325  
2252.000000	0.000727  
2251.000000	0.001003  
2250.000000	0.001077  
2249.000000	0.000961  
2248.000000	0.000722  
2247.000000	0.000480  
2246.000000	0.000379  
2245.000000	0.000473  
2244.000000	0.000644  
2243.000000	0.000715  
2242.000000	0.000628  
2241.000000	0.000476  
2240.000000	0.000368  
2239.000000	0.000346  
2238.000000	0.000412  
2237.000000	0.000523  
2236.000000	0.000558  
2235.000000	0.000396  
2234.000000	0.000077  
2233.000000	-0.000179 
2232.000000	-0.000170 
2231.000000	0.000116  
2230.000000	0.000499  
2229.000000	0.000726  
2228.000000	0.000641  
2227.000000	0.000304  
2226.000000	-0.000029 
2225.000000	-0.000116 
2224.000000	0.000066  
2223.000000	0.000367  
2222.000000	0.000636  
2221.000000	0.000785  
2220.000000	0.000744  
2219.000000	0.000498  
2218.000000	0.000165  
2217.000000	-0.000065 
2216.000000	-0.000106 
2215.000000	0.000019  
2214.000000	0.000279  
2213.000000	0.000625  
2212.000000	0.000905  
2211.000000	0.000953  
2210.000000	0.000800  
2209.000000	0.000671  
2208.000000	0.000737  
2207.000000	0.000957  
2206.000000	0.001181  
2205.000000	0.001293  
2204.000000	0.001251  
2203.000000	0.001090  
2202.000000	0.000921  
2201.000000	0.000815  
2200.000000	0.000711  
2199.000000	0.000522  
2198.000000	0.000320  
2197.000000	0.000245  
2196.000000	0.000273  
2195.000000	0.000246  
2194.000000	0.000165  
2193.000000	0.000228  
2192.000000	0.000519  
2191.000000	0.000850  
2190.000000	0.001016  
2189.000000	0.001019  
2188.000000	0.000922  
2187.000000	0.000675  
2186.000000	0.000242  
2185.000000	-0.000187 
2184.000000	-0.000346 
2183.000000	-0.000190 
2182.000000	0.000071  
2181.000000	0.000227  
2180.000000	0.000265  
2179.000000	0.000320  
2178.000000	0.000497  
2177.000000	0.000742  
2176.000000	0.000856  
2175.000000	0.000700  
2174.000000	0.000389  
2173.000000	0.000200  
2172.000000	0.000261  
2171.000000	0.000420  
2170.000000	0.000446  
2169.000000	0.000301  
2168.000000	0.000168  
2167.000000	0.000260  
2166.000000	0.000639  
2165.000000	0.001177  
2164.000000	0.001672  
2163.000000	0.002006  
2162.000000	0.002178  
2161.000000	0.002168  
2160.000000	0.001889  
2159.000000	0.001360  
2158.000000	0.000808  
2157.000000	0.000446  
2156.000000	0.000241  
2155.000000	0.000055  
2154.000000	-0.000104 
2153.000000	-0.000131 
2152.000000	-0.000027 
2151.000000	0.000080  
2150.000000	0.000095  
2149.000000	0.000027  
2148.000000	-0.000046 
2147.000000	-0.000020 
2146.000000	0.000182  
2145.000000	0.000487  
2144.000000	0.000673  
2143.000000	0.000603  
2142.000000	0.000393  
2141.000000	0.000255  
2140.000000	0.000258  
2139.000000	0.000336  
2138.000000	0.000448  
2137.000000	0.000581  
2136.000000	0.000680  
2135.000000	0.000713  
2134.000000	0.000758  
2133.000000	0.000854  
2132.000000	0.000865  
2131.000000	0.000633  
2130.000000	0.000228  
2129.000000	-0.000108 
2128.000000	-0.000229 
2127.000000	-0.000155 
2126.000000	0.000060  
2125.000000	0.000372  
2124.000000	0.000645  
2123.000000	0.000721  
2122.000000	0.000617  
2121.000000	0.000525  
2120.000000	0.000570  
2119.000000	0.000684  
2118.000000	0.000751  
2117.000000	0.000743  
2116.000000	0.000699  
2115.000000	0.000655  
2114.000000	0.000660  
2113.000000	0.000732  
2112.000000	0.000785  
2111.000000	0.000701  
2110.000000	0.000507  
2109.000000	0.000368  
2108.000000	0.000371  
2107.000000	0.000443  
2106.000000	0.000513  
2105.000000	0.000611  
2104.000000	0.000748  
2103.000000	0.000837  
2102.000000	0.000812  
2101.000000	0.000720  
2100.000000	0.000597  
2099.000000	0.000394  
2098.000000	0.000109  
2097.000000	-0.000091 
2096.000000	-0.000028 
2095.000000	0.000282  
2094.000000	0.000657  
2093.000000	0.000919  
2092.000000	0.000992  
2091.000000	0.000907  
2090.000000	0.000786  
2089.000000	0.000758  
2088.000000	0.000809  
2087.000000	0.000796  
2086.000000	0.000647  
2085.000000	0.000468  
2084.000000	0.000393  
2083.000000	0.000397  
2082.000000	0.000359  
2081.000000	0.000237  
2080.000000	0.000107  
2079.000000	0.000071  
2078.000000	0.000180  
2077.000000	0.000398  
2076.000000	0.000579  
2075.000000	0.000554  
2074.000000	0.000312  
2073.000000	0.000048  
2072.000000	-0.000031 
2071.000000	0.000085  
2070.000000	0.000255  
2069.000000	0.000352  
2068.000000	0.000348  
2067.000000	0.000289  
2066.000000	0.000247  
2065.000000	0.000251  
2064.000000	0.000246  
2063.000000	0.000190  
2062.000000	0.000179  
2061.000000	0.000368  
2060.000000	0.000743  
2059.000000	0.001094  
2058.000000	0.001248  
2057.000000	0.001220  
2056.000000	0.001092  
2055.000000	0.000871  
2054.000000	0.000565  
2053.000000	0.000271  
2052.000000	0.000102  
2051.000000	0.000087  
2050.000000	0.000210  
2049.000000	0.000412  
2048.000000	0.000538  
2047.000000	0.000419  
2046.000000	0.000130  
2045.000000	-0.000014 
2044.000000	0.000187  
2043.000000	0.000601  
2042.000000	0.000966  
2041.000000	0.001163  
2040.000000	0.001165  
2039.000000	0.000933  
2038.000000	0.000537  
2037.000000	0.000222  
2036.000000	0.000130  
2035.000000	0.000101  
2034.000000	-0.000042 
2033.000000	-0.000144 
2032.000000	0.000075  
2031.000000	0.000567  
2030.000000	0.000989  
2029.000000	0.001131  
2028.000000	0.001109  
2027.000000	0.001139  
2026.000000	0.001304  
2025.000000	0.001519  
2024.000000	0.001600  
2023.000000	0.001401  
2022.000000	0.001005  
2021.000000	0.000715  
2020.000000	0.000728  
2019.000000	0.000864  
2018.000000	0.000764  
2017.000000	0.000342  
2016.000000	-0.000117 
2015.000000	-0.000319 
2014.000000	-0.000234 
2013.000000	-0.000022 
2012.000000	0.000151  
2011.000000	0.000242  
2010.000000	0.000324  
2009.000000	0.000464  
2008.000000	0.000607  
2007.000000	0.000657  
2006.000000	0.000657  
2005.000000	0.000726  
2004.000000	0.000816  
2003.000000	0.000722  
2002.000000	0.000406  
2001.000000	0.000162  
2000.000000	0.000316  
1999.000000	0.000849  
1998.000000	0.001423  
1997.000000	0.001709  
1996.000000	0.001604  
1995.000000	0.001196  
1994.000000	0.000694  
1993.000000	0.000375  
1992.000000	0.000385  
1991.000000	0.000545  
1990.000000	0.000561  
1989.000000	0.000365  
1988.000000	0.000140  
1987.000000	0.000060  
1986.000000	0.000112  
1985.000000	0.000180  
1984.000000	0.000222  
1983.000000	0.000293  
1982.000000	0.000411  
1981.000000	0.000472  
1980.000000	0.000372  
1979.000000	0.000183  
1978.000000	0.000083  
1977.000000	0.000052  
1976.000000	-0.000173 
1975.000000	-0.000665 
1974.000000	-0.001045 
1973.000000	-0.000892 
1972.000000	-0.000304 
1971.000000	0.000239  
1970.000000	0.000502  
1969.000000	0.000677  
1968.000000	0.000959  
1967.000000	0.001223  
1966.000000	0.001306  
1965.000000	0.001316  
1964.000000	0.001427  
1963.000000	0.001609  
1962.000000	0.001742  
1961.000000	0.001818  
1960.000000	0.001865  
1959.000000	0.001798  
1958.000000	0.001516  
1957.000000	0.001071  
1956.000000	0.000611  
1955.000000	0.000234  
1954.000000	0.000000  
1953.000000	-0.000016 
1952.000000	0.000164  
1951.000000	0.000340  
1950.000000	0.000302  
1949.000000	0.000107  
1948.000000	0.000044  
1947.000000	0.000310  
1946.000000	0.000807  
1945.000000	0.001254  
1944.000000	0.001435  
1943.000000	0.001326  
1942.000000	0.001066  
1941.000000	0.000812  
1940.000000	0.000632  
1939.000000	0.000545  
1938.000000	0.000559  
1937.000000	0.000644  
1936.000000	0.000710  
1935.000000	0.000695  
1934.000000	0.000643  
1933.000000	0.000613  
1932.000000	0.000570  
1931.000000	0.000440  
1930.000000	0.000280  
1929.000000	0.000235  
1928.000000	0.000321  
1927.000000	0.000397  
1926.000000	0.000376  
1925.000000	0.000342  
1924.000000	0.000413  
1923.000000	0.000554  
1922.000000	0.000650  
1921.000000	0.000680  
1920.000000	0.000709  
1919.000000	0.000774  
1918.000000	0.000892  
1917.000000	0.001048  
1916.000000	0.001145  
1915.000000	0.001059  
1914.000000	0.000780  
1913.000000	0.000505  
1912.000000	0.000486  
1911.000000	0.000773  
1910.000000	0.001150  
1909.000000	0.001349  
1908.000000	0.001283  
1907.000000	0.001047  
1906.000000	0.000780  
1905.000000	0.000586  
1904.000000	0.000502  
1903.000000	0.000491  
1902.000000	0.000499  
1901.000000	0.000507  
1900.000000	0.000514  
1899.000000	0.000510  
1898.000000	0.000470  
1897.000000	0.000373  
1896.000000	0.000230  
1895.000000	0.000102  
1894.000000	0.000089  
1893.000000	0.000242  
1892.000000	0.000497  
1891.000000	0.000724  
1890.000000	0.000825  
1889.000000	0.000811  
1888.000000	0.000767  
1887.000000	0.000763  
1886.000000	0.000818  
1885.000000	0.000885  
1884.000000	0.000877  
1883.000000	0.000754  
1882.000000	0.000597  
1881.000000	0.000525  
1880.000000	0.000545  
1879.000000	0.000572  
1878.000000	0.000582  
1877.000000	0.000629  
1876.000000	0.000729  
1875.000000	0.000809  
1874.000000	0.000847  
1873.000000	0.000921  
1872.000000	0.001077  
1871.000000	0.001218  
1870.000000	0.001196  
1869.000000	0.001021  
1868.000000	0.000853  
1867.000000	0.000768  
1866.000000	0.000724  
1865.000000	0.000695  
1864.000000	0.000674  
1863.000000	0.000642  
1862.000000	0.000600  
1861.000000	0.000578  
1860.000000	0.000576  
1859.000000	0.000528  
1858.000000	0.000406  
1857.000000	0.000297  
1856.000000	0.000299  
1855.000000	0.000412  
1854.000000	0.000562  
1853.000000	0.000708  
1852.000000	0.000834  
1851.000000	0.000925  
1850.000000	0.000974  
1849.000000	0.001019  
1848.000000	0.001109  
1847.000000	0.001220  
1846.000000	0.001276  
1845.000000	0.001251  
1844.000000	0.001198  
1843.000000	0.001133  
1842.000000	0.001042  
1841.000000	0.000945  
1840.000000	0.000846  
1839.000000	0.000737  
1838.000000	0.000622  
1837.000000	0.000543  
1836.000000	0.000541  
1835.000000	0.000585  
1834.000000	0.000606  
1833.000000	0.000570  
1832.000000	0.000503  
1831.000000	0.000475  
1830.000000	0.000527  
1829.000000	0.000606  
1828.000000	0.000651  
1827.000000	0.000667  
1826.000000	0.000683  
1825.000000	0.000716  
1824.000000	0.000731  
1823.000000	0.000684  
1822.000000	0.000580  
1821.000000	0.000466  
1820.000000	0.000398  
1819.000000	0.000419  
1818.000000	0.000537  
1817.000000	0.000728  
1816.000000	0.000923  
1815.000000	0.001050  
1814.000000	0.001095  
1813.000000	0.001079  
1812.000000	0.001024  
1811.000000	0.000948  
1810.000000	0.000894  
1809.000000	0.000906  
1808.000000	0.000940  
1807.000000	0.000915  
1806.000000	0.000850  
1805.000000	0.000850  
1804.000000	0.000958  
1803.000000	0.001091  
1802.000000	0.001167  
1801.000000	0.001207  
1800.000000	0.001271  
1799.000000	0.001336  
1798.000000	0.001356  
1797.000000	0.001345  
1796.000000	0.001332  
1795.000000	0.001308  
1794.000000	0.001287  
1793.000000	0.001357  
1792.000000	0.001538  
1791.000000	0.001649  
1790.000000	0.001613  
1789.000000	0.001561  
1788.000000	0.001585  
1787.000000	0.001651  
1786.000000	0.001695  
1785.000000	0.001715  
1784.000000	0.001751  
1783.000000	0.001815  
1782.000000	0.001904  
1781.000000	0.002029  
1780.000000	0.002182  
1779.000000	0.002301  
1778.000000	0.002347  
1777.000000	0.002368  
1776.000000	0.002407  
1775.000000	0.002449  
1774.000000	0.002445  
1773.000000	0.002462  
1772.000000	0.002636  
1771.000000	0.002903  
1770.000000	0.003129  
1769.000000	0.003322  
1768.000000	0.003491  
1767.000000	0.003583  
1766.000000	0.003638  
1765.000000	0.003800  
1764.000000	0.004146  
1763.000000	0.004592  
1762.000000	0.004985  
1761.000000	0.005317  
1760.000000	0.005734  
1759.000000	0.006287  
1758.000000	0.006953  
1757.000000	0.007754  
1756.000000	0.008660  
1755.000000	0.009590  
1754.000000	0.010624  
1753.000000	0.012079  
1752.000000	0.014383  
1751.000000	0.017722  
1750.000000	0.022077  
1749.000000	0.027660  
1748.000000	0.034286  
1747.000000	0.041116  
1746.000000	0.047883  
1745.000000	0.055087  
1744.000000	0.062603  
1743.000000	0.069077  
1742.000000	0.073324  
1741.000000	0.075120  
1740.000000	0.074350  
1739.000000	0.071322  
1738.000000	0.067430  
1737.000000	0.063493  
1736.000000	0.058687  
1735.000000	0.051033  
1734.000000	0.041345  
1733.000000	0.033936  
1732.000000	0.029620  
1731.000000	0.026393  
1730.000000	0.023365  
1729.000000	0.020593  
1728.000000	0.018316  
1727.000000	0.016553  
1726.000000	0.015220  
1725.000000	0.014154  
1724.000000	0.013198  
1723.000000	0.012327  
1722.000000	0.011623  
1721.000000	0.011076  
1720.000000	0.010510  
1719.000000	0.009763  
1718.000000	0.008987  
1717.000000	0.008493  
1716.000000	0.008155  
1715.000000	0.007731  
1714.000000	0.007267  
1713.000000	0.006848  
1712.000000	0.006467  
1711.000000	0.006089  
1710.000000	0.005732  
1709.000000	0.005430  
1708.000000	0.005184  
1707.000000	0.004995  
1706.000000	0.004894  
1705.000000	0.004882  
1704.000000	0.004894  
1703.000000	0.004914  
1702.000000	0.004926  
1701.000000	0.004869  
1700.000000	0.004673  
1699.000000	0.004447  
1698.000000	0.004399  
1697.000000	0.004441  
1696.000000	0.004378  
1695.000000	0.004188  
1694.000000	0.004020  
1693.000000	0.003976  
1692.000000	0.003963  
1691.000000	0.003907  
1690.000000	0.003861  
1689.000000	0.003860  
1688.000000	0.003872  
1687.000000	0.003903  
1686.000000	0.003983  
1685.000000	0.004160  
1684.000000	0.004340  
1683.000000	0.004364  
1682.000000	0.004358  
1681.000000	0.004365  
1680.000000	0.004274  
1679.000000	0.004118  
1678.000000	0.004029  
1677.000000	0.004048  
1676.000000	0.004111  
1675.000000	0.004157  
1674.000000	0.004200  
1673.000000	0.004263  
1672.000000	0.004292  
1671.000000	0.004256  
1670.000000	0.004304  
1669.000000	0.004511  
1668.000000	0.004718  
1667.000000	0.004859  
1666.000000	0.004991  
1665.000000	0.005149  
1664.000000	0.005355  
1663.000000	0.005643  
1662.000000	0.006003  
1661.000000	0.006338  
1660.000000	0.006585  
1659.000000	0.006749  
1658.000000	0.006886  
1657.000000	0.007014  
1656.000000	0.007098  
1655.000000	0.006995  
1654.000000	0.006834  
1653.000000	0.007173  
1652.000000	0.007725  
1651.000000	0.008108  
1650.000000	0.008405  
1649.000000	0.008551  
1648.000000	0.008541  
1647.000000	0.008553  
1646.000000	0.008712  
1645.000000	0.008902  
1644.000000	0.009012  
1643.000000	0.009033  
1642.000000	0.009028  
1641.000000	0.009073  
1640.000000	0.009161  
1639.000000	0.009223  
1638.000000	0.009202  
1637.000000	0.009133  
1636.000000	0.009089  
1635.000000	0.009031  
1634.000000	0.008919  
1633.000000	0.008852  
1632.000000	0.008839  
1631.000000	0.008805  
1630.000000	0.008714  
1629.000000	0.008569  
1628.000000	0.008393  
1627.000000	0.008214  
1626.000000	0.008043  
1625.000000	0.007852  
1624.000000	0.007623  
1623.000000	0.007421  
1622.000000	0.007301  
1621.000000	0.007224  
1620.000000	0.007111  
1619.000000	0.006912  
1618.000000	0.006637  
1617.000000	0.006395  
1616.000000	0.006252  
1615.000000	0.006173  
1614.000000	0.006126  
1613.000000	0.006064  
1612.000000	0.005931  
1611.000000	0.005736  
1610.000000	0.005556  
1609.000000	0.005435  
1608.000000	0.005345  
1607.000000	0.005269  
1606.000000	0.005247  
1605.000000	0.005283  
1604.000000	0.005316  
1603.000000	0.005287  
1602.000000	0.005194  
1601.000000	0.005076  
1600.000000	0.004960  
1599.000000	0.004868  
1598.000000	0.004832  
1597.000000	0.004872  
1596.000000	0.004966  
1595.000000	0.005080  
1594.000000	0.005199  
1593.000000	0.005321  
1592.000000	0.005442  
1591.000000	0.005569  
1590.000000	0.005720  
1589.000000	0.005881  
1588.000000	0.006025  
1587.000000	0.006164  
1586.000000	0.006343  
1585.000000	0.006568  
1584.000000	0.006778  
1583.000000	0.006934  
1582.000000	0.007059  
1581.000000	0.007185  
1580.000000	0.007302  
1579.000000	0.007390  
1578.000000	0.007459  
1577.000000	0.007605  
1576.000000	0.007876  
1575.000000	0.008101  
1574.000000	0.008202  
1573.000000	0.008237  
1572.000000	0.008229  
1571.000000	0.008218  
1570.000000	0.008290  
1569.000000	0.008428  
1568.000000	0.008496  
1567.000000	0.008469  
1566.000000	0.008382  
1565.000000	0.008258  
1564.000000	0.008098  
1563.000000	0.007928  
1562.000000	0.007783  
1561.000000	0.007659  
1560.000000	0.007531  
1559.000000	0.007362  
1558.000000	0.007172  
1557.000000	0.007071  
1556.000000	0.006994  
1555.000000	0.006786  
1554.000000	0.006488  
1553.000000	0.006269  
1552.000000	0.006185  
1551.000000	0.006113  
1550.000000	0.005933  
1549.000000	0.005707  
1548.000000	0.005564  
1547.000000	0.005535  
1546.000000	0.005563  
1545.000000	0.005583  
1544.000000	0.005478  
1543.000000	0.005148  
1542.000000	0.004679  
1541.000000	0.004445  
1540.000000	0.004707  
1539.000000	0.005000  
1538.000000	0.005069  
1537.000000	0.005100  
1536.000000	0.005121  
1535.000000	0.005076  
1534.000000	0.005025  
1533.000000	0.005040  
1532.000000	0.005058  
1531.000000	0.005031  
1530.000000	0.004995  
1529.000000	0.005002  
1528.000000	0.005045  
1527.000000	0.005035  
1526.000000	0.004937  
1525.000000	0.004831  
1524.000000	0.004779  
1523.000000	0.004772  
1522.000000	0.004892  
1521.000000	0.005165  
1520.000000	0.005361  
1519.000000	0.005445  
1518.000000	0.005530  
1517.000000	0.005638  
1516.000000	0.005675  
1515.000000	0.005629  
1514.000000	0.005655  
1513.000000	0.005830  
1512.000000	0.006081  
1511.000000	0.006315  
1510.000000	0.006550  
1509.000000	0.006861  
1508.000000	0.007110  
1507.000000	0.006949  
1506.000000	0.006734  
1505.000000	0.006856  
1504.000000	0.007136  
1503.000000	0.007372  
1502.000000	0.007517  
1501.000000	0.007629  
1500.000000	0.007729  
1499.000000	0.007814  
1498.000000	0.008028  
1497.000000	0.008504  
1496.000000	0.008955  
1495.000000	0.009073  
1494.000000	0.009052  
1493.000000	0.009143  
1492.000000	0.009370  
1491.000000	0.009695  
1490.000000	0.010192  
1489.000000	0.010819  
1488.000000	0.011299  
1487.000000	0.011559  
1486.000000	0.011820  
1485.000000	0.012246  
1484.000000	0.012821  
1483.000000	0.013562  
1482.000000	0.014595  
1481.000000	0.015912  
1480.000000	0.017251  
1479.000000	0.018499  
1478.000000	0.019887  
1477.000000	0.021640  
1476.000000	0.023627  
1475.000000	0.025854  
1474.000000	0.029505  
1473.000000	0.036100  
1472.000000	0.044167  
1471.000000	0.051008  
1470.000000	0.056700  
1469.000000	0.061996  
1468.000000	0.066847  
1467.000000	0.070992  
1466.000000	0.074496  
1465.000000	0.077370  
1464.000000	0.079210  
1463.000000	0.080051  
1462.000000	0.080447  
1461.000000	0.080718  
1460.000000	0.080905  
1459.000000	0.081197  
1458.000000	0.081954  
1457.000000	0.082262  
1456.000000	0.080694  
1455.000000	0.078180  
1454.000000	0.075607  
1453.000000	0.072879  
1452.000000	0.069959  
1451.000000	0.067173  
1450.000000	0.064720  
1449.000000	0.062317  
1448.000000	0.059636  
1447.000000	0.056812  
1446.000000	0.054098  
1445.000000	0.051431  
1444.000000	0.048723  
1443.000000	0.046072  
1442.000000	0.043612  
1441.000000	0.041388  
1440.000000	0.039421  
1439.000000	0.037684  
1438.000000	0.035924  
1437.000000	0.033786  
1436.000000	0.031493  
1435.000000	0.029664  
1434.000000	0.028272  
1433.000000	0.026902  
1432.000000	0.025369  
1431.000000	0.023796  
1430.000000	0.022316  
1429.000000	0.020973  
1428.000000	0.019878  
1427.000000	0.019124  
1426.000000	0.018630  
1425.000000	0.018221  
1424.000000	0.017881  
1423.000000	0.017710  
1422.000000	0.017685  
1421.000000	0.017671  
1420.000000	0.017588  
1419.000000	0.017384  
1418.000000	0.016934  
1417.000000	0.016271  
1416.000000	0.015590  
1415.000000	0.015005  
1414.000000	0.014505  
1413.000000	0.014051  
1412.000000	0.013691  
1411.000000	0.013501  
1410.000000	0.013442  
1409.000000	0.013422  
1408.000000	0.013454  
1407.000000	0.013608  
1406.000000	0.013885  
1405.000000	0.014183  
1404.000000	0.014453  
1403.000000	0.014742  
1402.000000	0.015074  
1401.000000	0.015441  
1400.000000	0.015871  
1399.000000	0.016366  
1398.000000	0.016822  
1397.000000	0.017178  
1396.000000	0.017498  
1395.000000	0.017832  
1394.000000	0.018124  
1393.000000	0.018360  
1392.000000	0.018641  
1391.000000	0.019049  
1390.000000	0.019625  
1389.000000	0.020488  
1388.000000	0.021822  
1387.000000	0.023580  
1386.000000	0.025419  
1385.000000	0.027225  
1384.000000	0.029226  
1383.000000	0.031653  
1382.000000	0.034548  
1381.000000	0.037781  
1380.000000	0.041000  
1379.000000	0.043579  
1378.000000	0.044908  
1377.000000	0.044806  
1376.000000	0.043372  
1375.000000	0.040717  
1374.000000	0.037328  
1373.000000	0.034167  
1372.000000	0.031819  
1371.000000	0.030232  
1370.000000	0.029203  
1369.000000	0.028613  
1368.000000	0.028336  
1367.000000	0.028152  
1366.000000	0.027839  
1365.000000	0.027255  
1364.000000	0.026335  
1363.000000	0.025134  
1362.000000	0.023887  
1361.000000	0.022857  
1360.000000	0.022144  
1359.000000	0.021712  
1358.000000	0.021472  
1357.000000	0.021326  
1356.000000	0.021203  
1355.000000	0.021089  
1354.000000	0.020999  
1353.000000	0.020931  
1352.000000	0.020863  
1351.000000	0.020761  
1350.000000	0.020606  
1349.000000	0.020397  
1348.000000	0.020159  
1347.000000	0.019912  
1346.000000	0.019639  
1345.000000	0.019336  
1344.000000	0.019057  
1343.000000	0.018879  
1342.000000	0.018799  
1341.000000	0.018699  
1340.000000	0.018413  
1339.000000	0.017883  
1338.000000	0.017232  
1337.000000	0.016609  
1336.000000	0.016081  
1335.000000	0.015649  
1334.000000	0.015283  
1333.000000	0.014963  
1332.000000	0.014714  
1331.000000	0.014583  
1330.000000	0.014570  
1329.000000	0.014614  
1328.000000	0.014671  
1327.000000	0.014751  
1326.000000	0.014870  
1325.000000	0.015014  
1324.000000	0.015172  
1323.000000	0.015360  
1322.000000	0.015582  
1321.000000	0.015806  
1320.000000	0.015997  
1319.000000	0.016155  
1318.000000	0.016293  
1317.000000	0.016420  
1316.000000	0.016559  
1315.000000	0.016744  
1314.000000	0.016975  
1313.000000	0.017194  
1312.000000	0.017344  
1311.000000	0.017439  
1310.000000	0.017536  
1309.000000	0.017669  
1308.000000	0.017820  
1307.000000	0.017947  
1306.000000	0.018020  
1305.000000	0.018036  
1304.000000	0.018019  
1303.000000	0.017995  
1302.000000	0.017960  
1301.000000	0.017879  
1300.000000	0.017721  
1299.000000	0.017484  
1298.000000	0.017191  
1297.000000	0.016881  
1296.000000	0.016599  
1295.000000	0.016382  
1294.000000	0.016228  
1293.000000	0.016094  
1292.000000	0.015954  
1291.000000	0.015827  
1290.000000	0.015757  
1289.000000	0.015772  
1288.000000	0.015860  
1287.000000	0.016002  
1286.000000	0.016195  
1285.000000	0.016459  
1284.000000	0.016799  
1283.000000	0.017164  
1282.000000	0.017474  
1281.000000	0.017699  
1280.000000	0.017898  
1279.000000	0.018150  
1278.000000	0.018454  
1277.000000	0.018744  
1276.000000	0.018982  
1275.000000	0.019194  
1274.000000	0.019418  
1273.000000	0.019655  
1272.000000	0.019888  
1271.000000	0.020107  
1270.000000	0.020288  
1269.000000	0.020409  
1268.000000	0.020487  
1267.000000	0.020592  
1266.000000	0.020768  
1265.000000	0.020964  
1264.000000	0.021100  
1263.000000	0.021165  
1262.000000	0.021234  
1261.000000	0.021373  
1260.000000	0.021565  
1259.000000	0.021732  
1258.000000	0.021821  
1257.000000	0.021845  
1256.000000	0.021876  
1255.000000	0.021992  
1254.000000	0.022224  
1253.000000	0.022537  
1252.000000	0.022877  
1251.000000	0.023236  
1250.000000	0.023648  
1249.000000	0.024141  
1248.000000	0.024688  
1247.000000	0.025229  
1246.000000	0.025710  
1245.000000	0.026088  
1244.000000	0.026332  
1243.000000	0.026425  
1242.000000	0.026381  
1241.000000	0.026236  
1240.000000	0.026008  
1239.000000	0.025699  
1238.000000	0.025309  
1237.000000	0.024853  
1236.000000	0.024359  
1235.000000	0.023860  
1234.000000	0.023390  
1233.000000	0.022968  
1232.000000	0.022593  
1231.000000	0.022246  
1230.000000	0.021915  
1229.000000	0.021592  
1228.000000	0.021271  
1227.000000	0.020950  
1226.000000	0.020638  
1225.000000	0.020356  
1224.000000	0.020127  
1223.000000	0.019955  
1222.000000	0.019824  
1221.000000	0.019729  
1220.000000	0.019688  
1219.000000	0.019711  
1218.000000	0.019761  
1217.000000	0.019784  
1216.000000	0.019785  
1215.000000	0.019846  
1214.000000	0.020031  
1213.000000	0.020313  
1212.000000	0.020594  
1211.000000	0.020799  
1210.000000	0.020937  
1209.000000	0.021072  
1208.000000	0.021261  
1207.000000	0.021527  
1206.000000	0.021855  
1205.000000	0.022206  
1204.000000	0.022563  
1203.000000	0.022945  
1202.000000	0.023398  
1201.000000	0.023941  
1200.000000	0.024545  
1199.000000	0.025162  
1198.000000	0.025788  
1197.000000	0.026470  
1196.000000	0.027244  
1195.000000	0.028091  
1194.000000	0.028973  
1193.000000	0.029882  
1192.000000	0.030830  
1191.000000	0.031810  
1190.000000	0.032785  
1189.000000	0.033740  
1188.000000	0.034699  
1187.000000	0.035690  
1186.000000	0.036714  
1185.000000	0.037758  
1184.000000	0.038817  
1183.000000	0.039881  
1182.000000	0.040913  
1181.000000	0.041867  
1180.000000	0.042714  
1179.000000	0.043448  
1178.000000	0.044068  
1177.000000	0.044557  
1176.000000	0.044886  
1175.000000	0.045048  
1174.000000	0.045071  
1173.000000	0.044982  
1172.000000	0.044773  
1171.000000	0.044431  
1170.000000	0.043971  
1169.000000	0.043423  
1168.000000	0.042790  
1167.000000	0.042054  
1166.000000	0.041194  
1165.000000	0.040200  
1164.000000	0.039074  
1163.000000	0.037864  
1162.000000	0.036646  
1161.000000	0.035480  
1160.000000	0.034369  
1159.000000	0.033289  
1158.000000	0.032220  
1157.000000	0.031148  
1156.000000	0.030081  
1155.000000	0.029086  
1154.000000	0.028253  
1153.000000	0.027597  
1152.000000	0.027023  
1151.000000	0.026409  
1150.000000	0.025719  
1149.000000	0.024992  
1148.000000	0.024270  
1147.000000	0.023568  
1146.000000	0.022896  
1145.000000	0.022263  
1144.000000	0.021656  
1143.000000	0.021049  
1142.000000	0.020441  
1141.000000	0.019849  
1140.000000	0.019282  
1139.000000	0.018734  
1138.000000	0.018215  
1137.000000	0.017747  
1136.000000	0.017339  
1135.000000	0.016967  
1134.000000	0.016614  
1133.000000	0.016302  
1132.000000	0.016073  
1131.000000	0.015936  
1130.000000	0.015886  
1129.000000	0.015949  
1128.000000	0.016174  
1127.000000	0.016565  
1126.000000	0.017050  
1125.000000	0.017565  
1124.000000	0.018111  
1123.000000	0.018707  
1122.000000	0.019295  
1121.000000	0.019756  
1120.000000	0.020019  
1119.000000	0.020119  
1118.000000	0.020123  
1117.000000	0.020045  
1116.000000	0.019845  
1115.000000	0.019504  
1114.000000	0.019068  
1113.000000	0.018610  
1112.000000	0.018185  
1111.000000	0.017817  
1110.000000	0.017522  
1109.000000	0.017323  
1108.000000	0.017229  
1107.000000	0.017205  
1106.000000	0.017191  
1105.000000	0.017155  
1104.000000	0.017129  
1103.000000	0.017159  
1102.000000	0.017243  
1101.000000	0.017332  
1100.000000	0.017399  
1099.000000	0.017464  
1098.000000	0.017555  
1097.000000	0.017666  
1096.000000	0.017752  
1095.000000	0.017758  
1094.000000	0.017652  
1093.000000	0.017467  
1092.000000	0.017298  
1091.000000	0.017229  
1090.000000	0.017234  
1089.000000	0.017201  
1088.000000	0.017053  
1087.000000	0.016834  
1086.000000	0.016650  
1085.000000	0.016568  
1084.000000	0.016586  
1083.000000	0.016671  
1082.000000	0.016784  
1081.000000	0.016882  
1080.000000	0.016940  
1079.000000	0.016990  
1078.000000	0.017102  
1077.000000	0.017337  
1076.000000	0.017715  
1075.000000	0.018208  
1074.000000	0.018743  
1073.000000	0.019231  
1072.000000	0.019618  
1071.000000	0.019925  
1070.000000	0.020213  
1069.000000	0.020517  
1068.000000	0.020824  
1067.000000	0.021111  
1066.000000	0.021368  
1065.000000	0.021584  
1064.000000	0.021715  
1063.000000	0.021694  
1062.000000	0.021476  
1061.000000	0.021061  
1060.000000	0.020510  
1059.000000	0.019930  
1058.000000	0.019426  
1057.000000	0.019046  
1056.000000	0.018770  
1055.000000	0.018554  
1054.000000	0.018370  
1053.000000	0.018203  
1052.000000	0.018037  
1051.000000	0.017864  
1050.000000	0.017703  
1049.000000	0.017590  
1048.000000	0.017557  
1047.000000	0.017614  
1046.000000	0.017749  
1045.000000	0.017944  
1044.000000	0.018175  
1043.000000	0.018409  
1042.000000	0.018605  
1041.000000	0.018733  
1040.000000	0.018788  
1039.000000	0.018780  
1038.000000	0.018716  
1037.000000	0.018600  
1036.000000	0.018454  
1035.000000	0.018317  
1034.000000	0.018226  
1033.000000	0.018192  
1032.000000	0.018204  
1031.000000	0.018233  
1030.000000	0.018222  
1029.000000	0.018102  
1028.000000	0.017847  
1027.000000	0.017518  
1026.000000	0.017211  
1025.000000	0.016973  
1024.000000	0.016759  
1023.000000	0.016493  
1022.000000	0.016147  
1021.000000	0.015747  
1020.000000	0.015343  
1019.000000	0.014965  
1018.000000	0.014625  
1017.000000	0.014336  
1016.000000	0.014128  
1015.000000	0.014025  
1014.000000	0.013996  
1013.000000	0.013954  
1012.000000	0.013835  
1011.000000	0.013661  
1010.000000	0.013513  
1009.000000	0.013433  
1008.000000	0.013384  
1007.000000	0.013292  
1006.000000	0.013116  
1005.000000	0.012879  
1004.000000	0.012643  
1003.000000	0.012469  
1002.000000	0.012360  
1001.000000	0.012261  
1000.000000	0.012127  
999.000000	 0.011984  
998.000000	 0.011899  
997.000000	 0.011895  
996.000000	 0.011924  
995.000000	 0.011933  
994.000000	 0.011914  
993.000000	 0.011891  
992.000000	 0.011875  
991.000000	 0.011865  
990.000000	 0.011862  
989.000000	 0.011858  
988.000000	 0.011821  
987.000000	 0.011727  
986.000000	 0.011596  
985.000000	 0.011475  
984.000000	 0.011398  
983.000000	 0.011377  
982.000000	 0.011432  
981.000000	 0.011593  
980.000000	 0.011851  
979.000000	 0.012138  
978.000000	 0.012381  
977.000000	 0.012570  
976.000000	 0.012764  
975.000000	 0.013015  
974.000000	 0.013315  
973.000000	 0.013607  
972.000000	 0.013841  
971.000000	 0.014008  
970.000000	 0.014127  
969.000000	 0.014212  
968.000000	 0.014256  
967.000000	 0.014252  
966.000000	 0.014202  
965.000000	 0.014109  
964.000000	 0.013962  
963.000000	 0.013748  
962.000000	 0.013493  
961.000000	 0.013266  
960.000000	 0.013119  
959.000000	 0.013040  
958.000000	 0.012969  
957.000000	 0.012871  
956.000000	 0.012778  
955.000000	 0.012748  
954.000000	 0.012797  
953.000000	 0.012877  
952.000000	 0.012934  
951.000000	 0.012958  
950.000000	 0.012978  
949.000000	 0.013012  
948.000000	 0.013036  
947.000000	 0.013007  
946.000000	 0.012894  
945.000000	 0.012708  
944.000000	 0.012491  
943.000000	 0.012289  
942.000000	 0.012111  
941.000000	 0.011923  
940.000000	 0.011686  
939.000000	 0.011406  
938.000000	 0.011128  
937.000000	 0.010887  
936.000000	 0.010678  
935.000000	 0.010487  
934.000000	 0.010328  
933.000000	 0.010228  
932.000000	 0.010176  
931.000000	 0.010110  
930.000000	 0.009979  
929.000000	 0.009814  
928.000000	 0.009718  
927.000000	 0.009770  
926.000000	 0.009943  
925.000000	 0.010128  
924.000000	 0.010247  
923.000000	 0.010326  
922.000000	 0.010447  
921.000000	 0.010639  
920.000000	 0.010836  
919.000000	 0.010949  
918.000000	 0.010934  
917.000000	 0.010813  
916.000000	 0.010638  
915.000000	 0.010474  
914.000000	 0.010371  
913.000000	 0.010333  
912.000000	 0.010300  
911.000000	 0.010212  
910.000000	 0.010069  
909.000000	 0.009926  
908.000000	 0.009812  
907.000000	 0.009696  
906.000000	 0.009538  
905.000000	 0.009338  
904.000000	 0.009142  
903.000000	 0.009009  
902.000000	 0.008988  
901.000000	 0.009095  
900.000000	 0.009274  
899.000000	 0.009421  
898.000000	 0.009462  
897.000000	 0.009422  
896.000000	 0.009386  
895.000000	 0.009402  
894.000000	 0.009448  
893.000000	 0.009491  
892.000000	 0.009544  
891.000000	 0.009649  
890.000000	 0.009819  
889.000000	 0.009998  
888.000000	 0.010089  
887.000000	 0.010016  
886.000000	 0.009784  
885.000000	 0.009496  
884.000000	 0.009302  
883.000000	 0.009305  
882.000000	 0.009492  
881.000000	 0.009737  
880.000000	 0.009882  
879.000000	 0.009859  
878.000000	 0.009732  
877.000000	 0.009626  
876.000000	 0.009610  
875.000000	 0.009668  
874.000000	 0.009773  
873.000000	 0.009923  
872.000000	 0.010092  
871.000000	 0.010188  
870.000000	 0.010144  
869.000000	 0.010008  
868.000000	 0.009895  
867.000000	 0.009857  
866.000000	 0.009844  
865.000000	 0.009797  
864.000000	 0.009729  
863.000000	 0.009700  
862.000000	 0.009746  
861.000000	 0.009849  
860.000000	 0.009978  
859.000000	 0.010130  
858.000000	 0.010334  
857.000000	 0.010612  
856.000000	 0.010918  
855.000000	 0.011132  
854.000000	 0.011174  
853.000000	 0.011119  
852.000000	 0.011146  
851.000000	 0.011372  
850.000000	 0.011757  
849.000000	 0.012176  
848.000000	 0.012551  
847.000000	 0.012862  
846.000000	 0.013097  
845.000000	 0.013234  
844.000000	 0.013267  
843.000000	 0.013206  
842.000000	 0.013054  
841.000000	 0.012801  
840.000000	 0.012449  
839.000000	 0.012024  
838.000000	 0.011581  
837.000000	 0.011190  
836.000000	 0.010914  
835.000000	 0.010763  
834.000000	 0.010695  
833.000000	 0.010658  
832.000000	 0.010637  
831.000000	 0.010617  
830.000000	 0.010539  
829.000000	 0.010342  
828.000000	 0.010067  
827.000000	 0.009877  
826.000000	 0.009918  
825.000000	 0.010153  
824.000000	 0.010388  
823.000000	 0.010482  
822.000000	 0.010464  
821.000000	 0.010448  
820.000000	 0.010487  
819.000000	 0.010554  
818.000000	 0.010630  
817.000000	 0.010733  
816.000000	 0.010867  
815.000000	 0.010975  
814.000000	 0.010985  
813.000000	 0.010893  
812.000000	 0.010774  
811.000000	 0.010709  
810.000000	 0.010726  
809.000000	 0.010818  
808.000000	 0.010974  
807.000000	 0.011180  
806.000000	 0.011399  
805.000000	 0.011567  
804.000000	 0.011605  
803.000000	 0.011458  
802.000000	 0.011138  
801.000000	 0.010724  
800.000000	 0.010301  
799.000000	 0.009921  
798.000000	 0.009622  
797.000000	 0.009449  
796.000000	 0.009396  
795.000000	 0.009367  
794.000000	 0.009270  
793.000000	 0.009153  
792.000000	 0.009166  
791.000000	 0.009364  
790.000000	 0.009641  
789.000000	 0.009893  
788.000000	 0.010154  
787.000000	 0.010504  
786.000000	 0.010902  
785.000000	 0.011235  
784.000000	 0.011473  
783.000000	 0.011711  
782.000000	 0.012030  
781.000000	 0.012411  
780.000000	 0.012785  
779.000000	 0.013102  
778.000000	 0.013330  
777.000000	 0.013466  
776.000000	 0.013571  
775.000000	 0.013756  
774.000000	 0.014080  
773.000000	 0.014490  
772.000000	 0.014896  
771.000000	 0.015261  
770.000000	 0.015610  
769.000000	 0.015958  
768.000000	 0.016282  
767.000000	 0.016557  
766.000000	 0.016774  
765.000000	 0.016932  
764.000000	 0.017010  
763.000000	 0.016988  
762.000000	 0.016874  
761.000000	 0.016731  
760.000000	 0.016647  
759.000000	 0.016690  
758.000000	 0.016884  
757.000000	 0.017216  
756.000000	 0.017648  
755.000000	 0.018105  
754.000000	 0.018495  
753.000000	 0.018767  
752.000000	 0.018979  
751.000000	 0.019257  
750.000000	 0.019678  
749.000000	 0.020215  
748.000000	 0.020805  
747.000000	 0.021466  
746.000000	 0.022314  
745.000000	 0.023446  
744.000000	 0.024811  
743.000000	 0.026213  
742.000000	 0.027453  
741.000000	 0.028460  
740.000000	 0.029286  
739.000000	 0.030002  
738.000000	 0.030611  
737.000000	 0.031089  
736.000000	 0.031454  
735.000000	 0.031776  
734.000000	 0.032126  
733.000000	 0.032545  
732.000000	 0.033071  
731.000000	 0.033764  
730.000000	 0.034667  
729.000000	 0.035742  
728.000000	 0.036894  
727.000000	 0.038051  
726.000000	 0.039198  
725.000000	 0.040310  
724.000000	 0.041272  
723.000000	 0.041867  
722.000000	 0.041850  
721.000000	 0.041092  
720.000000	 0.039718  
719.000000	 0.038048  
718.000000	 0.036340  
717.000000	 0.034679  
716.000000	 0.033085  
715.000000	 0.031661  
714.000000	 0.030535  
713.000000	 0.029701  
712.000000	 0.028985  
711.000000	 0.028220  
710.000000	 0.027412  
709.000000	 0.026726  
708.000000	 0.026304  
707.000000	 0.026124  
706.000000	 0.026048  
705.000000	 0.025984  
704.000000	 0.025981  
703.000000	 0.026095  
702.000000	 0.026262  
701.000000	 0.026352  
700.000000	 0.026292  
699.000000	 0.026064  
698.000000	 0.025590  
697.000000	 0.024760  
696.000000	 0.023630  
695.000000	 0.022461  
694.000000	 0.021520  
693.000000	 0.020878  
692.000000	 0.020425  
691.000000	 0.020062  
690.000000	 0.019762  
689.000000	 0.019497  
688.000000	 0.019203  
687.000000	 0.018822  
686.000000	 0.018385  
685.000000	 0.017995  
684.000000	 0.017706  
683.000000	 0.017456  
682.000000	 0.017126  
681.000000	 0.016706  
680.000000	 0.016352  
679.000000	 0.016232  
678.000000	 0.016297  
677.000000	 0.016302  
676.000000	 0.016104  
675.000000	 0.015772  
674.000000	 0.015397  
673.000000	 0.015034  
672.000000	 0.014778  
671.000000	 0.014921  
670.000000	 0.015652  
669.000000	 0.016771  
668.000000	 0.016698  
667.000000	 0.014673  
666.000000	 0.012783  
665.000000	 0.012069  
664.000000	 0.011955  
663.000000	 0.012070  
662.000000	 0.012235  
661.000000	 0.012414  
660.000000	 0.012554  
659.000000	 0.012620  
658.000000	 0.012593  
657.000000	 0.012466  
656.000000	 0.012278  
655.000000	 0.012107  
654.000000	 0.011950  
653.000000	 0.011746  
652.000000	 0.011430  
651.000000	 0.011071  
650.000000	 0.010780  

