PE IR                   SPECTRUM    ASCII       PEDS        1.60        
  -1
NB401~1.ASC
17/05/24
07:41:59.00
17/05/24
07:41:59.00
Admin

650.000000
4









SPECTRUM ONE,CPU32 MAIN 00.02.6000 25-JUNE-2003 12:00:00
MIR TGS
MIR
OPTKBR
68128
0.200000

4.000000
STRONG
RATIO
SPECTRUM
MAGNITUDE
UNIVERSAL ATR
DOUBLE

COMBINED


0


#HDR
-1
-1
#GR
CM-1
A
0.00000011920928955078
0.0
4000.000000
-1.000000
3351
8
0.202297
0.000232
#DATA
4000.000000	0.004011 
3999.000000	0.004035 
3998.000000	0.004035 
3997.000000	0.003987 
3996.000000	0.003879 
3995.000000	0.003713 
3994.000000	0.003553 
3993.000000	0.003404 
3992.000000	0.003276 
3991.000000	0.003194 
3990.000000	0.003191 
3989.000000	0.003273 
3988.000000	0.003405 
3987.000000	0.003534 
3986.000000	0.003624 
3985.000000	0.003662 
3984.000000	0.003643 
3983.000000	0.003564 
3982.000000	0.003445 
3981.000000	0.003327 
3980.000000	0.003248 
3979.000000	0.003210 
3978.000000	0.003181 
3977.000000	0.003135 
3976.000000	0.003087 
3975.000000	0.003084 
3974.000000	0.003157 
3973.000000	0.003285 
3972.000000	0.003410 
3971.000000	0.003480 
3970.000000	0.003483 
3969.000000	0.003446 
3968.000000	0.003401 
3967.000000	0.003368 
3966.000000	0.003344 
3965.000000	0.003320 
3964.000000	0.003295 
3963.000000	0.003278 
3962.000000	0.003273 
3961.000000	0.003260 
3960.000000	0.003216 
3959.000000	0.003135 
3958.000000	0.003055 
3957.000000	0.003027 
3956.000000	0.003075 
3955.000000	0.003163 
3954.000000	0.003215 
3953.000000	0.003169 
3952.000000	0.003024 
3951.000000	0.002847 
3950.000000	0.002721 
3949.000000	0.002683 
3948.000000	0.002698 
3947.000000	0.002704 
3946.000000	0.002670 
3945.000000	0.002620 
3944.000000	0.002630 
3943.000000	0.002764 
3942.000000	0.003001 
3941.000000	0.003246 
3940.000000	0.003403 
3939.000000	0.003438 
3938.000000	0.003391 
3937.000000	0.003325 
3936.000000	0.003262 
3935.000000	0.003172 
3934.000000	0.003008 
3933.000000	0.002790 
3932.000000	0.002628 
3931.000000	0.002634 
3930.000000	0.002802 
3929.000000	0.003019 
3928.000000	0.003165 
3927.000000	0.003198 
3926.000000	0.003147 
3925.000000	0.003066 
3924.000000	0.002976 
3923.000000	0.002873 
3922.000000	0.002764 
3921.000000	0.002684 
3920.000000	0.002673 
3919.000000	0.002732 
3918.000000	0.002828 
3917.000000	0.002923 
3916.000000	0.003021 
3915.000000	0.003144 
3914.000000	0.003307 
3913.000000	0.003501 
3912.000000	0.003682 
3911.000000	0.003775 
3910.000000	0.003700 
3909.000000	0.003431 
3908.000000	0.003029 
3907.000000	0.002634 
3906.000000	0.002412 
3905.000000	0.002424 
3904.000000	0.002528 
3903.000000	0.002508 
3902.000000	0.002328 
3901.000000	0.002162 
3900.000000	0.002195 
3899.000000	0.002431 
3898.000000	0.002718 
3897.000000	0.002906 
3896.000000	0.002941 
3895.000000	0.002853 
3894.000000	0.002721 
3893.000000	0.002647 
3892.000000	0.002700 
3891.000000	0.002853 
3890.000000	0.003006 
3889.000000	0.003061 
3888.000000	0.002952 
3887.000000	0.002708 
3886.000000	0.002462 
3885.000000	0.002348 
3884.000000	0.002372 
3883.000000	0.002463 
3882.000000	0.002588 
3881.000000	0.002743 
3880.000000	0.002893 
3879.000000	0.002978 
3878.000000	0.002967 
3877.000000	0.002870 
3876.000000	0.002746 
3875.000000	0.002678 
3874.000000	0.002673 
3873.000000	0.002636 
3872.000000	0.002504 
3871.000000	0.002368 
3870.000000	0.002377 
3869.000000	0.002513 
3868.000000	0.002614 
3867.000000	0.002575 
3866.000000	0.002456 
3865.000000	0.002432 
3864.000000	0.002592 
3863.000000	0.002796 
3862.000000	0.002847 
3861.000000	0.002696 
3860.000000	0.002436 
3859.000000	0.002209 
3858.000000	0.002106 
3857.000000	0.002111 
3856.000000	0.002103 
3855.000000	0.002000 
3854.000000	0.001983 
3853.000000	0.002293 
3852.000000	0.002773 
3851.000000	0.003185 
3850.000000	0.003442 
3849.000000	0.003528 
3848.000000	0.003439 
3847.000000	0.003186 
3846.000000	0.002841 
3845.000000	0.002547 
3844.000000	0.002450 
3843.000000	0.002576 
3842.000000	0.002783 
3841.000000	0.002888 
3840.000000	0.002845 
3839.000000	0.002796 
3838.000000	0.002876 
3837.000000	0.003027 
3836.000000	0.003110 
3835.000000	0.003088 
3834.000000	0.003027 
3833.000000	0.003013 
3832.000000	0.003072 
3831.000000	0.003150 
3830.000000	0.003178 
3829.000000	0.003137 
3828.000000	0.003067 
3827.000000	0.003029 
3826.000000	0.003045 
3825.000000	0.003075 
3824.000000	0.003057 
3823.000000	0.002987 
3822.000000	0.002965 
3821.000000	0.003075 
3820.000000	0.003234 
3819.000000	0.003355 
3818.000000	0.003460 
3817.000000	0.003606 
3816.000000	0.003782 
3815.000000	0.003885 
3814.000000	0.003833 
3813.000000	0.003638 
3812.000000	0.003367 
3811.000000	0.003093 
3810.000000	0.002862 
3809.000000	0.002688 
3808.000000	0.002592 
3807.000000	0.002592 
3806.000000	0.002662 
3805.000000	0.002756 
3804.000000	0.002829 
3803.000000	0.002846 
3802.000000	0.002805 
3801.000000	0.002713 
3800.000000	0.002575 
3799.000000	0.002460 
3798.000000	0.002456 
3797.000000	0.002582 
3796.000000	0.002765 
3795.000000	0.002921 
3794.000000	0.003026 
3793.000000	0.003107 
3792.000000	0.003170 
3791.000000	0.003177 
3790.000000	0.003091 
3789.000000	0.002932 
3788.000000	0.002789 
3787.000000	0.002772 
3786.000000	0.002921 
3785.000000	0.003153 
3784.000000	0.003328 
3783.000000	0.003359 
3782.000000	0.003259 
3781.000000	0.003103 
3780.000000	0.002975 
3779.000000	0.002911 
3778.000000	0.002886 
3777.000000	0.002877 
3776.000000	0.002882 
3775.000000	0.002892 
3774.000000	0.002875 
3773.000000	0.002791 
3772.000000	0.002642 
3771.000000	0.002499 
3770.000000	0.002453 
3769.000000	0.002503 
3768.000000	0.002579 
3767.000000	0.002621 
3766.000000	0.002614 
3765.000000	0.002572 
3764.000000	0.002516 
3763.000000	0.002461 
3762.000000	0.002420 
3761.000000	0.002414 
3760.000000	0.002440 
3759.000000	0.002455 
3758.000000	0.002432 
3757.000000	0.002415 
3756.000000	0.002455 
3755.000000	0.002555 
3754.000000	0.002673 
3753.000000	0.002780 
3752.000000	0.002886 
3751.000000	0.003019 
3750.000000	0.003125 
3749.000000	0.003159 
3748.000000	0.003155 
3747.000000	0.003111 
3746.000000	0.002957 
3745.000000	0.002647 
3744.000000	0.002272 
3743.000000	0.001965 
3742.000000	0.001746 
3741.000000	0.001571 
3740.000000	0.001432 
3739.000000	0.001354 
3738.000000	0.001381 
3737.000000	0.001543 
3736.000000	0.001777 
3735.000000	0.001940 
3734.000000	0.002007 
3733.000000	0.002073 
3732.000000	0.002182 
3731.000000	0.002291 
3730.000000	0.002345 
3729.000000	0.002299 
3728.000000	0.002123 
3727.000000	0.001835 
3726.000000	0.001507 
3725.000000	0.001251 
3724.000000	0.001185 
3723.000000	0.001374 
3722.000000	0.001737 
3721.000000	0.002077 
3720.000000	0.002236 
3719.000000	0.002211 
3718.000000	0.002123 
3717.000000	0.002093 
3716.000000	0.002156 
3715.000000	0.002248 
3714.000000	0.002256 
3713.000000	0.002110 
3712.000000	0.001914 
3711.000000	0.001868 
3710.000000	0.002000 
3709.000000	0.002177 
3708.000000	0.002311 
3707.000000	0.002391 
3706.000000	0.002437 
3705.000000	0.002475 
3704.000000	0.002546 
3703.000000	0.002702 
3702.000000	0.002935 
3701.000000	0.003137 
3700.000000	0.003196 
3699.000000	0.003094 
3698.000000	0.002905 
3697.000000	0.002745 
3696.000000	0.002688 
3695.000000	0.002737 
3694.000000	0.002861 
3693.000000	0.003050 
3692.000000	0.003288 
3691.000000	0.003484 
3690.000000	0.003494 
3689.000000	0.003286 
3688.000000	0.003003 
3687.000000	0.002824 
3686.000000	0.002797 
3685.000000	0.002854 
3684.000000	0.002908 
3683.000000	0.002905 
3682.000000	0.002845 
3681.000000	0.002775 
3680.000000	0.002771 
3679.000000	0.002858 
3678.000000	0.002983 
3677.000000	0.003073 
3676.000000	0.003093 
3675.000000	0.002986 
3674.000000	0.002709 
3673.000000	0.002345 
3672.000000	0.002077 
3671.000000	0.002162 
3670.000000	0.002634 
3669.000000	0.003101 
3668.000000	0.003244 
3667.000000	0.003125 
3666.000000	0.002956 
3665.000000	0.002904 
3664.000000	0.003019 
3663.000000	0.003228 
3662.000000	0.003407 
3661.000000	0.003477 
3660.000000	0.003426 
3659.000000	0.003283 
3658.000000	0.003100 
3657.000000	0.002962 
3656.000000	0.002943 
3655.000000	0.003027 
3654.000000	0.003128 
3653.000000	0.003170 
3652.000000	0.003158 
3651.000000	0.003209 
3650.000000	0.003462 
3649.000000	0.003796 
3648.000000	0.003909 
3647.000000	0.003768 
3646.000000	0.003545 
3645.000000	0.003363 
3644.000000	0.003264 
3643.000000	0.003266 
3642.000000	0.003364 
3641.000000	0.003500 
3640.000000	0.003582 
3639.000000	0.003544 
3638.000000	0.003385 
3637.000000	0.003149 
3636.000000	0.002908 
3635.000000	0.002736 
3634.000000	0.002679 
3633.000000	0.002697 
3632.000000	0.002692 
3631.000000	0.002618 
3630.000000	0.002563 
3629.000000	0.002653 
3628.000000	0.002831 
3627.000000	0.002979 
3626.000000	0.003081 
3625.000000	0.003170 
3624.000000	0.003292 
3623.000000	0.003477 
3622.000000	0.003717 
3621.000000	0.003939 
3620.000000	0.004004 
3619.000000	0.003832 
3618.000000	0.003536 
3617.000000	0.003296 
3616.000000	0.003186 
3615.000000	0.003180 
3614.000000	0.003214 
3613.000000	0.003220 
3612.000000	0.003152 
3611.000000	0.003006 
3610.000000	0.002864 
3609.000000	0.002882 
3608.000000	0.003149 
3607.000000	0.003569 
3606.000000	0.003970 
3605.000000	0.004258 
3604.000000	0.004421 
3603.000000	0.004479 
3602.000000	0.004461 
3601.000000	0.004419 
3600.000000	0.004400 
3599.000000	0.004384 
3598.000000	0.004293 
3597.000000	0.004078 
3596.000000	0.003804 
3595.000000	0.003622 
3594.000000	0.003636 
3593.000000	0.003796 
3592.000000	0.003956 
3591.000000	0.003973 
3590.000000	0.003786 
3589.000000	0.003485 
3588.000000	0.003332 
3587.000000	0.003550 
3586.000000	0.004072 
3585.000000	0.004637 
3584.000000	0.005019 
3583.000000	0.005136 
3582.000000	0.005048 
3581.000000	0.004905 
3580.000000	0.004856 
3579.000000	0.004962 
3578.000000	0.005175 
3577.000000	0.005399 
3576.000000	0.005559 
3575.000000	0.005648 
3574.000000	0.005696 
3573.000000	0.005711 
3572.000000	0.005646 
3571.000000	0.005417 
3570.000000	0.004978 
3569.000000	0.004419 
3568.000000	0.003996 
3567.000000	0.003944 
3566.000000	0.004216 
3565.000000	0.004588 
3564.000000	0.004913 
3563.000000	0.005159 
3562.000000	0.005337 
3561.000000	0.005461 
3560.000000	0.005554 
3559.000000	0.005651 
3558.000000	0.005773 
3557.000000	0.005898 
3556.000000	0.005988 
3555.000000	0.006027 
3554.000000	0.006038 
3553.000000	0.006052 
3552.000000	0.006082 
3551.000000	0.006116 
3550.000000	0.006135 
3549.000000	0.006123 
3548.000000	0.006085 
3547.000000	0.006050 
3546.000000	0.006067 
3545.000000	0.006151 
3544.000000	0.006265 
3543.000000	0.006360 
3542.000000	0.006442 
3541.000000	0.006559 
3540.000000	0.006741 
3539.000000	0.006939 
3538.000000	0.007060 
3537.000000	0.007055 
3536.000000	0.006974 
3535.000000	0.006905 
3534.000000	0.006878 
3533.000000	0.006863 
3532.000000	0.006824 
3531.000000	0.006763 
3530.000000	0.006718 
3529.000000	0.006718 
3528.000000	0.006757 
3527.000000	0.006800 
3526.000000	0.006812 
3525.000000	0.006787 
3524.000000	0.006769 
3523.000000	0.006827 
3522.000000	0.007006 
3521.000000	0.007277 
3520.000000	0.007548 
3519.000000	0.007728 
3518.000000	0.007795 
3517.000000	0.007813 
3516.000000	0.007868 
3515.000000	0.008000 
3514.000000	0.008164 
3513.000000	0.008279 
3512.000000	0.008308 
3511.000000	0.008301 
3510.000000	0.008349 
3509.000000	0.008492 
3508.000000	0.008673 
3507.000000	0.008797 
3506.000000	0.008808 
3505.000000	0.008730 
3504.000000	0.008628 
3503.000000	0.008549 
3502.000000	0.008509 
3501.000000	0.008511 
3500.000000	0.008557 
3499.000000	0.008644 
3498.000000	0.008772 
3497.000000	0.008945 
3496.000000	0.009148 
3495.000000	0.009325 
3494.000000	0.009428 
3493.000000	0.009487 
3492.000000	0.009593 
3491.000000	0.009784 
3490.000000	0.009966 
3489.000000	0.010003 
3488.000000	0.009884 
3487.000000	0.009744 
3486.000000	0.009704 
3485.000000	0.009741 
3484.000000	0.009744 
3483.000000	0.009665 
3482.000000	0.009577 
3481.000000	0.009588 
3480.000000	0.009716 
3479.000000	0.009901 
3478.000000	0.010087 
3477.000000	0.010271 
3476.000000	0.010462 
3475.000000	0.010627 
3474.000000	0.010703 
3473.000000	0.010668 
3472.000000	0.010581 
3471.000000	0.010518 
3470.000000	0.010494 
3469.000000	0.010475 
3468.000000	0.010448 
3467.000000	0.010461 
3466.000000	0.010554 
3465.000000	0.010701 
3464.000000	0.010827 
3463.000000	0.010887 
3462.000000	0.010891 
3461.000000	0.010874 
3460.000000	0.010860 
3459.000000	0.010855 
3458.000000	0.010867 
3457.000000	0.010914 
3456.000000	0.011019 
3455.000000	0.011188 
3454.000000	0.011384 
3453.000000	0.011543 
3452.000000	0.011626 
3451.000000	0.011656 
3450.000000	0.011694 
3449.000000	0.011782 
3448.000000	0.011915 
3447.000000	0.012041 
3446.000000	0.012104 
3445.000000	0.012079 
3444.000000	0.011988 
3443.000000	0.011891 
3442.000000	0.011851 
3441.000000	0.011895 
3440.000000	0.012008 
3439.000000	0.012143 
3438.000000	0.012246 
3437.000000	0.012276 
3436.000000	0.012235 
3435.000000	0.012162 
3434.000000	0.012097 
3433.000000	0.012064 
3432.000000	0.012083 
3431.000000	0.012192 
3430.000000	0.012395 
3429.000000	0.012631 
3428.000000	0.012799 
3427.000000	0.012851 
3426.000000	0.012817 
3425.000000	0.012749 
3424.000000	0.012656 
3423.000000	0.012520 
3422.000000	0.012353 
3421.000000	0.012219 
3420.000000	0.012178 
3419.000000	0.012234 
3418.000000	0.012339 
3417.000000	0.012453 
3416.000000	0.012583 
3415.000000	0.012759 
3414.000000	0.012987 
3413.000000	0.013213 
3412.000000	0.013352 
3411.000000	0.013358 
3410.000000	0.013258 
3409.000000	0.013148 
3408.000000	0.013142 
3407.000000	0.013297 
3406.000000	0.013552 
3405.000000	0.013765 
3404.000000	0.013822 
3403.000000	0.013742 
3402.000000	0.013636 
3401.000000	0.013592 
3400.000000	0.013610 
3399.000000	0.013637 
3398.000000	0.013639 
3397.000000	0.013616 
3396.000000	0.013589 
3395.000000	0.013597 
3394.000000	0.013683 
3393.000000	0.013855 
3392.000000	0.014061 
3391.000000	0.014220 
3390.000000	0.014290 
3389.000000	0.014290 
3388.000000	0.014268 
3387.000000	0.014267 
3386.000000	0.014297 
3385.000000	0.014340 
3384.000000	0.014377 
3383.000000	0.014410 
3382.000000	0.014457 
3381.000000	0.014516 
3380.000000	0.014558 
3379.000000	0.014556 
3378.000000	0.014528 
3377.000000	0.014515 
3376.000000	0.014534 
3375.000000	0.014549 
3374.000000	0.014511 
3373.000000	0.014401 
3372.000000	0.014258 
3371.000000	0.014153 
3370.000000	0.014141 
3369.000000	0.014226 
3368.000000	0.014357 
3367.000000	0.014464 
3366.000000	0.014493 
3365.000000	0.014442 
3364.000000	0.014362 
3363.000000	0.014331 
3362.000000	0.014406 
3361.000000	0.014576 
3360.000000	0.014764 
3359.000000	0.014883 
3358.000000	0.014898 
3357.000000	0.014829 
3356.000000	0.014722 
3355.000000	0.014626 
3354.000000	0.014586 
3353.000000	0.014631 
3352.000000	0.014745 
3351.000000	0.014865 
3350.000000	0.014920 
3349.000000	0.014897 
3348.000000	0.014842 
3347.000000	0.014816 
3346.000000	0.014862 
3345.000000	0.015001 
3344.000000	0.015235 
3343.000000	0.015517 
3342.000000	0.015734 
3341.000000	0.015767 
3340.000000	0.015591 
3339.000000	0.015307 
3338.000000	0.015057 
3337.000000	0.014925 
3336.000000	0.014898 
3335.000000	0.014920 
3334.000000	0.014949 
3333.000000	0.014977 
3332.000000	0.015014 
3331.000000	0.015067 
3330.000000	0.015125 
3329.000000	0.015170 
3328.000000	0.015190 
3327.000000	0.015190 
3326.000000	0.015177 
3325.000000	0.015162 
3324.000000	0.015178 
3323.000000	0.015272 
3322.000000	0.015454 
3321.000000	0.015663 
3320.000000	0.015817 
3319.000000	0.015877 
3318.000000	0.015864 
3317.000000	0.015811 
3316.000000	0.015744 
3315.000000	0.015691 
3314.000000	0.015672 
3313.000000	0.015680 
3312.000000	0.015688 
3311.000000	0.015680 
3310.000000	0.015681 
3309.000000	0.015716 
3308.000000	0.015790 
3307.000000	0.015886 
3306.000000	0.015975 
3305.000000	0.016017 
3304.000000	0.015994 
3303.000000	0.015941 
3302.000000	0.015932 
3301.000000	0.016000 
3300.000000	0.016092 
3299.000000	0.016124 
3298.000000	0.016056 
3297.000000	0.015927 
3296.000000	0.015815 
3295.000000	0.015787 
3294.000000	0.015863 
3293.000000	0.016009 
3292.000000	0.016153 
3291.000000	0.016228 
3290.000000	0.016199 
3289.000000	0.016071 
3288.000000	0.015895 
3287.000000	0.015760 
3286.000000	0.015737 
3285.000000	0.015802 
3284.000000	0.015855 
3283.000000	0.015830 
3282.000000	0.015781 
3281.000000	0.015813 
3280.000000	0.015943 
3279.000000	0.016058 
3278.000000	0.016037 
3277.000000	0.015854 
3276.000000	0.015598 
3275.000000	0.015391 
3274.000000	0.015315 
3273.000000	0.015371 
3272.000000	0.015491 
3271.000000	0.015584 
3270.000000	0.015599 
3269.000000	0.015557 
3268.000000	0.015526 
3267.000000	0.015555 
3266.000000	0.015641 
3265.000000	0.015742 
3264.000000	0.015807 
3263.000000	0.015798 
3262.000000	0.015713 
3261.000000	0.015585 
3260.000000	0.015474 
3259.000000	0.015441 
3258.000000	0.015521 
3257.000000	0.015699 
3256.000000	0.015906 
3255.000000	0.016041 
3254.000000	0.016037 
3253.000000	0.015909 
3252.000000	0.015745 
3251.000000	0.015623 
3250.000000	0.015561 
3249.000000	0.015533 
3248.000000	0.015519 
3247.000000	0.015524 
3246.000000	0.015542 
3245.000000	0.015549 
3244.000000	0.015524 
3243.000000	0.015477 
3242.000000	0.015422 
3241.000000	0.015362 
3240.000000	0.015297 
3239.000000	0.015242 
3238.000000	0.015215 
3237.000000	0.015215 
3236.000000	0.015238 
3235.000000	0.015286 
3234.000000	0.015353 
3233.000000	0.015394 
3232.000000	0.015358 
3231.000000	0.015251 
3230.000000	0.015147 
3229.000000	0.015124 
3228.000000	0.015203 
3227.000000	0.015354 
3226.000000	0.015522 
3225.000000	0.015653 
3224.000000	0.015710 
3223.000000	0.015690 
3222.000000	0.015611 
3221.000000	0.015499 
3220.000000	0.015392 
3219.000000	0.015342 
3218.000000	0.015369 
3217.000000	0.015411 
3216.000000	0.015360 
3215.000000	0.015190 
3214.000000	0.015004 
3213.000000	0.014931 
3212.000000	0.014987 
3211.000000	0.015069 
3210.000000	0.015073 
3209.000000	0.014979 
3208.000000	0.014836 
3207.000000	0.014706 
3206.000000	0.014627 
3205.000000	0.014613 
3204.000000	0.014650 
3203.000000	0.014706 
3202.000000	0.014747 
3201.000000	0.014743 
3200.000000	0.014680 
3199.000000	0.014569 
3198.000000	0.014445 
3197.000000	0.014334 
3196.000000	0.014233 
3195.000000	0.014140 
3194.000000	0.014089 
3193.000000	0.014116 
3192.000000	0.014213 
3191.000000	0.014325 
3190.000000	0.014404 
3189.000000	0.014439 
3188.000000	0.014437 
3187.000000	0.014403 
3186.000000	0.014351 
3185.000000	0.014308 
3184.000000	0.014284 
3183.000000	0.014256 
3182.000000	0.014184 
3181.000000	0.014051 
3180.000000	0.013877 
3179.000000	0.013705 
3178.000000	0.013577 
3177.000000	0.013510 
3176.000000	0.013488 
3175.000000	0.013473 
3174.000000	0.013441 
3173.000000	0.013394 
3172.000000	0.013354 
3171.000000	0.013344 
3170.000000	0.013370 
3169.000000	0.013420 
3168.000000	0.013464 
3167.000000	0.013489 
3166.000000	0.013518 
3165.000000	0.013580 
3164.000000	0.013647 
3163.000000	0.013630 
3162.000000	0.013462 
3161.000000	0.013185 
3160.000000	0.012930 
3159.000000	0.012802 
3158.000000	0.012802 
3157.000000	0.012859 
3156.000000	0.012910 
3155.000000	0.012951 
3154.000000	0.013002 
3153.000000	0.013060 
3152.000000	0.013082 
3151.000000	0.013020 
3150.000000	0.012880 
3149.000000	0.012737 
3148.000000	0.012677 
3147.000000	0.012713 
3146.000000	0.012767 
3145.000000	0.012741 
3144.000000	0.012607 
3143.000000	0.012420 
3142.000000	0.012257 
3141.000000	0.012164 
3140.000000	0.012148 
3139.000000	0.012202 
3138.000000	0.012309 
3137.000000	0.012443 
3136.000000	0.012586 
3135.000000	0.012725 
3134.000000	0.012824 
3133.000000	0.012822 
3132.000000	0.012697 
3131.000000	0.012509 
3130.000000	0.012366 
3129.000000	0.012329 
3128.000000	0.012374 
3127.000000	0.012429 
3126.000000	0.012438 
3125.000000	0.012379 
3124.000000	0.012260 
3123.000000	0.012122 
3122.000000	0.012020 
3121.000000	0.011978 
3120.000000	0.011985 
3119.000000	0.012019 
3118.000000	0.012075 
3117.000000	0.012136 
3116.000000	0.012165 
3115.000000	0.012141 
3114.000000	0.012096 
3113.000000	0.012079 
3112.000000	0.012098 
3111.000000	0.012113 
3110.000000	0.012097 
3109.000000	0.012069 
3108.000000	0.012053 
3107.000000	0.012049 
3106.000000	0.012028 
3105.000000	0.011971 
3104.000000	0.011881 
3103.000000	0.011792 
3102.000000	0.011747 
3101.000000	0.011767 
3100.000000	0.011820 
3099.000000	0.011835 
3098.000000	0.011761 
3097.000000	0.011617 
3096.000000	0.011488 
3095.000000	0.011455 
3094.000000	0.011537 
3093.000000	0.011676 
3092.000000	0.011802 
3091.000000	0.011888 
3090.000000	0.011950 
3089.000000	0.011995 
3088.000000	0.011990 
3087.000000	0.011901 
3086.000000	0.011751 
3085.000000	0.011611 
3084.000000	0.011532 
3083.000000	0.011505 
3082.000000	0.011494 
3081.000000	0.011482 
3080.000000	0.011469 
3079.000000	0.011462 
3078.000000	0.011466 
3077.000000	0.011502 
3076.000000	0.011586 
3075.000000	0.011689 
3074.000000	0.011741 
3073.000000	0.011687 
3072.000000	0.011546 
3071.000000	0.011402 
3070.000000	0.011341 
3069.000000	0.011380 
3068.000000	0.011462 
3067.000000	0.011505 
3066.000000	0.011466 
3065.000000	0.011362 
3064.000000	0.011251 
3063.000000	0.011193 
3062.000000	0.011207 
3061.000000	0.011268 
3060.000000	0.011331 
3059.000000	0.011368 
3058.000000	0.011371 
3057.000000	0.011332 
3056.000000	0.011252 
3055.000000	0.011166 
3054.000000	0.011143 
3053.000000	0.011230 
3052.000000	0.011399 
3051.000000	0.011563 
3050.000000	0.011645 
3049.000000	0.011628 
3048.000000	0.011545 
3047.000000	0.011446 
3046.000000	0.011374 
3045.000000	0.011341 
3044.000000	0.011338 
3043.000000	0.011355 
3042.000000	0.011400 
3041.000000	0.011474 
3040.000000	0.011550 
3039.000000	0.011588 
3038.000000	0.011589 
3037.000000	0.011592 
3036.000000	0.011619 
3035.000000	0.011661 
3034.000000	0.011710 
3033.000000	0.011786 
3032.000000	0.011910 
3031.000000	0.012055 
3030.000000	0.012173 
3029.000000	0.012263 
3028.000000	0.012384 
3027.000000	0.012593 
3026.000000	0.012884 
3025.000000	0.013185 
3024.000000	0.013414 
3023.000000	0.013568 
3022.000000	0.013748 
3021.000000	0.014089 
3020.000000	0.014643 
3019.000000	0.015323 
3018.000000	0.015986 
3017.000000	0.016558 
3016.000000	0.017062 
3015.000000	0.017544 
3014.000000	0.018007 
3013.000000	0.018430 
3012.000000	0.018806 
3011.000000	0.019135 
3010.000000	0.019395 
3009.000000	0.019547 
3008.000000	0.019564 
3007.000000	0.019432 
3006.000000	0.019161 
3005.000000	0.018800 
3004.000000	0.018433 
3003.000000	0.018139 
3002.000000	0.017937 
3001.000000	0.017788 
3000.000000	0.017659 
2999.000000	0.017549 
2998.000000	0.017470 
2997.000000	0.017429 
2996.000000	0.017433 
2995.000000	0.017491 
2994.000000	0.017614 
2993.000000	0.017792 
2992.000000	0.018006 
2991.000000	0.018248 
2990.000000	0.018535 
2989.000000	0.018905 
2988.000000	0.019394 
2987.000000	0.020023 
2986.000000	0.020787 
2985.000000	0.021672 
2984.000000	0.022661 
2983.000000	0.023733 
2982.000000	0.024869 
2981.000000	0.026085 
2980.000000	0.027444 
2979.000000	0.029012 
2978.000000	0.030789 
2977.000000	0.032718 
2976.000000	0.034783 
2975.000000	0.037068 
2974.000000	0.039698 
2973.000000	0.042726 
2972.000000	0.046103 
2971.000000	0.049757 
2970.000000	0.053672 
2969.000000	0.057892 
2968.000000	0.062443 
2967.000000	0.067257 
2966.000000	0.072180 
2965.000000	0.077045 
2964.000000	0.081757 
2963.000000	0.086293 
2962.000000	0.090637 
2961.000000	0.094736 
2960.000000	0.098504 
2959.000000	0.101842 
2958.000000	0.104627 
2957.000000	0.106727 
2956.000000	0.108055 
2955.000000	0.108597 
2954.000000	0.108394 
2953.000000	0.107525 
2952.000000	0.106133 
2951.000000	0.104433 
2950.000000	0.102671 
2949.000000	0.101064 
2948.000000	0.099770 
2947.000000	0.098896 
2946.000000	0.098515 
2945.000000	0.098697 
2944.000000	0.099548 
2943.000000	0.101189 
2942.000000	0.103675 
2941.000000	0.106954 
2940.000000	0.110907 
2939.000000	0.115437 
2938.000000	0.120488 
2937.000000	0.125996 
2936.000000	0.131872 
2935.000000	0.138023 
2934.000000	0.144388 
2933.000000	0.150949 
2932.000000	0.157711 
2931.000000	0.164641 
2930.000000	0.171586 
2929.000000	0.178301 
2928.000000	0.184543 
2927.000000	0.190139 
2926.000000	0.194924 
2925.000000	0.198685 
2924.000000	0.201192 
2923.000000	0.202297 
2922.000000	0.201980 
2921.000000	0.200360 
2920.000000	0.197644 
2919.000000	0.194049 
2918.000000	0.189731 
2917.000000	0.184828 
2916.000000	0.179535 
2915.000000	0.174090 
2914.000000	0.168669 
2913.000000	0.163339 
2912.000000	0.158125 
2911.000000	0.153085 
2910.000000	0.148307 
2909.000000	0.143836 
2908.000000	0.139650 
2907.000000	0.135685 
2906.000000	0.131873 
2905.000000	0.128161 
2904.000000	0.124529 
2903.000000	0.120997 
2902.000000	0.117609 
2901.000000	0.114387 
2900.000000	0.111303 
2899.000000	0.108288 
2898.000000	0.105289 
2897.000000	0.102289 
2896.000000	0.099296 
2895.000000	0.096325 
2894.000000	0.093406 
2893.000000	0.090579 
2892.000000	0.087879 
2891.000000	0.085309 
2890.000000	0.082854 
2889.000000	0.080510 
2888.000000	0.078291 
2887.000000	0.076236 
2886.000000	0.074429 
2885.000000	0.072986 
2884.000000	0.072004 
2883.000000	0.071515 
2882.000000	0.071516 
2881.000000	0.072039 
2880.000000	0.073160 
2879.000000	0.074914 
2878.000000	0.077211 
2877.000000	0.079849 
2876.000000	0.082596 
2875.000000	0.085243 
2874.000000	0.087601 
2873.000000	0.089514 
2872.000000	0.090907 
2871.000000	0.091841 
2870.000000	0.092479 
2869.000000	0.093002 
2868.000000	0.093552 
2867.000000	0.094254 
2866.000000	0.095272 
2865.000000	0.096828 
2864.000000	0.099108 
2863.000000	0.102165 
2862.000000	0.105893 
2861.000000	0.110120 
2860.000000	0.114674 
2859.000000	0.119370 
2858.000000	0.123961 
2857.000000	0.128141 
2856.000000	0.131578 
2855.000000	0.133917 
2854.000000	0.134785 
2853.000000	0.133912 
2852.000000	0.131265 
2851.000000	0.127067 
2850.000000	0.121657 
2849.000000	0.115380 
2848.000000	0.108560 
2847.000000	0.101522 
2846.000000	0.094573 
2845.000000	0.087951 
2844.000000	0.081770 
2843.000000	0.076016 
2842.000000	0.070600 
2841.000000	0.065475 
2840.000000	0.060694 
2839.000000	0.056369 
2838.000000	0.052566 
2837.000000	0.049257 
2836.000000	0.046362 
2835.000000	0.043818 
2834.000000	0.041588 
2833.000000	0.039628 
2832.000000	0.037875 
2831.000000	0.036296 
2830.000000	0.034902 
2829.000000	0.033711 
2828.000000	0.032688 
2827.000000	0.031736 
2826.000000	0.030749 
2825.000000	0.029690 
2824.000000	0.028608 
2823.000000	0.027597 
2822.000000	0.026716 
2821.000000	0.025962 
2820.000000	0.025293 
2819.000000	0.024672 
2818.000000	0.024078 
2817.000000	0.023504 
2816.000000	0.022948 
2815.000000	0.022413 
2814.000000	0.021893 
2813.000000	0.021364 
2812.000000	0.020806 
2811.000000	0.020239 
2810.000000	0.019711 
2809.000000	0.019257 
2808.000000	0.018886 
2807.000000	0.018600 
2806.000000	0.018396 
2805.000000	0.018243 
2804.000000	0.018083 
2803.000000	0.017879 
2802.000000	0.017643 
2801.000000	0.017408 
2800.000000	0.017193 
2799.000000	0.017007 
2798.000000	0.016874 
2797.000000	0.016801 
2796.000000	0.016758 
2795.000000	0.016698 
2794.000000	0.016627 
2793.000000	0.016597 
2792.000000	0.016629 
2791.000000	0.016668 
2790.000000	0.016627 
2789.000000	0.016477 
2788.000000	0.016269 
2787.000000	0.016083 
2786.000000	0.015971 
2785.000000	0.015942 
2784.000000	0.015970 
2783.000000	0.016007 
2782.000000	0.016001 
2781.000000	0.015916 
2780.000000	0.015748 
2779.000000	0.015522 
2778.000000	0.015262 
2777.000000	0.014981 
2776.000000	0.014687 
2775.000000	0.014400 
2774.000000	0.014144 
2773.000000	0.013930 
2772.000000	0.013750 
2771.000000	0.013592 
2770.000000	0.013446 
2769.000000	0.013297 
2768.000000	0.013131 
2767.000000	0.012935 
2766.000000	0.012720 
2765.000000	0.012514 
2764.000000	0.012347 
2763.000000	0.012229 
2762.000000	0.012131 
2761.000000	0.012003 
2760.000000	0.011812 
2759.000000	0.011573 
2758.000000	0.011338 
2757.000000	0.011153 
2756.000000	0.011030 
2755.000000	0.010947 
2754.000000	0.010867 
2753.000000	0.010757 
2752.000000	0.010605 
2751.000000	0.010433 
2750.000000	0.010278 
2749.000000	0.010166 
2748.000000	0.010099 
2747.000000	0.010071 
2746.000000	0.010077 
2745.000000	0.010104 
2744.000000	0.010125 
2743.000000	0.010114 
2742.000000	0.010070 
2741.000000	0.010010 
2740.000000	0.009962 
2739.000000	0.009945 
2738.000000	0.009966 
2737.000000	0.010009 
2736.000000	0.010048 
2735.000000	0.010065 
2734.000000	0.010068 
2733.000000	0.010073 
2732.000000	0.010094 
2731.000000	0.010134 
2730.000000	0.010172 
2729.000000	0.010168 
2728.000000	0.010099 
2727.000000	0.009994 
2726.000000	0.009916 
2725.000000	0.009905 
2724.000000	0.009937 
2723.000000	0.009955 
2722.000000	0.009929 
2721.000000	0.009865 
2720.000000	0.009798 
2719.000000	0.009758 
2718.000000	0.009745 
2717.000000	0.009717 
2716.000000	0.009628 
2715.000000	0.009491 
2714.000000	0.009362 
2713.000000	0.009278 
2712.000000	0.009206 
2711.000000	0.009111 
2710.000000	0.009010 
2709.000000	0.008953 
2708.000000	0.008952 
2707.000000	0.008961 
2706.000000	0.008939 
2705.000000	0.008866 
2704.000000	0.008741 
2703.000000	0.008575 
2702.000000	0.008411 
2701.000000	0.008307 
2700.000000	0.008282 
2699.000000	0.008295 
2698.000000	0.008299 
2697.000000	0.008298 
2696.000000	0.008328 
2695.000000	0.008411 
2694.000000	0.008528 
2693.000000	0.008632 
2692.000000	0.008664 
2691.000000	0.008579 
2690.000000	0.008377 
2689.000000	0.008129 
2688.000000	0.007947 
2687.000000	0.007907 
2686.000000	0.007994 
2685.000000	0.008125 
2684.000000	0.008222 
2683.000000	0.008271 
2682.000000	0.008299 
2681.000000	0.008323 
2680.000000	0.008323 
2679.000000	0.008280 
2678.000000	0.008215 
2677.000000	0.008166 
2676.000000	0.008147 
2675.000000	0.008139 
2674.000000	0.008116 
2673.000000	0.008080 
2672.000000	0.008058 
2671.000000	0.008071 
2670.000000	0.008104 
2669.000000	0.008121 
2668.000000	0.008104 
2667.000000	0.008071 
2666.000000	0.008056 
2665.000000	0.008060 
2664.000000	0.008054 
2663.000000	0.008012 
2662.000000	0.007936 
2661.000000	0.007833 
2660.000000	0.007710 
2659.000000	0.007592 
2658.000000	0.007524 
2657.000000	0.007531 
2656.000000	0.007579 
2655.000000	0.007596 
2654.000000	0.007538 
2653.000000	0.007420 
2652.000000	0.007298 
2651.000000	0.007220 
2650.000000	0.007187 
2649.000000	0.007150 
2648.000000	0.007064 
2647.000000	0.006950 
2646.000000	0.006886 
2645.000000	0.006918 
2644.000000	0.006998 
2643.000000	0.007034 
2642.000000	0.006991 
2641.000000	0.006911 
2640.000000	0.006837 
2639.000000	0.006764 
2638.000000	0.006671 
2637.000000	0.006568 
2636.000000	0.006496 
2635.000000	0.006486 
2634.000000	0.006538 
2633.000000	0.006615 
2632.000000	0.006667 
2631.000000	0.006667 
2630.000000	0.006634 
2629.000000	0.006607 
2628.000000	0.006597 
2627.000000	0.006580 
2626.000000	0.006525 
2625.000000	0.006429 
2624.000000	0.006308 
2623.000000	0.006186 
2622.000000	0.006097 
2621.000000	0.006077 
2620.000000	0.006140 
2619.000000	0.006254 
2618.000000	0.006349 
2617.000000	0.006365 
2616.000000	0.006284 
2615.000000	0.006152 
2614.000000	0.006033 
2613.000000	0.005954 
2612.000000	0.005885 
2611.000000	0.005788 
2610.000000	0.005685 
2609.000000	0.005640 
2608.000000	0.005697 
2607.000000	0.005838 
2606.000000	0.005998 
2605.000000	0.006092 
2604.000000	0.006051 
2603.000000	0.005857 
2602.000000	0.005581 
2601.000000	0.005341 
2600.000000	0.005216 
2599.000000	0.005200 
2598.000000	0.005233 
2597.000000	0.005276 
2596.000000	0.005314 
2595.000000	0.005329 
2594.000000	0.005288 
2593.000000	0.005192 
2592.000000	0.005108 
2591.000000	0.005125 
2590.000000	0.005274 
2589.000000	0.005487 
2588.000000	0.005654 
2587.000000	0.005711 
2586.000000	0.005680 
2585.000000	0.005632 
2584.000000	0.005620 
2583.000000	0.005638 
2582.000000	0.005618 
2581.000000	0.005489 
2580.000000	0.005249 
2579.000000	0.004985 
2578.000000	0.004782 
2577.000000	0.004638 
2576.000000	0.004492 
2575.000000	0.004352 
2574.000000	0.004318 
2573.000000	0.004469 
2572.000000	0.004735 
2571.000000	0.004943 
2570.000000	0.004975 
2569.000000	0.004866 
2568.000000	0.004741 
2567.000000	0.004674 
2566.000000	0.004629 
2565.000000	0.004525 
2564.000000	0.004347 
2563.000000	0.004173 
2562.000000	0.004092 
2561.000000	0.004124 
2560.000000	0.004262 
2559.000000	0.004513 
2558.000000	0.004856 
2557.000000	0.005164 
2556.000000	0.005272 
2555.000000	0.005133 
2554.000000	0.004856 
2553.000000	0.004568 
2552.000000	0.004318 
2551.000000	0.004119 
2550.000000	0.004003 
2549.000000	0.003968 
2548.000000	0.003956 
2547.000000	0.003947 
2546.000000	0.004006 
2545.000000	0.004171 
2544.000000	0.004340 
2543.000000	0.004380 
2542.000000	0.004297 
2541.000000	0.004230 
2540.000000	0.004270 
2539.000000	0.004388 
2538.000000	0.004501 
2537.000000	0.004550 
2536.000000	0.004493 
2535.000000	0.004330 
2534.000000	0.004135 
2533.000000	0.003998 
2532.000000	0.003939 
2531.000000	0.003926 
2530.000000	0.003974 
2529.000000	0.004129 
2528.000000	0.004333 
2527.000000	0.004419 
2526.000000	0.004292 
2525.000000	0.004045 
2524.000000	0.003844 
2523.000000	0.003767 
2522.000000	0.003796 
2521.000000	0.003898 
2520.000000	0.004026 
2519.000000	0.004096 
2518.000000	0.004050 
2517.000000	0.003943 
2516.000000	0.003892 
2515.000000	0.003939 
2514.000000	0.004017 
2513.000000	0.004057 
2512.000000	0.004055 
2511.000000	0.004031 
2510.000000	0.003993 
2509.000000	0.003970 
2508.000000	0.004020 
2507.000000	0.004146 
2506.000000	0.004250 
2505.000000	0.004230 
2504.000000	0.004104 
2503.000000	0.003996 
2502.000000	0.003992 
2501.000000	0.004060 
2500.000000	0.004118 
2499.000000	0.004115 
2498.000000	0.004038 
2497.000000	0.003903 
2496.000000	0.003788 
2495.000000	0.003793 
2494.000000	0.003932 
2493.000000	0.004074 
2492.000000	0.004067 
2491.000000	0.003920 
2490.000000	0.003779 
2489.000000	0.003747 
2488.000000	0.003791 
2487.000000	0.003839 
2486.000000	0.003874 
2485.000000	0.003905 
2484.000000	0.003913 
2483.000000	0.003879 
2482.000000	0.003825 
2481.000000	0.003774 
2480.000000	0.003704 
2479.000000	0.003587 
2478.000000	0.003446 
2477.000000	0.003324 
2476.000000	0.003232 
2475.000000	0.003155 
2474.000000	0.003095 
2473.000000	0.003066 
2472.000000	0.003067 
2471.000000	0.003089 
2470.000000	0.003139 
2469.000000	0.003212 
2468.000000	0.003262 
2467.000000	0.003234 
2466.000000	0.003119 
2465.000000	0.002954 
2464.000000	0.002795 
2463.000000	0.002709 
2462.000000	0.002754 
2461.000000	0.002913 
2460.000000	0.003090 
2459.000000	0.003199 
2458.000000	0.003241 
2457.000000	0.003257 
2456.000000	0.003238 
2455.000000	0.003163 
2454.000000	0.003076 
2453.000000	0.003042 
2452.000000	0.003059 
2451.000000	0.003062 
2450.000000	0.003033 
2449.000000	0.003023 
2448.000000	0.003054 
2447.000000	0.003081 
2446.000000	0.003063 
2445.000000	0.003014 
2444.000000	0.002972 
2443.000000	0.002952 
2442.000000	0.002954 
2441.000000	0.002973 
2440.000000	0.002990 
2439.000000	0.002996 
2438.000000	0.003021 
2437.000000	0.003109 
2436.000000	0.003233 
2435.000000	0.003293 
2434.000000	0.003218 
2433.000000	0.003044 
2432.000000	0.002888 
2431.000000	0.002850 
2430.000000	0.002958 
2429.000000	0.003155 
2428.000000	0.003315 
2427.000000	0.003339 
2426.000000	0.003231 
2425.000000	0.003089 
2424.000000	0.002990 
2423.000000	0.002937 
2422.000000	0.002916 
2421.000000	0.002948 
2420.000000	0.003054 
2419.000000	0.003188 
2418.000000	0.003265 
2417.000000	0.003248 
2416.000000	0.003180 
2415.000000	0.003132 
2414.000000	0.003139 
2413.000000	0.003179 
2412.000000	0.003184 
2411.000000	0.003096 
2410.000000	0.002933 
2409.000000	0.002794 
2408.000000	0.002769 
2407.000000	0.002842 
2406.000000	0.002903 
2405.000000	0.002864 
2404.000000	0.002751 
2403.000000	0.002669 
2402.000000	0.002689 
2401.000000	0.002802 
2400.000000	0.002961 
2399.000000	0.003129 
2398.000000	0.003283 
2397.000000	0.003384 
2396.000000	0.003400 
2395.000000	0.003331 
2394.000000	0.003213 
2393.000000	0.003074 
2392.000000	0.002940 
2391.000000	0.002852 
2390.000000	0.002834 
2389.000000	0.002844 
2388.000000	0.002791 
2387.000000	0.002631 
2386.000000	0.002415 
2385.000000	0.002228 
2384.000000	0.002123 
2383.000000	0.002117 
2382.000000	0.002219 
2381.000000	0.002385 
2380.000000	0.002503 
2379.000000	0.002484 
2378.000000	0.002352 
2377.000000	0.002180 
2376.000000	0.001945 
2375.000000	0.001591 
2374.000000	0.001232 
2373.000000	0.001147 
2372.000000	0.001463 
2371.000000	0.001960 
2370.000000	0.002320 
2369.000000	0.002451 
2368.000000	0.002452 
2367.000000	0.002410 
2366.000000	0.002378 
2365.000000	0.002382 
2364.000000	0.002284 
2363.000000	0.001835 
2362.000000	0.001070 
2361.000000	0.000425 
2360.000000	0.000232 
2359.000000	0.000355 
2358.000000	0.000554 
2357.000000	0.000899 
2356.000000	0.001548 
2355.000000	0.002372 
2354.000000	0.003049 
2353.000000	0.003325 
2352.000000	0.003156 
2351.000000	0.002718 
2350.000000	0.002293 
2349.000000	0.002085 
2348.000000	0.002089 
2347.000000	0.002139 
2346.000000	0.002079 
2345.000000	0.001915 
2344.000000	0.001702 
2343.000000	0.001375 
2342.000000	0.000946 
2341.000000	0.000631 
2340.000000	0.000674 
2339.000000	0.001106 
2338.000000	0.001722 
2337.000000	0.002221 
2336.000000	0.002385 
2335.000000	0.002247 
2334.000000	0.002070 
2333.000000	0.002105 
2332.000000	0.002315 
2331.000000	0.002455 
2330.000000	0.002382 
2329.000000	0.002233 
2328.000000	0.002197 
2327.000000	0.002325 
2326.000000	0.002521 
2325.000000	0.002687 
2324.000000	0.002787 
2323.000000	0.002798 
2322.000000	0.002677 
2321.000000	0.002405 
2320.000000	0.002057 
2319.000000	0.001772 
2318.000000	0.001628 
2317.000000	0.001600 
2316.000000	0.001607 
2315.000000	0.001604 
2314.000000	0.001571 
2313.000000	0.001505 
2312.000000	0.001444 
2311.000000	0.001498 
2310.000000	0.001730 
2309.000000	0.002040 
2308.000000	0.002211 
2307.000000	0.002134 
2306.000000	0.001897 
2305.000000	0.001673 
2304.000000	0.001551 
2303.000000	0.001533 
2302.000000	0.001590 
2301.000000	0.001685 
2300.000000	0.001754 
2299.000000	0.001749 
2298.000000	0.001679 
2297.000000	0.001610 
2296.000000	0.001608 
2295.000000	0.001726 
2294.000000	0.001963 
2293.000000	0.002233 
2292.000000	0.002388 
2291.000000	0.002359 
2290.000000	0.002235 
2289.000000	0.002167 
2288.000000	0.002206 
2287.000000	0.002277 
2286.000000	0.002299 
2285.000000	0.002270 
2284.000000	0.002250 
2283.000000	0.002303 
2282.000000	0.002465 
2281.000000	0.002705 
2280.000000	0.002911 
2279.000000	0.002962 
2278.000000	0.002821 
2277.000000	0.002560 
2276.000000	0.002300 
2275.000000	0.002162 
2274.000000	0.002222 
2273.000000	0.002448 
2272.000000	0.002675 
2271.000000	0.002738 
2270.000000	0.002644 
2269.000000	0.002567 
2268.000000	0.002644 
2267.000000	0.002821 
2266.000000	0.002918 
2265.000000	0.002799 
2264.000000	0.002472 
2263.000000	0.002059 
2262.000000	0.001710 
2261.000000	0.001529 
2260.000000	0.001527 
2259.000000	0.001640 
2258.000000	0.001772 
2257.000000	0.001826 
2256.000000	0.001762 
2255.000000	0.001655 
2254.000000	0.001653 
2253.000000	0.001838 
2252.000000	0.002126 
2251.000000	0.002355 
2250.000000	0.002431 
2249.000000	0.002376 
2248.000000	0.002266 
2247.000000	0.002174 
2246.000000	0.002147 
2245.000000	0.002176 
2244.000000	0.002195 
2243.000000	0.002163 
2242.000000	0.002110 
2241.000000	0.002094 
2240.000000	0.002139 
2239.000000	0.002266 
2238.000000	0.002494 
2237.000000	0.002744 
2236.000000	0.002820 
2235.000000	0.002590 
2234.000000	0.002177 
2233.000000	0.001869 
2232.000000	0.001843 
2231.000000	0.002039 
2230.000000	0.002267 
2229.000000	0.002346 
2228.000000	0.002186 
2227.000000	0.001861 
2226.000000	0.001613 
2225.000000	0.001691 
2224.000000	0.002105 
2223.000000	0.002624 
2222.000000	0.002991 
2221.000000	0.003102 
2220.000000	0.003005 
2219.000000	0.002803 
2218.000000	0.002575 
2217.000000	0.002339 
2216.000000	0.002076 
2215.000000	0.001835 
2214.000000	0.001750 
2213.000000	0.001893 
2212.000000	0.002160 
2211.000000	0.002405 
2210.000000	0.002627 
2209.000000	0.002905 
2208.000000	0.003194 
2207.000000	0.003357 
2206.000000	0.003364 
2205.000000	0.003321 
2204.000000	0.003285 
2203.000000	0.003184 
2202.000000	0.002985 
2201.000000	0.002799 
2200.000000	0.002756 
2199.000000	0.002835 
2198.000000	0.002900 
2197.000000	0.002841 
2196.000000	0.002661 
2195.000000	0.002468 
2194.000000	0.002421 
2193.000000	0.002601 
2192.000000	0.002899 
2191.000000	0.003078 
2190.000000	0.002977 
2189.000000	0.002643 
2188.000000	0.002246 
2187.000000	0.001920 
2186.000000	0.001692 
2185.000000	0.001519 
2184.000000	0.001362 
2183.000000	0.001244 
2182.000000	0.001223 
2181.000000	0.001297 
2180.000000	0.001411 
2179.000000	0.001559 
2178.000000	0.001795 
2177.000000	0.002087 
2176.000000	0.002280 
2175.000000	0.002311 
2174.000000	0.002363 
2173.000000	0.002641 
2172.000000	0.003048 
2171.000000	0.003230 
2170.000000	0.002970 
2169.000000	0.002442 
2168.000000	0.002040 
2167.000000	0.002012 
2166.000000	0.002291 
2165.000000	0.002639 
2164.000000	0.002915 
2163.000000	0.003172 
2162.000000	0.003456 
2161.000000	0.003614 
2160.000000	0.003471 
2159.000000	0.003170 
2158.000000	0.003020 
2157.000000	0.003010 
2156.000000	0.002825 
2155.000000	0.002389 
2154.000000	0.002010 
2153.000000	0.001918 
2152.000000	0.001963 
2151.000000	0.001907 
2150.000000	0.001781 
2149.000000	0.001742 
2148.000000	0.001800 
2147.000000	0.001913 
2146.000000	0.002181 
2145.000000	0.002641 
2144.000000	0.003033 
2143.000000	0.003032 
2142.000000	0.002685 
2141.000000	0.002359 
2140.000000	0.002306 
2139.000000	0.002462 
2138.000000	0.002640 
2137.000000	0.002686 
2136.000000	0.002498 
2135.000000	0.002110 
2134.000000	0.001773 
2133.000000	0.001743 
2132.000000	0.001970 
2131.000000	0.002147 
2130.000000	0.002070 
2129.000000	0.001807 
2128.000000	0.001534 
2127.000000	0.001358 
2126.000000	0.001329 
2125.000000	0.001485 
2124.000000	0.001797 
2123.000000	0.002169 
2122.000000	0.002504 
2121.000000	0.002725 
2120.000000	0.002752 
2119.000000	0.002556 
2118.000000	0.002256 
2117.000000	0.002050 
2116.000000	0.002028 
2115.000000	0.002122 
2114.000000	0.002224 
2113.000000	0.002272 
2112.000000	0.002230 
2111.000000	0.002099 
2110.000000	0.001968 
2109.000000	0.001932 
2108.000000	0.001961 
2107.000000	0.001946 
2106.000000	0.001867 
2105.000000	0.001806 
2104.000000	0.001776 
2103.000000	0.001697 
2102.000000	0.001575 
2101.000000	0.001535 
2100.000000	0.001636 
2099.000000	0.001776 
2098.000000	0.001855 
2097.000000	0.001902 
2096.000000	0.001982 
2095.000000	0.002065 
2094.000000	0.002095 
2093.000000	0.002084 
2092.000000	0.002093 
2091.000000	0.002161 
2090.000000	0.002308 
2089.000000	0.002509 
2088.000000	0.002642 
2087.000000	0.002576 
2086.000000	0.002331 
2085.000000	0.002076 
2084.000000	0.001926 
2083.000000	0.001824 
2082.000000	0.001687 
2081.000000	0.001557 
2080.000000	0.001527 
2079.000000	0.001623 
2078.000000	0.001819 
2077.000000	0.002088 
2076.000000	0.002362 
2075.000000	0.002513 
2074.000000	0.002468 
2073.000000	0.002294 
2072.000000	0.002109 
2071.000000	0.001966 
2070.000000	0.001863 
2069.000000	0.001801 
2068.000000	0.001776 
2067.000000	0.001770 
2066.000000	0.001791 
2065.000000	0.001875 
2064.000000	0.002008 
2063.000000	0.002147 
2062.000000	0.002324 
2061.000000	0.002604 
2060.000000	0.002913 
2059.000000	0.003045 
2058.000000	0.002924 
2057.000000	0.002728 
2056.000000	0.002664 
2055.000000	0.002687 
2054.000000	0.002570 
2053.000000	0.002197 
2052.000000	0.001686 
2051.000000	0.001282 
2050.000000	0.001172 
2049.000000	0.001360 
2048.000000	0.001636 
2047.000000	0.001776 
2046.000000	0.001783 
2045.000000	0.001876 
2044.000000	0.002198 
2043.000000	0.002644 
2042.000000	0.002974 
2041.000000	0.003005 
2040.000000	0.002686 
2039.000000	0.002134 
2038.000000	0.001640 
2037.000000	0.001499 
2036.000000	0.001723 
2035.000000	0.002045 
2034.000000	0.002256 
2033.000000	0.002396 
2032.000000	0.002539 
2031.000000	0.002614 
2030.000000	0.002549 
2029.000000	0.002418 
2028.000000	0.002322 
2027.000000	0.002281 
2026.000000	0.002335 
2025.000000	0.002573 
2024.000000	0.002932 
2023.000000	0.003169 
2022.000000	0.003137 
2021.000000	0.002957 
2020.000000	0.002785 
2019.000000	0.002569 
2018.000000	0.002197 
2017.000000	0.001752 
2016.000000	0.001440 
2015.000000	0.001348 
2014.000000	0.001414 
2013.000000	0.001512 
2012.000000	0.001462 
2011.000000	0.001135 
2010.000000	0.000663 
2009.000000	0.000409 
2008.000000	0.000570 
2007.000000	0.000960 
2006.000000	0.001305 
2005.000000	0.001548 
2004.000000	0.001720 
2003.000000	0.001744 
2002.000000	0.001573 
2001.000000	0.001391 
2000.000000	0.001456 
1999.000000	0.001770 
1998.000000	0.002082 
1997.000000	0.002186 
1996.000000	0.002074 
1995.000000	0.001837 
1994.000000	0.001588 
1993.000000	0.001485 
1992.000000	0.001645 
1991.000000	0.001967 
1990.000000	0.002213 
1989.000000	0.002271 
1988.000000	0.002211 
1987.000000	0.002124 
1986.000000	0.001989 
1985.000000	0.001744 
1984.000000	0.001437 
1983.000000	0.001232 
1982.000000	0.001254 
1981.000000	0.001414 
1980.000000	0.001466 
1979.000000	0.001257 
1978.000000	0.000917 
1977.000000	0.000690 
1976.000000	0.000624 
1975.000000	0.000584 
1974.000000	0.000549 
1973.000000	0.000663 
1972.000000	0.000969 
1971.000000	0.001286 
1970.000000	0.001453 
1969.000000	0.001528 
1968.000000	0.001669 
1967.000000	0.001882 
1966.000000	0.002041 
1965.000000	0.002101 
1964.000000	0.002128 
1963.000000	0.002183 
1962.000000	0.002278 
1961.000000	0.002401 
1960.000000	0.002485 
1959.000000	0.002416 
1958.000000	0.002140 
1957.000000	0.001768 
1956.000000	0.001486 
1955.000000	0.001400 
1954.000000	0.001470 
1953.000000	0.001590 
1952.000000	0.001669 
1951.000000	0.001674 
1950.000000	0.001647 
1949.000000	0.001681 
1948.000000	0.001828 
1947.000000	0.002028 
1946.000000	0.002162 
1945.000000	0.002199 
1944.000000	0.002245 
1943.000000	0.002410 
1942.000000	0.002609 
1941.000000	0.002626 
1940.000000	0.002416 
1939.000000	0.002192 
1938.000000	0.002203 
1937.000000	0.002456 
1936.000000	0.002682 
1935.000000	0.002642 
1934.000000	0.002391 
1933.000000	0.002152 
1932.000000	0.002033 
1931.000000	0.001971 
1930.000000	0.001910 
1929.000000	0.001873 
1928.000000	0.001871 
1927.000000	0.001869 
1926.000000	0.001864 
1925.000000	0.001897 
1924.000000	0.001982 
1923.000000	0.002058 
1922.000000	0.002056 
1921.000000	0.001966 
1920.000000	0.001820 
1919.000000	0.001695 
1918.000000	0.001732 
1917.000000	0.001977 
1916.000000	0.002253 
1915.000000	0.002342 
1914.000000	0.002196 
1913.000000	0.001954 
1912.000000	0.001791 
1911.000000	0.001774 
1910.000000	0.001872 
1909.000000	0.002015 
1908.000000	0.002119 
1907.000000	0.002124 
1906.000000	0.002042 
1905.000000	0.001935 
1904.000000	0.001865 
1903.000000	0.001870 
1902.000000	0.001966 
1901.000000	0.002131 
1900.000000	0.002290 
1899.000000	0.002381 
1898.000000	0.002404 
1897.000000	0.002374 
1896.000000	0.002261 
1895.000000	0.002061 
1894.000000	0.001897 
1893.000000	0.001909 
1892.000000	0.002077 
1891.000000	0.002239 
1890.000000	0.002261 
1889.000000	0.002178 
1888.000000	0.002108 
1887.000000	0.002107 
1886.000000	0.002167 
1885.000000	0.002247 
1884.000000	0.002280 
1883.000000	0.002245 
1882.000000	0.002222 
1881.000000	0.002297 
1880.000000	0.002426 
1879.000000	0.002476 
1878.000000	0.002418 
1877.000000	0.002364 
1876.000000	0.002393 
1875.000000	0.002456 
1874.000000	0.002478 
1873.000000	0.002449 
1872.000000	0.002374 
1871.000000	0.002223 
1870.000000	0.002020 
1869.000000	0.001916 
1868.000000	0.001984 
1867.000000	0.002074 
1866.000000	0.002083 
1865.000000	0.002064 
1864.000000	0.002073 
1863.000000	0.002087 
1862.000000	0.002083 
1861.000000	0.002098 
1860.000000	0.002157 
1859.000000	0.002203 
1858.000000	0.002175 
1857.000000	0.002087 
1856.000000	0.001990 
1855.000000	0.001915 
1854.000000	0.001898 
1853.000000	0.001998 
1852.000000	0.002207 
1851.000000	0.002412 
1850.000000	0.002510 
1849.000000	0.002510 
1848.000000	0.002478 
1847.000000	0.002412 
1846.000000	0.002258 
1845.000000	0.002030 
1844.000000	0.001845 
1843.000000	0.001789 
1842.000000	0.001851 
1841.000000	0.001979 
1840.000000	0.002107 
1839.000000	0.002163 
1838.000000	0.002128 
1837.000000	0.002075 
1836.000000	0.002101 
1835.000000	0.002210 
1834.000000	0.002337 
1833.000000	0.002430 
1832.000000	0.002470 
1831.000000	0.002443 
1830.000000	0.002378 
1829.000000	0.002331 
1828.000000	0.002308 
1827.000000	0.002290 
1826.000000	0.002292 
1825.000000	0.002328 
1824.000000	0.002342 
1823.000000	0.002262 
1822.000000	0.002110 
1821.000000	0.001980 
1820.000000	0.001930 
1819.000000	0.001948 
1818.000000	0.002025 
1817.000000	0.002172 
1816.000000	0.002348 
1815.000000	0.002465 
1814.000000	0.002489 
1813.000000	0.002473 
1812.000000	0.002461 
1811.000000	0.002429 
1810.000000	0.002359 
1809.000000	0.002299 
1808.000000	0.002288 
1807.000000	0.002304 
1806.000000	0.002351 
1805.000000	0.002475 
1804.000000	0.002678 
1803.000000	0.002864 
1802.000000	0.002948 
1801.000000	0.002963 
1800.000000	0.002974 
1799.000000	0.002964 
1798.000000	0.002923 
1797.000000	0.002922 
1796.000000	0.002992 
1795.000000	0.003051 
1794.000000	0.003007 
1793.000000	0.002914 
1792.000000	0.002905 
1791.000000	0.002968 
1790.000000	0.003015 
1789.000000	0.003058 
1788.000000	0.003118 
1787.000000	0.003179 
1786.000000	0.003253 
1785.000000	0.003405 
1784.000000	0.003640 
1783.000000	0.003834 
1782.000000	0.003877 
1781.000000	0.003829 
1780.000000	0.003822 
1779.000000	0.003870 
1778.000000	0.003926 
1777.000000	0.004014 
1776.000000	0.004165 
1775.000000	0.004292 
1774.000000	0.004289 
1773.000000	0.004227 
1772.000000	0.004314 
1771.000000	0.004500 
1770.000000	0.004618 
1769.000000	0.004707 
1768.000000	0.004877 
1767.000000	0.005104 
1766.000000	0.005318 
1765.000000	0.005549 
1764.000000	0.005859 
1763.000000	0.006234 
1762.000000	0.006588 
1761.000000	0.006930 
1760.000000	0.007336 
1759.000000	0.007811 
1758.000000	0.008363 
1757.000000	0.009123 
1756.000000	0.010119 
1755.000000	0.011167 
1754.000000	0.012217 
1753.000000	0.013574 
1752.000000	0.015750 
1751.000000	0.019043 
1750.000000	0.023466 
1749.000000	0.029116 
1748.000000	0.035714 
1747.000000	0.042446 
1746.000000	0.049135 
1745.000000	0.056354 
1744.000000	0.063998 
1743.000000	0.070681 
1742.000000	0.075194 
1741.000000	0.077323 
1740.000000	0.076969 
1739.000000	0.074397 
1738.000000	0.070857 
1737.000000	0.067092 
1736.000000	0.062214 
1735.000000	0.054314 
1734.000000	0.044255 
1733.000000	0.036771 
1732.000000	0.032441 
1731.000000	0.029090 
1730.000000	0.025853 
1729.000000	0.022933 
1728.000000	0.020564 
1727.000000	0.018698 
1726.000000	0.017202 
1725.000000	0.015946 
1724.000000	0.014824 
1723.000000	0.013876 
1722.000000	0.013216 
1721.000000	0.012799 
1720.000000	0.012393 
1719.000000	0.011712 
1718.000000	0.010699 
1717.000000	0.009784 
1716.000000	0.009251 
1715.000000	0.008952 
1714.000000	0.008770 
1713.000000	0.008635 
1712.000000	0.008471 
1711.000000	0.008256 
1710.000000	0.008034 
1709.000000	0.007859 
1708.000000	0.007707 
1707.000000	0.007516 
1706.000000	0.007334 
1705.000000	0.007272 
1704.000000	0.007290 
1703.000000	0.007264 
1702.000000	0.007159 
1701.000000	0.007020 
1700.000000	0.006861 
1699.000000	0.006751 
1698.000000	0.006756 
1697.000000	0.006825 
1696.000000	0.006877 
1695.000000	0.006841 
1694.000000	0.006824 
1693.000000	0.006860 
1692.000000	0.006867 
1691.000000	0.006848 
1690.000000	0.006869 
1689.000000	0.006958 
1688.000000	0.007066 
1687.000000	0.007148 
1686.000000	0.007254 
1685.000000	0.007434 
1684.000000	0.007620 
1683.000000	0.007679 
1682.000000	0.007717 
1681.000000	0.007788 
1680.000000	0.007853 
1679.000000	0.007923 
1678.000000	0.008042 
1677.000000	0.008219 
1676.000000	0.008416 
1675.000000	0.008597 
1674.000000	0.008785 
1673.000000	0.009007 
1672.000000	0.009197 
1671.000000	0.009360 
1670.000000	0.009656 
1669.000000	0.010124 
1668.000000	0.010532 
1667.000000	0.010812 
1666.000000	0.011059 
1665.000000	0.011357 
1664.000000	0.011764 
1663.000000	0.012308 
1662.000000	0.012921 
1661.000000	0.013479 
1660.000000	0.013937 
1659.000000	0.014328 
1658.000000	0.014706 
1657.000000	0.015056 
1656.000000	0.015240 
1655.000000	0.015180 
1654.000000	0.015272 
1653.000000	0.016234 
1652.000000	0.017129 
1651.000000	0.017700 
1650.000000	0.018143 
1649.000000	0.018453 
1648.000000	0.018647 
1647.000000	0.018871 
1646.000000	0.019178 
1645.000000	0.019440 
1644.000000	0.019666 
1643.000000	0.019853 
1642.000000	0.020015 
1641.000000	0.020210 
1640.000000	0.020425 
1639.000000	0.020577 
1638.000000	0.020653 
1637.000000	0.020774 
1636.000000	0.020986 
1635.000000	0.020990 
1634.000000	0.020781 
1633.000000	0.020639 
1632.000000	0.020587 
1631.000000	0.020535 
1630.000000	0.020432 
1629.000000	0.020263 
1628.000000	0.020023 
1627.000000	0.019723 
1626.000000	0.019379 
1625.000000	0.018969 
1624.000000	0.018430 
1623.000000	0.017811 
1622.000000	0.017289 
1621.000000	0.016920 
1620.000000	0.016579 
1619.000000	0.016104 
1618.000000	0.015436 
1617.000000	0.014742 
1616.000000	0.014280 
1615.000000	0.014037 
1614.000000	0.013864 
1613.000000	0.013650 
1612.000000	0.013356 
1611.000000	0.013013 
1610.000000	0.012694 
1609.000000	0.012438 
1608.000000	0.012216 
1607.000000	0.012004 
1606.000000	0.011822 
1605.000000	0.011690 
1604.000000	0.011587 
1603.000000	0.011507 
1602.000000	0.011491 
1601.000000	0.011542 
1600.000000	0.011598 
1599.000000	0.011607 
1598.000000	0.011589 
1597.000000	0.011593 
1596.000000	0.011644 
1595.000000	0.011751 
1594.000000	0.011928 
1593.000000	0.012166 
1592.000000	0.012431 
1591.000000	0.012719 
1590.000000	0.013056 
1589.000000	0.013446 
1588.000000	0.013845 
1587.000000	0.014227 
1586.000000	0.014603 
1585.000000	0.014986 
1584.000000	0.015363 
1583.000000	0.015732 
1582.000000	0.016123 
1581.000000	0.016537 
1580.000000	0.016892 
1579.000000	0.017078 
1578.000000	0.017107 
1577.000000	0.017205 
1576.000000	0.017615 
1575.000000	0.018149 
1574.000000	0.018579 
1573.000000	0.018896 
1572.000000	0.019113 
1571.000000	0.019252 
1570.000000	0.019360 
1569.000000	0.019456 
1568.000000	0.019479 
1567.000000	0.019411 
1566.000000	0.019293 
1565.000000	0.019164 
1564.000000	0.019022 
1563.000000	0.018846 
1562.000000	0.018692 
1561.000000	0.018687 
1560.000000	0.018654 
1559.000000	0.017760 
1558.000000	0.016581 
1557.000000	0.015900 
1556.000000	0.015552 
1555.000000	0.015243 
1554.000000	0.014927 
1553.000000	0.014697 
1552.000000	0.014514 
1551.000000	0.014236 
1550.000000	0.013851 
1549.000000	0.013485 
1548.000000	0.013189 
1547.000000	0.012879 
1546.000000	0.012466 
1545.000000	0.011956 
1544.000000	0.011443 
1543.000000	0.010963 
1542.000000	0.010488 
1541.000000	0.010212 
1540.000000	0.010390 
1539.000000	0.010455 
1538.000000	0.010323 
1537.000000	0.010301 
1536.000000	0.010320 
1535.000000	0.010239 
1534.000000	0.010084 
1533.000000	0.010036 
1532.000000	0.010053 
1531.000000	0.009998 
1530.000000	0.009876 
1529.000000	0.009740 
1528.000000	0.009593 
1527.000000	0.009411 
1526.000000	0.009246 
1525.000000	0.009189 
1524.000000	0.009178 
1523.000000	0.009063 
1522.000000	0.008919 
1521.000000	0.009019 
1520.000000	0.009238 
1519.000000	0.009353 
1518.000000	0.009346 
1517.000000	0.009339 
1516.000000	0.009387 
1515.000000	0.009412 
1514.000000	0.009447 
1513.000000	0.009574 
1512.000000	0.009786 
1511.000000	0.010007 
1510.000000	0.010200 
1509.000000	0.010368 
1508.000000	0.010434 
1507.000000	0.010450 
1506.000000	0.010501 
1505.000000	0.010572 
1504.000000	0.010799 
1503.000000	0.011050 
1502.000000	0.011275 
1501.000000	0.011543 
1500.000000	0.011843 
1499.000000	0.012064 
1498.000000	0.012258 
1497.000000	0.012639 
1496.000000	0.013099 
1495.000000	0.013348 
1494.000000	0.013447 
1493.000000	0.013545 
1492.000000	0.013641 
1491.000000	0.013731 
1490.000000	0.014069 
1489.000000	0.014818 
1488.000000	0.015553 
1487.000000	0.016014 
1486.000000	0.016423 
1485.000000	0.016984 
1484.000000	0.017690 
1483.000000	0.018520 
1482.000000	0.019602 
1481.000000	0.020955 
1480.000000	0.022323 
1479.000000	0.023579 
1478.000000	0.024985 
1477.000000	0.026823 
1476.000000	0.028952 
1475.000000	0.031285 
1474.000000	0.034941 
1473.000000	0.041588 
1472.000000	0.049860 
1471.000000	0.056876 
1470.000000	0.062644 
1469.000000	0.067979 
1468.000000	0.072895 
1467.000000	0.077113 
1466.000000	0.080621 
1465.000000	0.083422 
1464.000000	0.085187 
1463.000000	0.085985 
1462.000000	0.086361 
1461.000000	0.086621 
1460.000000	0.086749 
1459.000000	0.086776 
1458.000000	0.086902 
1457.000000	0.086583 
1456.000000	0.084938 
1455.000000	0.082667 
1454.000000	0.080298 
1453.000000	0.077702 
1452.000000	0.074904 
1451.000000	0.072259 
1450.000000	0.069928 
1449.000000	0.067617 
1448.000000	0.065045 
1447.000000	0.062377 
1446.000000	0.059807 
1445.000000	0.057244 
1444.000000	0.054592 
1443.000000	0.051968 
1442.000000	0.049545 
1441.000000	0.047370 
1440.000000	0.045407 
1439.000000	0.043572 
1438.000000	0.041645 
1437.000000	0.039423 
1436.000000	0.037275 
1435.000000	0.035691 
1434.000000	0.034449 
1433.000000	0.033116 
1432.000000	0.031561 
1431.000000	0.029920 
1430.000000	0.028350 
1429.000000	0.026950 
1428.000000	0.025875 
1427.000000	0.025208 
1426.000000	0.024826 
1425.000000	0.024555 
1424.000000	0.024360 
1423.000000	0.024272 
1422.000000	0.024198 
1421.000000	0.024014 
1420.000000	0.023709 
1419.000000	0.023390 
1418.000000	0.023101 
1417.000000	0.022778 
1416.000000	0.022433 
1415.000000	0.022109 
1414.000000	0.021794 
1413.000000	0.021482 
1412.000000	0.021264 
1411.000000	0.021245 
1410.000000	0.021368 
1409.000000	0.021500 
1408.000000	0.021634 
1407.000000	0.021857 
1406.000000	0.022181 
1405.000000	0.022545 
1404.000000	0.022917 
1403.000000	0.023301 
1402.000000	0.023679 
1401.000000	0.024043 
1400.000000	0.024443 
1399.000000	0.024899 
1398.000000	0.025305 
1397.000000	0.025578 
1396.000000	0.025801 
1395.000000	0.026076 
1394.000000	0.026341 
1393.000000	0.026516 
1392.000000	0.026669 
1391.000000	0.026896 
1390.000000	0.027266 
1389.000000	0.027915 
1388.000000	0.029045 
1387.000000	0.030651 
1386.000000	0.032388 
1385.000000	0.034077 
1384.000000	0.035901 
1383.000000	0.038096 
1382.000000	0.040728 
1381.000000	0.043690 
1380.000000	0.046674 
1379.000000	0.049101 
1378.000000	0.050366 
1377.000000	0.050248 
1376.000000	0.048812 
1375.000000	0.046193 
1374.000000	0.042903 
1373.000000	0.039842 
1372.000000	0.037514 
1371.000000	0.035870 
1370.000000	0.034755 
1369.000000	0.034104 
1368.000000	0.033823 
1367.000000	0.033678 
1366.000000	0.033403 
1365.000000	0.032811 
1364.000000	0.031814 
1363.000000	0.030532 
1362.000000	0.029320 
1361.000000	0.028426 
1360.000000	0.027830 
1359.000000	0.027444 
1358.000000	0.027205 
1357.000000	0.027063 
1356.000000	0.026974 
1355.000000	0.026925 
1354.000000	0.026919 
1353.000000	0.026946 
1352.000000	0.026967 
1351.000000	0.026932 
1350.000000	0.026803 
1349.000000	0.026585 
1348.000000	0.026308 
1347.000000	0.025984 
1346.000000	0.025588 
1345.000000	0.025115 
1344.000000	0.024630 
1343.000000	0.024206 
1342.000000	0.023843 
1341.000000	0.023460 
1340.000000	0.022983 
1339.000000	0.022426 
1338.000000	0.021842 
1337.000000	0.021271 
1336.000000	0.020756 
1335.000000	0.020326 
1334.000000	0.019973 
1333.000000	0.019675 
1332.000000	0.019448 
1331.000000	0.019324 
1330.000000	0.019296 
1329.000000	0.019319 
1328.000000	0.019372 
1327.000000	0.019477 
1326.000000	0.019636 
1325.000000	0.019825 
1324.000000	0.020039 
1323.000000	0.020287 
1322.000000	0.020543 
1321.000000	0.020751 
1320.000000	0.020885 
1319.000000	0.020988 
1318.000000	0.021113 
1317.000000	0.021282 
1316.000000	0.021503 
1315.000000	0.021782 
1314.000000	0.022082 
1313.000000	0.022334 
1312.000000	0.022512 
1311.000000	0.022653 
1310.000000	0.022796 
1309.000000	0.022941 
1308.000000	0.023076 
1307.000000	0.023199 
1306.000000	0.023293 
1305.000000	0.023330 
1304.000000	0.023305 
1303.000000	0.023249 
1302.000000	0.023172 
1301.000000	0.023044 
1300.000000	0.022841 
1299.000000	0.022580 
1298.000000	0.022287 
1297.000000	0.021966 
1296.000000	0.021617 
1295.000000	0.021256 
1294.000000	0.020900 
1293.000000	0.020558 
1292.000000	0.020256 
1291.000000	0.020049 
1290.000000	0.019981 
1289.000000	0.020050 
1288.000000	0.020230 
1287.000000	0.020492 
1286.000000	0.020807 
1285.000000	0.021145 
1284.000000	0.021488 
1283.000000	0.021818 
1282.000000	0.022120 
1281.000000	0.022393 
1280.000000	0.022678 
1279.000000	0.023011 
1278.000000	0.023376 
1277.000000	0.023721 
1276.000000	0.024027 
1275.000000	0.024317 
1274.000000	0.024611 
1273.000000	0.024903 
1272.000000	0.025199 
1271.000000	0.025517 
1270.000000	0.025832 
1269.000000	0.026080 
1268.000000	0.026241 
1267.000000	0.026385 
1266.000000	0.026598 
1265.000000	0.026884 
1264.000000	0.027185 
1263.000000	0.027460 
1262.000000	0.027716 
1261.000000	0.027954 
1260.000000	0.028131 
1259.000000	0.028190 
1258.000000	0.028116 
1257.000000	0.027963 
1256.000000	0.027820 
1255.000000	0.027767 
1254.000000	0.027825 
1253.000000	0.027968 
1252.000000	0.028178 
1251.000000	0.028483 
1250.000000	0.028915 
1249.000000	0.029455 
1248.000000	0.030023 
1247.000000	0.030547 
1246.000000	0.031000 
1245.000000	0.031388 
1244.000000	0.031704 
1243.000000	0.031921 
1242.000000	0.032021 
1241.000000	0.032009 
1240.000000	0.031896 
1239.000000	0.031675 
1238.000000	0.031323 
1237.000000	0.030845 
1236.000000	0.030292 
1235.000000	0.029724 
1234.000000	0.029164 
1233.000000	0.028594 
1232.000000	0.028009 
1231.000000	0.027438 
1230.000000	0.026905 
1229.000000	0.026407 
1228.000000	0.025934 
1227.000000	0.025498 
1226.000000	0.025115 
1225.000000	0.024778 
1224.000000	0.024476 
1223.000000	0.024204 
1222.000000	0.023963 
1221.000000	0.023759 
1220.000000	0.023623 
1219.000000	0.023584 
1218.000000	0.023626 
1217.000000	0.023684 
1216.000000	0.023722 
1215.000000	0.023775 
1214.000000	0.023887 
1213.000000	0.024049 
1212.000000	0.024226 
1211.000000	0.024412 
1210.000000	0.024630 
1209.000000	0.024890 
1208.000000	0.025172 
1207.000000	0.025452 
1206.000000	0.025723 
1205.000000	0.025994 
1204.000000	0.026299 
1203.000000	0.026679 
1202.000000	0.027159 
1201.000000	0.027728 
1200.000000	0.028348 
1199.000000	0.028991 
1198.000000	0.029653 
1197.000000	0.030359 
1196.000000	0.031141 
1195.000000	0.032005 
1194.000000	0.032916 
1193.000000	0.033839 
1192.000000	0.034777 
1191.000000	0.035773 
1190.000000	0.036856 
1189.000000	0.038016 
1188.000000	0.039219 
1187.000000	0.040431 
1186.000000	0.041628 
1185.000000	0.042790 
1184.000000	0.043914 
1183.000000	0.045022 
1182.000000	0.046127 
1181.000000	0.047208 
1180.000000	0.048207 
1179.000000	0.049069 
1178.000000	0.049774 
1177.000000	0.050321 
1176.000000	0.050686 
1175.000000	0.050841 
1174.000000	0.050791 
1173.000000	0.050574 
1172.000000	0.050232 
1171.000000	0.049784 
1170.000000	0.049242 
1169.000000	0.048621 
1168.000000	0.047940 
1167.000000	0.047208 
1166.000000	0.046408 
1165.000000	0.045486 
1164.000000	0.044395 
1163.000000	0.043154 
1162.000000	0.041838 
1161.000000	0.040511 
1160.000000	0.039208 
1159.000000	0.037959 
1158.000000	0.036786 
1157.000000	0.035673 
1156.000000	0.034586 
1155.000000	0.033554 
1154.000000	0.032642 
1153.000000	0.031840 
1152.000000	0.031041 
1151.000000	0.030157 
1150.000000	0.029230 
1149.000000	0.028372 
1148.000000	0.027641 
1147.000000	0.027009 
1146.000000	0.026406 
1145.000000	0.025778 
1144.000000	0.025102 
1143.000000	0.024398 
1142.000000	0.023727 
1141.000000	0.023144 
1140.000000	0.022659 
1139.000000	0.022242 
1138.000000	0.021866 
1137.000000	0.021519 
1136.000000	0.021191 
1135.000000	0.020861 
1134.000000	0.020535 
1133.000000	0.020260 
1132.000000	0.020092 
1131.000000	0.020051 
1130.000000	0.020130 
1129.000000	0.020347 
1128.000000	0.020755 
1127.000000	0.021369 
1126.000000	0.022118 
1125.000000	0.022895 
1124.000000	0.023627 
1123.000000	0.024293 
1122.000000	0.024884 
1121.000000	0.025393 
1120.000000	0.025821 
1119.000000	0.026149 
1118.000000	0.026317 
1117.000000	0.026271 
1116.000000	0.026022 
1115.000000	0.025641 
1114.000000	0.025194 
1113.000000	0.024710 
1112.000000	0.024214 
1111.000000	0.023746 
1110.000000	0.023341 
1109.000000	0.023022 
1108.000000	0.022812 
1107.000000	0.022722 
1106.000000	0.022721 
1105.000000	0.022757 
1104.000000	0.022832 
1103.000000	0.022987 
1102.000000	0.023213 
1101.000000	0.023405 
1100.000000	0.023449 
1099.000000	0.023330 
1098.000000	0.023136 
1097.000000	0.022959 
1096.000000	0.022836 
1095.000000	0.022736 
1094.000000	0.022604 
1093.000000	0.022425 
1092.000000	0.022255 
1091.000000	0.022177 
1090.000000	0.022192 
1089.000000	0.022205 
1088.000000	0.022120 
1087.000000	0.021934 
1086.000000	0.021714 
1085.000000	0.021520 
1084.000000	0.021398 
1083.000000	0.021377 
1082.000000	0.021437 
1081.000000	0.021488 
1080.000000	0.021441 
1079.000000	0.021310 
1078.000000	0.021214 
1077.000000	0.021290 
1076.000000	0.021607 
1075.000000	0.022129 
1074.000000	0.022731 
1073.000000	0.023274 
1072.000000	0.023712 
1071.000000	0.024114 
1070.000000	0.024582 
1069.000000	0.025143 
1068.000000	0.025762 
1067.000000	0.026390 
1066.000000	0.026987 
1065.000000	0.027485 
1064.000000	0.027813 
1063.000000	0.027947 
1062.000000	0.027912 
1061.000000	0.027741 
1060.000000	0.027462 
1059.000000	0.027131 
1058.000000	0.026825 
1057.000000	0.026603 
1056.000000	0.026491 
1055.000000	0.026496 
1054.000000	0.026603 
1053.000000	0.026743 
1052.000000	0.026816 
1051.000000	0.026769 
1050.000000	0.026648 
1049.000000	0.026534 
1048.000000	0.026482 
1047.000000	0.026502 
1046.000000	0.026576 
1045.000000	0.026671 
1044.000000	0.026759 
1043.000000	0.026846 
1042.000000	0.026960 
1041.000000	0.027111 
1040.000000	0.027261 
1039.000000	0.027343 
1038.000000	0.027292 
1037.000000	0.027061 
1036.000000	0.026658 
1035.000000	0.026153 
1034.000000	0.025640 
1033.000000	0.025171 
1032.000000	0.024736 
1031.000000	0.024306 
1030.000000	0.023875 
1029.000000	0.023457 
1028.000000	0.023083 
1027.000000	0.022785 
1026.000000	0.022564 
1025.000000	0.022374 
1024.000000	0.022152 
1023.000000	0.021866 
1022.000000	0.021509 
1021.000000	0.021070 
1020.000000	0.020543 
1019.000000	0.019970 
1018.000000	0.019420 
1017.000000	0.018936 
1016.000000	0.018533 
1015.000000	0.018231 
1014.000000	0.018049 
1013.000000	0.017949 
1012.000000	0.017826 
1011.000000	0.017606 
1010.000000	0.017324 
1009.000000	0.017085 
1008.000000	0.016961 
1007.000000	0.016921 
1006.000000	0.016881 
1005.000000	0.016784 
1004.000000	0.016661 
1003.000000	0.016587 
1002.000000	0.016594 
1001.000000	0.016635 
1000.000000	0.016646 
999.000000	 0.016619 
998.000000	 0.016589 
997.000000	 0.016561 
996.000000	 0.016495 
995.000000	 0.016361 
994.000000	 0.016175 
993.000000	 0.015967 
992.000000	 0.015763 
991.000000	 0.015610 
990.000000	 0.015561 
989.000000	 0.015612 
988.000000	 0.015671 
987.000000	 0.015641 
986.000000	 0.015523 
985.000000	 0.015403 
984.000000	 0.015356 
983.000000	 0.015407 
982.000000	 0.015551 
981.000000	 0.015780 
980.000000	 0.016063 
979.000000	 0.016344 
978.000000	 0.016578 
977.000000	 0.016778 
976.000000	 0.016997 
975.000000	 0.017274 
974.000000	 0.017583 
973.000000	 0.017839 
972.000000	 0.017962 
971.000000	 0.017954 
970.000000	 0.017895 
969.000000	 0.017856 
968.000000	 0.017837 
967.000000	 0.017791 
966.000000	 0.017698 
965.000000	 0.017567 
964.000000	 0.017386 
963.000000	 0.017125 
962.000000	 0.016790 
961.000000	 0.016439 
960.000000	 0.016126 
959.000000	 0.015852 
958.000000	 0.015612 
957.000000	 0.015434 
956.000000	 0.015344 
955.000000	 0.015320 
954.000000	 0.015313 
953.000000	 0.015311 
952.000000	 0.015332 
951.000000	 0.015378 
950.000000	 0.015426 
949.000000	 0.015471 
948.000000	 0.015526 
947.000000	 0.015558 
946.000000	 0.015498 
945.000000	 0.015324 
944.000000	 0.015118 
943.000000	 0.014985 
942.000000	 0.014940 
941.000000	 0.014899 
940.000000	 0.014788 
939.000000	 0.014611 
938.000000	 0.014426 
937.000000	 0.014283 
936.000000	 0.014200 
935.000000	 0.014162 
934.000000	 0.014132 
933.000000	 0.014071 
932.000000	 0.013963 
931.000000	 0.013838 
930.000000	 0.013750 
929.000000	 0.013744 
928.000000	 0.013824 
927.000000	 0.013960 
926.000000	 0.014098 
925.000000	 0.014208 
924.000000	 0.014298 
923.000000	 0.014397 
922.000000	 0.014516 
921.000000	 0.014649 
920.000000	 0.014781 
919.000000	 0.014898 
918.000000	 0.014971 
917.000000	 0.014978 
916.000000	 0.014936 
915.000000	 0.014891 
914.000000	 0.014857 
913.000000	 0.014782 
912.000000	 0.014602 
911.000000	 0.014328 
910.000000	 0.014041 
909.000000	 0.013816 
908.000000	 0.013649 
907.000000	 0.013485 
906.000000	 0.013290 
905.000000	 0.013076 
904.000000	 0.012881 
903.000000	 0.012755 
902.000000	 0.012752 
901.000000	 0.012888 
900.000000	 0.013085 
899.000000	 0.013194 
898.000000	 0.013127 
897.000000	 0.012955 
896.000000	 0.012839 
895.000000	 0.012867 
894.000000	 0.012986 
893.000000	 0.013093 
892.000000	 0.013154 
891.000000	 0.013210 
890.000000	 0.013318 
889.000000	 0.013495 
888.000000	 0.013690 
887.000000	 0.013795 
886.000000	 0.013718 
885.000000	 0.013490 
884.000000	 0.013278 
883.000000	 0.013239 
882.000000	 0.013381 
881.000000	 0.013571 
880.000000	 0.013685 
879.000000	 0.013706 
878.000000	 0.013709 
877.000000	 0.013792 
876.000000	 0.014004 
875.000000	 0.014297 
874.000000	 0.014561 
873.000000	 0.014720 
872.000000	 0.014789 
871.000000	 0.014815 
870.000000	 0.014802 
869.000000	 0.014741 
868.000000	 0.014652 
867.000000	 0.014571 
866.000000	 0.014499 
865.000000	 0.014439 
864.000000	 0.014439 
863.000000	 0.014552 
862.000000	 0.014730 
861.000000	 0.014851 
860.000000	 0.014845 
859.000000	 0.014779 
858.000000	 0.014777 
857.000000	 0.014907 
856.000000	 0.015141 
855.000000	 0.015395 
854.000000	 0.015590 
853.000000	 0.015724 
852.000000	 0.015900 
851.000000	 0.016229 
850.000000	 0.016702 
849.000000	 0.017188 
848.000000	 0.017565 
847.000000	 0.017818 
846.000000	 0.017991 
845.000000	 0.018110 
844.000000	 0.018185 
843.000000	 0.018244 
842.000000	 0.018308 
841.000000	 0.018350 
840.000000	 0.018314 
839.000000	 0.018172 
838.000000	 0.017932 
837.000000	 0.017607 
836.000000	 0.017220 
835.000000	 0.016811 
834.000000	 0.016420 
833.000000	 0.016063 
832.000000	 0.015768 
831.000000	 0.015602 
830.000000	 0.015618 
829.000000	 0.015761 
828.000000	 0.015895 
827.000000	 0.015943 
826.000000	 0.015945 
825.000000	 0.015963 
824.000000	 0.015970 
823.000000	 0.015913 
822.000000	 0.015808 
821.000000	 0.015724 
820.000000	 0.015703 
819.000000	 0.015746 
818.000000	 0.015870 
817.000000	 0.016091 
816.000000	 0.016365 
815.000000	 0.016563 
814.000000	 0.016570 
813.000000	 0.016399 
812.000000	 0.016180 
811.000000	 0.016044 
810.000000	 0.016013 
809.000000	 0.016044 
808.000000	 0.016125 
807.000000	 0.016302 
806.000000	 0.016593 
805.000000	 0.016900 
804.000000	 0.017041 
803.000000	 0.016895 
802.000000	 0.016502 
801.000000	 0.016032 
800.000000	 0.015641 
799.000000	 0.015375 
798.000000	 0.015193 
797.000000	 0.015058 
796.000000	 0.014956 
795.000000	 0.014869 
794.000000	 0.014763 
793.000000	 0.014651 
792.000000	 0.014617 
791.000000	 0.014743 
790.000000	 0.015037 
789.000000	 0.015440 
788.000000	 0.015891 
787.000000	 0.016339 
786.000000	 0.016729 
785.000000	 0.017035 
784.000000	 0.017299 
783.000000	 0.017594 
782.000000	 0.017942 
781.000000	 0.018310 
780.000000	 0.018677 
779.000000	 0.019057 
778.000000	 0.019437 
777.000000	 0.019771 
776.000000	 0.020044 
775.000000	 0.020309 
774.000000	 0.020617 
773.000000	 0.020965 
772.000000	 0.021327 
771.000000	 0.021703 
770.000000	 0.022090 
769.000000	 0.022443 
768.000000	 0.022712 
767.000000	 0.022917 
766.000000	 0.023127 
765.000000	 0.023372 
764.000000	 0.023622 
763.000000	 0.023828 
762.000000	 0.023968 
761.000000	 0.024028 
760.000000	 0.024006 
759.000000	 0.023955 
758.000000	 0.023985 
757.000000	 0.024184 
756.000000	 0.024538 
755.000000	 0.024941 
754.000000	 0.025294 
753.000000	 0.025590 
752.000000	 0.025914 
751.000000	 0.026346 
750.000000	 0.026849 
749.000000	 0.027283 
748.000000	 0.027570 
747.000000	 0.027861 
746.000000	 0.028478 
745.000000	 0.029623 
744.000000	 0.031151 
743.000000	 0.032682 
742.000000	 0.033928 
741.000000	 0.034878 
740.000000	 0.035678 
739.000000	 0.036424 
738.000000	 0.037106 
737.000000	 0.037692 
736.000000	 0.038182 
735.000000	 0.038609 
734.000000	 0.039028 
733.000000	 0.039535 
732.000000	 0.040231 
731.000000	 0.041143 
730.000000	 0.042198 
729.000000	 0.043284 
728.000000	 0.044375 
727.000000	 0.045542 
726.000000	 0.046841 
725.000000	 0.048177 
724.000000	 0.049290 
723.000000	 0.049877 
722.000000	 0.049744 
721.000000	 0.048901 
720.000000	 0.047565 
719.000000	 0.046004 
718.000000	 0.044377 
717.000000	 0.042754 
716.000000	 0.041253 
715.000000	 0.040031 
714.000000	 0.039139 
713.000000	 0.038440 
712.000000	 0.037728 
711.000000	 0.036900 
710.000000	 0.036014 
709.000000	 0.035225 
708.000000	 0.034681 
707.000000	 0.034426 
706.000000	 0.034359 
705.000000	 0.034331 
704.000000	 0.034287 
703.000000	 0.034263 
702.000000	 0.034267 
701.000000	 0.034247 
700.000000	 0.034153 
699.000000	 0.033939 
698.000000	 0.033481 
697.000000	 0.032636 
696.000000	 0.031473 
695.000000	 0.030306 
694.000000	 0.029416 
693.000000	 0.028806 
692.000000	 0.028292 
691.000000	 0.027793 
690.000000	 0.027402 
689.000000	 0.027195 
688.000000	 0.027078 
687.000000	 0.026848 
686.000000	 0.026383 
685.000000	 0.025755 
684.000000	 0.025165 
683.000000	 0.024759 
682.000000	 0.024468 
681.000000	 0.024089 
680.000000	 0.023551 
679.000000	 0.023039 
678.000000	 0.022756 
677.000000	 0.022665 
676.000000	 0.022629 
675.000000	 0.022578 
674.000000	 0.022460 
673.000000	 0.022172 
672.000000	 0.021789 
671.000000	 0.021704 
670.000000	 0.022429 
669.000000	 0.024079 
668.000000	 0.025211 
667.000000	 0.023797 
666.000000	 0.021370 
665.000000	 0.019743 
664.000000	 0.019025 
663.000000	 0.018845 
662.000000	 0.018843 
661.000000	 0.018807 
660.000000	 0.018707 
659.000000	 0.018642 
658.000000	 0.018723 
657.000000	 0.018898 
656.000000	 0.015815 
655.000000	 0.015535 
654.000000	 0.015009 
653.000000	 0.014544 
652.000000	 0.014418 
651.000000	 0.014627 
650.000000	 0.014913 

