PE IR                   SPECTRUM    ASCII       PEDS        1.60        
  -1
NB452~1.ASC
17/05/24
07:56:40.00
17/05/24
07:56:40.00
Admin

650.000000
4









SPECTRUM ONE,CPU32 MAIN 00.02.6000 25-JUNE-2003 12:00:00
MIR TGS
MIR
OPTKBR
68128
0.200000

4.000000
STRONG
RATIO
SPECTRUM
MAGNITUDE
UNIVERSAL ATR
DOUBLE

COMBINED


0


#HDR
-1
-1
#GR
CM-1
A
0.00000011920928955078
0.0
4000.000000
-1.000000
3351
8
0.199856
-0.003003
#DATA
4000.000000	0.003846  
3999.000000	0.003748  
3998.000000	0.003651  
3997.000000	0.003553  
3996.000000	0.003456  
3995.000000	0.003332  
3994.000000	0.003198  
3993.000000	0.003118  
3992.000000	0.003159  
3991.000000	0.003318  
3990.000000	0.003510  
3989.000000	0.003638  
3988.000000	0.003673  
3987.000000	0.003658  
3986.000000	0.003654  
3985.000000	0.003672  
3984.000000	0.003673  
3983.000000	0.003606  
3982.000000	0.003451  
3981.000000	0.003243  
3980.000000	0.003046  
3979.000000	0.002921  
3978.000000	0.002894  
3977.000000	0.002952  
3976.000000	0.003052  
3975.000000	0.003155  
3974.000000	0.003237  
3973.000000	0.003287  
3972.000000	0.003297  
3971.000000	0.003268  
3970.000000	0.003223  
3969.000000	0.003202  
3968.000000	0.003236  
3967.000000	0.003325  
3966.000000	0.003435  
3965.000000	0.003517  
3964.000000	0.003532  
3963.000000	0.003486  
3962.000000	0.003416  
3961.000000	0.003359  
3960.000000	0.003314  
3959.000000	0.003252  
3958.000000	0.003167  
3957.000000	0.003097  
3956.000000	0.003092  
3955.000000	0.003164  
3954.000000	0.003261  
3953.000000	0.003308  
3952.000000	0.003270  
3951.000000	0.003187  
3950.000000	0.003137  
3949.000000	0.003161  
3948.000000	0.003234  
3947.000000	0.003293  
3946.000000	0.003298  
3945.000000	0.003255  
3944.000000	0.003203  
3943.000000	0.003168  
3942.000000	0.003147  
3941.000000	0.003136  
3940.000000	0.003163  
3939.000000	0.003255  
3938.000000	0.003380  
3937.000000	0.003469  
3936.000000	0.003496  
3935.000000	0.003490  
3934.000000	0.003483  
3933.000000	0.003464  
3932.000000	0.003400  
3931.000000	0.003289  
3930.000000	0.003150  
3929.000000	0.002998  
3928.000000	0.002846  
3927.000000	0.002727  
3926.000000	0.002689  
3925.000000	0.002733  
3924.000000	0.002771  
3923.000000	0.002734  
3922.000000	0.002677  
3921.000000	0.002719  
3920.000000	0.002891  
3919.000000	0.003116  
3918.000000	0.003304  
3917.000000	0.003415  
3916.000000	0.003455  
3915.000000	0.003461  
3914.000000	0.003489  
3913.000000	0.003571  
3912.000000	0.003649  
3911.000000	0.003610  
3910.000000	0.003399  
3909.000000	0.003063  
3908.000000	0.002721  
3907.000000	0.002507  
3906.000000	0.002550  
3905.000000	0.002871  
3904.000000	0.003289  
3903.000000	0.003533  
3902.000000	0.003525  
3901.000000	0.003445  
3900.000000	0.003470  
3899.000000	0.003556  
3898.000000	0.003558  
3897.000000	0.003457  
3896.000000	0.003362  
3895.000000	0.003314  
3894.000000	0.003251  
3893.000000	0.003143  
3892.000000	0.003034  
3891.000000	0.002926  
3890.000000	0.002783  
3889.000000	0.002662  
3888.000000	0.002732  
3887.000000	0.003013  
3886.000000	0.003288  
3885.000000	0.003312  
3884.000000	0.003044  
3883.000000	0.002732  
3882.000000	0.002683  
3881.000000	0.002869  
3880.000000	0.002962  
3879.000000	0.002740  
3878.000000	0.002328  
3877.000000	0.002034  
3876.000000	0.001987  
3875.000000	0.002036  
3874.000000	0.001975  
3873.000000	0.001730  
3872.000000	0.001461  
3871.000000	0.001473  
3870.000000	0.001829  
3869.000000	0.002173  
3868.000000	0.002201  
3867.000000	0.002092  
3866.000000	0.002199  
3865.000000	0.002503  
3864.000000	0.002726  
3863.000000	0.002704  
3862.000000	0.002526  
3861.000000	0.002362  
3860.000000	0.002248  
3859.000000	0.002103  
3858.000000	0.001887  
3857.000000	0.001585  
3856.000000	0.001216  
3855.000000	0.000942  
3854.000000	0.001096  
3853.000000	0.001643  
3852.000000	0.002018  
3851.000000	0.002115  
3850.000000	0.002480  
3849.000000	0.003134  
3848.000000	0.003467  
3847.000000	0.003265  
3846.000000	0.002808  
3845.000000	0.002404  
3844.000000	0.002165  
3843.000000	0.002052  
3842.000000	0.001982  
3841.000000	0.001908  
3840.000000	0.001832  
3839.000000	0.001723  
3838.000000	0.001525  
3837.000000	0.001253  
3836.000000	0.001054  
3835.000000	0.001090  
3834.000000	0.001368  
3833.000000	0.001716  
3832.000000	0.001945  
3831.000000	0.001972  
3830.000000	0.001850  
3829.000000	0.001725  
3828.000000	0.001700  
3827.000000	0.001705  
3826.000000	0.001559  
3825.000000	0.001170  
3824.000000	0.000700  
3823.000000	0.000490  
3822.000000	0.000739  
3821.000000	0.001175  
3820.000000	0.001256  
3819.000000	0.000917  
3818.000000	0.000753  
3817.000000	0.001167  
3816.000000	0.001809  
3815.000000	0.002161  
3814.000000	0.002159  
3813.000000	0.002182  
3812.000000	0.002461  
3811.000000	0.002702  
3810.000000	0.002576  
3809.000000	0.002211  
3808.000000	0.001890  
3807.000000	0.001746  
3806.000000	0.001855  
3805.000000	0.001803  
3804.000000	0.001722  
3803.000000	0.001681  
3802.000000	0.001794  
3801.000000	0.001988  
3800.000000	0.002123  
3799.000000	0.002180  
3798.000000	0.002235  
3797.000000	0.002403  
3796.000000	0.002584  
3795.000000	0.002801  
3794.000000	0.002738  
3793.000000	0.001964  
3792.000000	0.002328  
3791.000000	0.002575  
3790.000000	0.002687  
3789.000000	0.002598  
3788.000000	0.002500  
3787.000000	0.002487  
3786.000000	0.002602  
3785.000000	0.002744  
3784.000000	0.002754  
3783.000000	0.002550  
3782.000000	0.002218  
3781.000000	0.001930  
3780.000000	0.001798  
3779.000000	0.001781  
3778.000000	0.001762  
3777.000000	0.001737  
3776.000000	0.001818  
3775.000000	0.002012  
3774.000000	0.002169  
3773.000000	0.002187  
3772.000000	0.002125  
3771.000000	0.002069  
3770.000000	0.002002  
3769.000000	0.001871  
3768.000000	0.001754  
3767.000000	0.001827  
3766.000000	0.002100  
3765.000000	0.002323  
3764.000000	0.002293  
3763.000000	0.002083  
3762.000000	0.001912  
3761.000000	0.001855  
3760.000000	0.001798  
3759.000000	0.001637  
3758.000000	0.001419  
3757.000000	0.001264  
3756.000000	0.001201  
3755.000000	0.001128  
3754.000000	0.000948  
3753.000000	0.000705  
3752.000000	0.000638  
3751.000000	0.000924  
3750.000000	0.001321  
3749.000000	0.001519  
3748.000000	0.001562  
3747.000000	0.001638  
3746.000000	0.001786  
3745.000000	0.001942  
3744.000000	0.001993  
3743.000000	0.001794  
3742.000000	0.001499  
3741.000000	0.001495  
3740.000000	0.001625  
3739.000000	0.001408  
3738.000000	0.000969  
3737.000000	0.000805  
3736.000000	0.001031  
3735.000000	0.001214  
3734.000000	0.001036  
3733.000000	0.000742  
3732.000000	0.000696  
3731.000000	0.000910  
3730.000000	0.001213  
3729.000000	0.001532  
3728.000000	0.001808  
3727.000000	0.001919  
3726.000000	0.001830  
3725.000000	0.001679  
3724.000000	0.001655  
3723.000000	0.001807  
3722.000000	0.001978  
3721.000000	0.002001  
3720.000000	0.001902  
3719.000000	0.001818  
3718.000000	0.001806  
3717.000000	0.001789  
3716.000000	0.001667  
3715.000000	0.001410  
3714.000000	0.001046  
3713.000000	0.000655  
3712.000000	0.000425  
3711.000000	0.000487  
3710.000000	0.000704  
3709.000000	0.000927  
3708.000000	0.001184  
3707.000000	0.001479  
3706.000000	0.001729  
3705.000000	0.001891  
3704.000000	0.002011  
3703.000000	0.002121  
3702.000000	0.002167  
3701.000000	0.002061  
3700.000000	0.001823  
3699.000000	0.001613  
3698.000000	0.001577  
3697.000000	0.001671  
3696.000000	0.001717  
3695.000000	0.001612  
3694.000000	0.001417  
3693.000000	0.001253  
3692.000000	0.001153  
3691.000000	0.001095  
3690.000000	0.001051  
3689.000000	0.000975  
3688.000000	0.000881  
3687.000000	0.000921  
3686.000000	0.001276  
3685.000000	0.001869  
3684.000000	0.002323  
3683.000000	0.002327  
3682.000000	0.001920  
3681.000000	0.001383  
3680.000000	0.000939  
3679.000000	0.000598  
3678.000000	0.000342  
3677.000000	0.000345  
3676.000000	0.000727  
3675.000000	0.001113  
3674.000000	0.001045  
3673.000000	0.000803  
3672.000000	0.001071  
3671.000000	0.001887  
3670.000000	0.002635  
3669.000000	0.002797  
3668.000000	0.002427  
3667.000000	0.002062  
3666.000000	0.002055  
3665.000000	0.002232  
3664.000000	0.002354  
3663.000000	0.002414  
3662.000000	0.002460  
3661.000000	0.002459  
3660.000000	0.002332  
3659.000000	0.002067  
3658.000000	0.001782  
3657.000000	0.001670  
3656.000000	0.001775  
3655.000000	0.001924  
3654.000000	0.001965  
3653.000000	0.001905  
3652.000000	0.001735  
3651.000000	0.001554  
3650.000000	0.001772  
3649.000000	0.002367  
3648.000000	0.002680  
3647.000000	0.002551  
3646.000000	0.002385  
3645.000000	0.002386  
3644.000000	0.002484  
3643.000000	0.002570  
3642.000000	0.002599  
3641.000000	0.002559  
3640.000000	0.002452  
3639.000000	0.002297  
3638.000000	0.002122  
3637.000000	0.001967  
3636.000000	0.001905  
3635.000000	0.001988  
3634.000000	0.002138  
3633.000000	0.002191  
3632.000000	0.002110  
3631.000000	0.002090  
3630.000000	0.002388  
3629.000000	0.002927  
3628.000000	0.003214  
3627.000000	0.003038  
3626.000000	0.002845  
3625.000000	0.002991  
3624.000000	0.003216  
3623.000000	0.003224  
3622.000000	0.003098  
3621.000000	0.003031  
3620.000000	0.003052  
3619.000000	0.003003  
3618.000000	0.002762  
3617.000000	0.002424  
3616.000000	0.002214  
3615.000000	0.002219  
3614.000000	0.002323  
3613.000000	0.002360  
3612.000000	0.002271  
3611.000000	0.002166  
3610.000000	0.002247  
3609.000000	0.002617  
3608.000000	0.003149  
3607.000000	0.003580  
3606.000000	0.003770  
3605.000000	0.003787  
3604.000000	0.003731  
3603.000000	0.003632  
3602.000000	0.003510  
3601.000000	0.003404  
3600.000000	0.003324  
3599.000000	0.003261  
3598.000000	0.003231  
3597.000000	0.003269  
3596.000000	0.003375  
3595.000000	0.003518  
3594.000000	0.003668  
3593.000000	0.003806  
3592.000000	0.003929  
3591.000000	0.004039  
3590.000000	0.004123  
3589.000000	0.004212  
3588.000000	0.004396  
3587.000000	0.004666  
3586.000000	0.004875  
3585.000000	0.004959  
3584.000000	0.004963  
3583.000000	0.004877  
3582.000000	0.004675  
3581.000000	0.004453  
3580.000000	0.004347  
3579.000000	0.004386  
3578.000000	0.004482  
3577.000000	0.004550  
3576.000000	0.004582  
3575.000000	0.004608  
3574.000000	0.004625  
3573.000000	0.004591  
3572.000000	0.004485  
3571.000000	0.004332  
3570.000000	0.004201  
3569.000000	0.004183  
3568.000000	0.004358  
3567.000000	0.004654  
3566.000000	0.004856  
3565.000000	0.004872  
3564.000000	0.004829  
3563.000000	0.004837  
3562.000000	0.004873  
3561.000000	0.004887  
3560.000000	0.004886  
3559.000000	0.004902  
3558.000000	0.004949  
3557.000000	0.005023  
3556.000000	0.005122  
3555.000000	0.005258  
3554.000000	0.005419  
3553.000000	0.005540  
3552.000000	0.005547  
3551.000000	0.005455  
3550.000000	0.005378  
3549.000000	0.005431  
3548.000000	0.005612  
3547.000000	0.005801  
3546.000000	0.005888  
3545.000000	0.005866  
3544.000000	0.005808  
3543.000000	0.005775  
3542.000000	0.005782  
3541.000000	0.005811  
3540.000000	0.005841  
3539.000000	0.005858  
3538.000000	0.005869  
3537.000000	0.005901  
3536.000000	0.005968  
3535.000000	0.006047  
3534.000000	0.006086  
3533.000000	0.006040  
3532.000000	0.005895  
3531.000000	0.005683  
3530.000000	0.005481  
3529.000000	0.005378  
3528.000000	0.005416  
3527.000000	0.005562  
3526.000000	0.005737  
3525.000000	0.005872  
3524.000000	0.005947  
3523.000000	0.005994  
3522.000000	0.006069  
3521.000000	0.006197  
3520.000000	0.006350  
3519.000000	0.006459  
3518.000000	0.006475  
3517.000000	0.006422  
3516.000000	0.006377  
3515.000000	0.006401  
3514.000000	0.006489  
3513.000000	0.006600  
3512.000000	0.006713  
3511.000000	0.006840  
3510.000000	0.006973  
3509.000000	0.007057  
3508.000000	0.007039  
3507.000000	0.006946  
3506.000000	0.006870  
3505.000000	0.006892  
3504.000000	0.007001  
3503.000000	0.007097  
3502.000000	0.007090  
3501.000000	0.006999  
3500.000000	0.006914  
3499.000000	0.006919  
3498.000000	0.007047  
3497.000000	0.007271  
3496.000000	0.007496  
3495.000000	0.007594  
3494.000000	0.007524  
3493.000000	0.007386  
3492.000000	0.007342  
3491.000000	0.007477  
3490.000000	0.007725  
3489.000000	0.007936  
3488.000000	0.008015  
3487.000000	0.007988  
3486.000000	0.007949  
3485.000000	0.007962  
3484.000000	0.008019  
3483.000000	0.008046  
3482.000000	0.007973  
3481.000000	0.007801  
3480.000000	0.007626  
3479.000000	0.007573  
3478.000000	0.007708  
3477.000000	0.007991  
3476.000000	0.008312  
3475.000000	0.008557  
3474.000000	0.008671  
3473.000000	0.008666  
3472.000000	0.008596  
3471.000000	0.008505  
3470.000000	0.008405  
3469.000000	0.008295  
3468.000000	0.008193  
3467.000000	0.008143  
3466.000000	0.008173  
3465.000000	0.008269  
3464.000000	0.008377  
3463.000000	0.008445  
3462.000000	0.008450  
3461.000000	0.008419  
3460.000000	0.008410  
3459.000000	0.008462  
3458.000000	0.008559  
3457.000000	0.008646  
3456.000000	0.008689  
3455.000000	0.008709  
3454.000000	0.008744  
3453.000000	0.008802  
3452.000000	0.008863  
3451.000000	0.008914  
3450.000000	0.008971  
3449.000000	0.009052  
3448.000000	0.009142  
3447.000000	0.009204  
3446.000000	0.009220  
3445.000000	0.009216  
3444.000000	0.009226  
3443.000000	0.009252  
3442.000000	0.009272  
3441.000000	0.009279  
3440.000000	0.009305  
3439.000000	0.009375  
3438.000000	0.009469  
3437.000000	0.009523  
3436.000000	0.009488  
3435.000000	0.009379  
3434.000000	0.009270  
3433.000000	0.009252  
3432.000000	0.009366  
3431.000000	0.009571  
3430.000000	0.009783  
3429.000000	0.009930  
3428.000000	0.009997  
3427.000000	0.010016  
3426.000000	0.010025  
3425.000000	0.010040  
3424.000000	0.010047  
3423.000000	0.010025  
3422.000000	0.009967  
3421.000000	0.009900  
3420.000000	0.009871  
3419.000000	0.009903  
3418.000000	0.009969  
3417.000000	0.010016  
3416.000000	0.010016  
3415.000000	0.010001  
3414.000000	0.010023  
3413.000000	0.010096  
3412.000000	0.010170  
3411.000000	0.010185  
3410.000000	0.010128  
3409.000000	0.010043  
3408.000000	0.010008  
3407.000000	0.010081  
3406.000000	0.010269  
3405.000000	0.010508  
3404.000000	0.010695  
3403.000000	0.010750  
3402.000000	0.010672  
3401.000000	0.010531  
3400.000000	0.010418  
3399.000000	0.010382  
3398.000000	0.010398  
3397.000000	0.010403  
3396.000000	0.010365  
3395.000000	0.010324  
3394.000000	0.010360  
3393.000000	0.010505  
3392.000000	0.010703  
3391.000000	0.010857  
3390.000000	0.010912  
3389.000000	0.010879  
3388.000000	0.010809  
3387.000000	0.010755  
3386.000000	0.010754  
3385.000000	0.010808  
3384.000000	0.010885  
3383.000000	0.010943  
3382.000000	0.010963  
3381.000000	0.010953  
3380.000000	0.010938  
3379.000000	0.010936  
3378.000000	0.010960  
3377.000000	0.011009  
3376.000000	0.011063  
3375.000000	0.011074  
3374.000000	0.010993  
3373.000000	0.010830  
3372.000000	0.010667  
3371.000000	0.010604  
3370.000000	0.010668  
3369.000000	0.010791  
3368.000000	0.010875  
3367.000000	0.010870  
3366.000000	0.010787  
3365.000000	0.010671  
3364.000000	0.010570  
3363.000000	0.010532  
3362.000000	0.010591  
3361.000000	0.010738  
3360.000000	0.010930  
3359.000000	0.011114  
3358.000000	0.011238  
3357.000000	0.011260  
3356.000000	0.011174  
3355.000000	0.011033  
3354.000000	0.010925  
3353.000000	0.010910  
3352.000000	0.010972  
3351.000000	0.011047  
3350.000000	0.011079  
3349.000000	0.011049  
3348.000000	0.010979  
3347.000000	0.010906  
3346.000000	0.010867  
3345.000000	0.010883  
3344.000000	0.010954  
3343.000000	0.011060  
3342.000000	0.011161  
3341.000000	0.011216  
3340.000000	0.011208  
3339.000000	0.011154  
3338.000000	0.011086  
3337.000000	0.011015  
3336.000000	0.010939  
3335.000000	0.010874  
3334.000000	0.010874  
3333.000000	0.010986  
3332.000000	0.011191  
3331.000000	0.011388  
3330.000000	0.011457  
3329.000000	0.011342  
3328.000000	0.011106  
3327.000000	0.010879  
3326.000000	0.010766  
3325.000000	0.010794  
3324.000000	0.010928  
3323.000000	0.011112  
3322.000000	0.011289  
3321.000000	0.011410  
3320.000000	0.011467  
3319.000000	0.011487  
3318.000000	0.011494  
3317.000000	0.011464  
3316.000000	0.011372  
3315.000000	0.011245  
3314.000000	0.011147  
3313.000000	0.011107  
3312.000000	0.011100  
3311.000000	0.011100  
3310.000000	0.011116  
3309.000000	0.011155  
3308.000000	0.011181  
3307.000000	0.011157  
3306.000000	0.011088  
3305.000000	0.011020  
3304.000000	0.010987  
3303.000000	0.010993  
3302.000000	0.011019  
3301.000000	0.011042  
3300.000000	0.011044  
3299.000000	0.011021  
3298.000000	0.010972  
3297.000000	0.010895  
3296.000000	0.010805  
3295.000000	0.010747  
3294.000000	0.010771  
3293.000000	0.010884  
3292.000000	0.011034  
3291.000000	0.011148  
3290.000000	0.011176  
3289.000000	0.011107  
3288.000000	0.010977  
3287.000000	0.010870  
3286.000000	0.010867  
3285.000000	0.010945  
3284.000000	0.010991  
3283.000000	0.010917  
3282.000000	0.010767  
3281.000000	0.010655  
3280.000000	0.010624  
3279.000000	0.010615  
3278.000000	0.010560  
3277.000000	0.010446  
3276.000000	0.010299  
3275.000000	0.010151  
3274.000000	0.010042  
3273.000000	0.010013  
3272.000000	0.010066  
3271.000000	0.010147  
3270.000000	0.010195  
3269.000000	0.010196  
3268.000000	0.010182  
3267.000000	0.010182  
3266.000000	0.010192  
3265.000000	0.010180  
3264.000000	0.010119  
3263.000000	0.010013  
3262.000000	0.009901  
3261.000000	0.009826  
3260.000000	0.009795  
3259.000000	0.009782  
3258.000000	0.009765  
3257.000000	0.009765  
3256.000000	0.009815  
3255.000000	0.009913  
3254.000000	0.010014  
3253.000000	0.010079  
3252.000000	0.010110  
3251.000000	0.010135  
3250.000000	0.010158  
3249.000000	0.010139  
3248.000000	0.010041  
3247.000000	0.009875  
3246.000000	0.009706  
3245.000000	0.009593  
3244.000000	0.009551  
3243.000000	0.009550  
3242.000000	0.009551  
3241.000000	0.009529  
3240.000000	0.009464  
3239.000000	0.009360  
3238.000000	0.009250  
3237.000000	0.009194  
3236.000000	0.009237  
3235.000000	0.009359  
3234.000000	0.009486  
3233.000000	0.009536  
3232.000000	0.009480  
3231.000000	0.009350  
3230.000000	0.009216  
3229.000000	0.009147  
3228.000000	0.009187  
3227.000000	0.009332  
3226.000000	0.009522  
3225.000000	0.009671  
3224.000000	0.009730  
3223.000000	0.009708  
3222.000000	0.009631  
3221.000000	0.009502  
3220.000000	0.009320  
3219.000000	0.009129  
3218.000000	0.008992  
3217.000000	0.008918  
3216.000000	0.008859  
3215.000000	0.008782  
3214.000000	0.008713  
3213.000000	0.008699  
3212.000000	0.008741  
3211.000000	0.008794  
3210.000000	0.008818  
3209.000000	0.008790  
3208.000000	0.008711  
3207.000000	0.008605  
3206.000000	0.008529  
3205.000000	0.008528  
3204.000000	0.008592  
3203.000000	0.008663  
3202.000000	0.008687  
3201.000000	0.008644  
3200.000000	0.008548  
3199.000000	0.008437  
3198.000000	0.008365  
3197.000000	0.008355  
3196.000000	0.008347  
3195.000000	0.008259  
3194.000000	0.008087  
3193.000000	0.007931  
3192.000000	0.007906  
3191.000000	0.008023  
3190.000000	0.008186  
3189.000000	0.008282  
3188.000000	0.008256  
3187.000000	0.008132  
3186.000000	0.007994  
3185.000000	0.007934  
3184.000000	0.007998  
3183.000000	0.008142  
3182.000000	0.008271  
3181.000000	0.008316  
3180.000000	0.008273  
3179.000000	0.008180  
3178.000000	0.008065  
3177.000000	0.007929  
3176.000000	0.007786  
3175.000000	0.007676  
3174.000000	0.007651  
3173.000000	0.007712  
3172.000000	0.007789  
3171.000000	0.007790  
3170.000000	0.007690  
3169.000000	0.007555  
3168.000000	0.007482  
3167.000000	0.007504  
3166.000000	0.007577  
3165.000000	0.007631  
3164.000000	0.007621  
3163.000000	0.007537  
3162.000000	0.007397  
3161.000000	0.007243  
3160.000000	0.007129  
3159.000000	0.007075  
3158.000000	0.007047  
3157.000000	0.006998  
3156.000000	0.006933  
3155.000000	0.006914  
3154.000000	0.006989  
3153.000000	0.007127  
3152.000000	0.007242  
3151.000000	0.007261  
3150.000000	0.007188  
3149.000000	0.007081  
3148.000000	0.007010  
3147.000000	0.007010  
3146.000000	0.007053  
3145.000000	0.007071  
3144.000000	0.007001  
3143.000000	0.006851  
3142.000000	0.006702  
3141.000000	0.006634  
3140.000000	0.006646  
3139.000000	0.006667  
3138.000000	0.006651  
3137.000000	0.006628  
3136.000000	0.006664  
3135.000000	0.006755  
3134.000000	0.006814  
3133.000000	0.006755  
3132.000000	0.006599  
3131.000000	0.006461  
3130.000000	0.006440  
3129.000000	0.006523  
3128.000000	0.006610  
3127.000000	0.006612  
3126.000000	0.006528  
3125.000000	0.006417  
3124.000000	0.006333  
3123.000000	0.006290  
3122.000000	0.006277  
3121.000000	0.006287  
3120.000000	0.006323  
3119.000000	0.006390  
3118.000000	0.006475  
3117.000000	0.006549  
3116.000000	0.006578  
3115.000000	0.006556  
3114.000000	0.006510  
3113.000000	0.006479  
3112.000000	0.006472  
3111.000000	0.006471  
3110.000000	0.006457  
3109.000000	0.006425  
3108.000000	0.006385  
3107.000000	0.006351  
3106.000000	0.006342  
3105.000000	0.006367  
3104.000000	0.006394  
3103.000000	0.006368  
3102.000000	0.006269  
3101.000000	0.006145  
3100.000000	0.006069  
3099.000000	0.006066  
3098.000000	0.006101  
3097.000000	0.006127  
3096.000000	0.006123  
3095.000000	0.006105  
3094.000000	0.006099  
3093.000000	0.006123  
3092.000000	0.006168  
3091.000000	0.006204  
3090.000000	0.006204  
3089.000000	0.006169  
3088.000000	0.006124  
3087.000000	0.006093  
3086.000000	0.006083  
3085.000000	0.006094  
3084.000000	0.006130  
3083.000000	0.006189  
3082.000000	0.006257  
3081.000000	0.006309  
3080.000000	0.006320  
3079.000000	0.006279  
3078.000000	0.006211  
3077.000000	0.006175  
3076.000000	0.006229  
3075.000000	0.006369  
3074.000000	0.006521  
3073.000000	0.006598  
3072.000000	0.006571  
3071.000000	0.006482  
3070.000000	0.006388  
3069.000000	0.006322  
3068.000000	0.006292  
3067.000000	0.006289  
3066.000000	0.006292  
3065.000000	0.006279  
3064.000000	0.006253  
3063.000000	0.006236  
3062.000000	0.006240  
3061.000000	0.006243  
3060.000000	0.006222  
3059.000000	0.006189  
3058.000000	0.006170  
3057.000000	0.006164  
3056.000000	0.006142  
3055.000000	0.006105  
3054.000000	0.006103  
3053.000000	0.006191  
3052.000000	0.006367  
3051.000000	0.006563  
3050.000000	0.006695  
3049.000000	0.006717  
3048.000000	0.006651  
3047.000000	0.006563  
3046.000000	0.006505  
3045.000000	0.006484  
3044.000000	0.006468  
3043.000000	0.006448  
3042.000000	0.006444  
3041.000000	0.006474  
3040.000000	0.006525  
3039.000000	0.006576  
3038.000000	0.006636  
3037.000000	0.006731  
3036.000000	0.006863  
3035.000000	0.006996  
3034.000000	0.007094  
3033.000000	0.007172  
3032.000000	0.007271  
3031.000000	0.007411  
3030.000000	0.007567  
3029.000000	0.007705  
3028.000000	0.007834  
3027.000000	0.007996  
3026.000000	0.008218  
3025.000000	0.008472  
3024.000000	0.008702  
3023.000000	0.008894  
3022.000000	0.009111  
3021.000000	0.009440  
3020.000000	0.009913  
3019.000000	0.010485  
3018.000000	0.011080  
3017.000000	0.011649  
3016.000000	0.012174  
3015.000000	0.012647  
3014.000000	0.013072  
3013.000000	0.013472  
3012.000000	0.013852  
3011.000000	0.014166  
3010.000000	0.014329  
3009.000000	0.014303  
3008.000000	0.014140  
3007.000000	0.013926  
3006.000000	0.013702  
3005.000000	0.013449  
3004.000000	0.013164  
3003.000000	0.012889  
3002.000000	0.012673  
3001.000000	0.012519  
3000.000000	0.012400  
2999.000000	0.012307  
2998.000000	0.012258  
2997.000000	0.012264  
2996.000000	0.012322  
2995.000000	0.012418  
2994.000000	0.012532  
2993.000000	0.012640  
2992.000000	0.012741  
2991.000000	0.012888  
2990.000000	0.013173  
2989.000000	0.013668  
2988.000000	0.014368  
2987.000000	0.015199  
2986.000000	0.016082  
2985.000000	0.016988  
2984.000000	0.017943  
2983.000000	0.018971  
2982.000000	0.020062  
2981.000000	0.021210  
2980.000000	0.022483  
2979.000000	0.024018  
2978.000000	0.025910  
2977.000000	0.028112  
2976.000000	0.030508  
2975.000000	0.033066  
2974.000000	0.035895  
2973.000000	0.039130  
2972.000000	0.042799  
2971.000000	0.046831  
2970.000000	0.051159  
2969.000000	0.055778  
2968.000000	0.060709  
2967.000000	0.065917  
2966.000000	0.071279  
2965.000000	0.076624  
2964.000000	0.081796  
2963.000000	0.086685  
2962.000000	0.091237  
2961.000000	0.095428  
2960.000000	0.099241  
2959.000000	0.102617  
2958.000000	0.105433  
2957.000000	0.107524  
2956.000000	0.108762  
2955.000000	0.109111  
2954.000000	0.108635  
2953.000000	0.107467  
2952.000000	0.105779  
2951.000000	0.103757  
2950.000000	0.101593  
2949.000000	0.099498  
2948.000000	0.097698  
2947.000000	0.096392  
2946.000000	0.095712  
2945.000000	0.095731  
2944.000000	0.096516  
2943.000000	0.098132  
2942.000000	0.100599  
2941.000000	0.103866  
2940.000000	0.107851  
2939.000000	0.112483  
2938.000000	0.117684  
2937.000000	0.123347  
2936.000000	0.129362  
2935.000000	0.135659  
2934.000000	0.142182  
2933.000000	0.148860  
2932.000000	0.155598  
2931.000000	0.162312  
2930.000000	0.168922  
2929.000000	0.175333  
2928.000000	0.181438  
2927.000000	0.187108  
2926.000000	0.192116  
2925.000000	0.196116  
2924.000000	0.198759  
2923.000000	0.199856  
2922.000000	0.199448  
2921.000000	0.197732  
2920.000000	0.194938  
2919.000000	0.191252  
2918.000000	0.186808  
2917.000000	0.181762  
2916.000000	0.176333  
2915.000000	0.170768  
2914.000000	0.165278  
2913.000000	0.159992  
2912.000000	0.154964  
2911.000000	0.150182  
2910.000000	0.145597  
2909.000000	0.141164  
2908.000000	0.136883  
2907.000000	0.132796  
2906.000000	0.128930  
2905.000000	0.125249  
2904.000000	0.121671  
2903.000000	0.118150  
2902.000000	0.114724  
2901.000000	0.111468  
2900.000000	0.108389  
2899.000000	0.105390  
2898.000000	0.102361  
2897.000000	0.099275  
2896.000000	0.096192  
2895.000000	0.093179  
2894.000000	0.090254  
2893.000000	0.087415  
2892.000000	0.084673  
2891.000000	0.082041  
2890.000000	0.079517  
2889.000000	0.077105  
2888.000000	0.074851  
2887.000000	0.072839  
2886.000000	0.071160  
2885.000000	0.069871  
2884.000000	0.068996  
2883.000000	0.068558  
2882.000000	0.068618  
2881.000000	0.069269  
2880.000000	0.070590  
2879.000000	0.072577  
2878.000000	0.075129  
2877.000000	0.078076  
2876.000000	0.081206  
2875.000000	0.084257  
2874.000000	0.086930  
2873.000000	0.088968  
2872.000000	0.090273  
2871.000000	0.090957  
2870.000000	0.091276  
2869.000000	0.091498  
2868.000000	0.091815  
2867.000000	0.092349  
2866.000000	0.093221  
2865.000000	0.094601  
2864.000000	0.096669  
2863.000000	0.099515  
2862.000000	0.103070  
2861.000000	0.107137  
2860.000000	0.111481  
2859.000000	0.115876  
2858.000000	0.120106  
2857.000000	0.123922  
2856.000000	0.127010  
2855.000000	0.128983  
2854.000000	0.129470  
2853.000000	0.128262  
2852.000000	0.125390  
2851.000000	0.121065  
2850.000000	0.115569  
2849.000000	0.109229  
2848.000000	0.102433  
2847.000000	0.095573  
2846.000000	0.088922  
2845.000000	0.082585  
2844.000000	0.076541  
2843.000000	0.070750  
2842.000000	0.065214  
2841.000000	0.059993  
2840.000000	0.055165  
2839.000000	0.050780  
2838.000000	0.046839  
2837.000000	0.043316  
2836.000000	0.040200  
2835.000000	0.037481  
2834.000000	0.035115  
2833.000000	0.033013  
2832.000000	0.031084  
2831.000000	0.029293  
2830.000000	0.027657  
2829.000000	0.026200  
2828.000000	0.024918  
2827.000000	0.023773  
2826.000000	0.022721  
2825.000000	0.021736  
2824.000000	0.020811  
2823.000000	0.019946  
2822.000000	0.019143  
2821.000000	0.018406  
2820.000000	0.017742  
2819.000000	0.017158  
2818.000000	0.016643  
2817.000000	0.016176  
2816.000000	0.015740  
2815.000000	0.015328  
2814.000000	0.014934  
2813.000000	0.014548  
2812.000000	0.014161  
2811.000000	0.013777  
2810.000000	0.013399  
2809.000000	0.013030  
2808.000000	0.012676  
2807.000000	0.012359  
2806.000000	0.012090  
2805.000000	0.011858  
2804.000000	0.011647  
2803.000000	0.011461  
2802.000000	0.011298  
2801.000000	0.011131  
2800.000000	0.010934  
2799.000000	0.010730  
2798.000000	0.010573  
2797.000000	0.010476  
2796.000000	0.010389  
2795.000000	0.010265  
2794.000000	0.010116  
2793.000000	0.009985  
2792.000000	0.009888  
2791.000000	0.009799  
2790.000000	0.009697  
2789.000000	0.009582  
2788.000000	0.009459  
2787.000000	0.009326  
2786.000000	0.009184  
2785.000000	0.009043  
2784.000000	0.008906  
2783.000000	0.008770  
2782.000000	0.008632  
2781.000000	0.008501  
2780.000000	0.008392  
2779.000000	0.008304  
2778.000000	0.008223  
2777.000000	0.008120  
2776.000000	0.007975  
2775.000000	0.007796  
2774.000000	0.007618  
2773.000000	0.007479  
2772.000000	0.007385  
2771.000000	0.007311  
2770.000000	0.007221  
2769.000000	0.007102  
2768.000000	0.006969  
2767.000000	0.006851  
2766.000000	0.006764  
2765.000000	0.006707  
2764.000000	0.006667  
2763.000000	0.006633  
2762.000000	0.006581  
2761.000000	0.006482  
2760.000000	0.006327  
2759.000000	0.006154  
2758.000000	0.006018  
2757.000000	0.005942  
2756.000000	0.005895  
2755.000000	0.005841  
2754.000000	0.005775  
2753.000000	0.005720  
2752.000000	0.005698  
2751.000000	0.005715  
2750.000000	0.005762  
2749.000000	0.005808  
2748.000000	0.005817  
2747.000000	0.005777  
2746.000000	0.005709  
2745.000000	0.005650  
2744.000000	0.005621  
2743.000000	0.005618  
2742.000000	0.005632  
2741.000000	0.005663  
2740.000000	0.005718  
2739.000000	0.005803  
2738.000000	0.005899  
2737.000000	0.005975  
2736.000000	0.006014  
2735.000000	0.006033  
2734.000000	0.006062  
2733.000000	0.006093  
2732.000000	0.006089  
2731.000000	0.006032  
2730.000000	0.005951  
2729.000000	0.005878  
2728.000000	0.005817  
2727.000000	0.005757  
2726.000000	0.005691  
2725.000000	0.005629  
2724.000000	0.005577  
2723.000000	0.005547  
2722.000000	0.005557  
2721.000000	0.005608  
2720.000000	0.005672  
2719.000000	0.005718  
2718.000000	0.005737  
2717.000000	0.005731  
2716.000000	0.005689  
2715.000000	0.005610  
2714.000000	0.005513  
2713.000000	0.005425  
2712.000000	0.005336  
2711.000000	0.005217  
2710.000000	0.005072  
2709.000000	0.004938  
2708.000000	0.004848  
2707.000000	0.004791  
2706.000000	0.004735  
2705.000000	0.004656  
2704.000000	0.004566  
2703.000000	0.004501  
2702.000000	0.004497  
2701.000000	0.004562  
2700.000000	0.004661  
2699.000000	0.004748  
2698.000000	0.004806  
2697.000000	0.004842  
2696.000000	0.004874  
2695.000000	0.004904  
2694.000000	0.004934  
2693.000000	0.004954  
2692.000000	0.004941  
2691.000000	0.004865  
2690.000000	0.004728  
2689.000000	0.004581  
2688.000000	0.004492  
2687.000000	0.004494  
2686.000000	0.004561  
2685.000000	0.004636  
2684.000000	0.004683  
2683.000000	0.004709  
2682.000000	0.004733  
2681.000000	0.004756  
2680.000000	0.004760  
2679.000000	0.004742  
2678.000000	0.004721  
2677.000000	0.004714  
2676.000000	0.004715  
2675.000000	0.004713  
2674.000000	0.004720  
2673.000000	0.004756  
2672.000000	0.004822  
2671.000000	0.004882  
2670.000000	0.004894  
2669.000000	0.004844  
2668.000000	0.004754  
2667.000000	0.004661  
2666.000000	0.004597  
2665.000000	0.004571  
2664.000000	0.004574  
2663.000000	0.004592  
2662.000000	0.004599  
2661.000000	0.004561  
2660.000000	0.004465  
2659.000000	0.004342  
2658.000000	0.004253  
2657.000000	0.004235  
2656.000000	0.004269  
2655.000000	0.004298  
2654.000000	0.004279  
2653.000000	0.004202  
2652.000000	0.004094  
2651.000000	0.004005  
2650.000000	0.003967  
2649.000000	0.003957  
2648.000000	0.003918  
2647.000000	0.003826  
2646.000000	0.003724  
2645.000000	0.003675  
2644.000000	0.003680  
2643.000000	0.003698  
2642.000000	0.003699  
2641.000000	0.003689  
2640.000000	0.003672  
2639.000000	0.003642  
2638.000000	0.003599  
2637.000000	0.003556  
2636.000000	0.003522  
2635.000000	0.003491  
2634.000000	0.003466  
2633.000000	0.003464  
2632.000000	0.003485  
2631.000000	0.003497  
2630.000000	0.003470  
2629.000000	0.003401  
2628.000000	0.003321  
2627.000000	0.003273  
2626.000000	0.003282  
2625.000000	0.003341  
2624.000000	0.003414  
2623.000000	0.003465  
2622.000000	0.003488  
2621.000000	0.003505  
2620.000000	0.003526  
2619.000000	0.003536  
2618.000000	0.003504  
2617.000000	0.003413  
2616.000000	0.003287  
2615.000000	0.003181  
2614.000000	0.003149  
2613.000000	0.003193  
2612.000000	0.003247  
2611.000000	0.003234  
2610.000000	0.003155  
2609.000000	0.003092  
2608.000000	0.003118  
2607.000000	0.003210  
2606.000000	0.003269  
2605.000000	0.003228  
2604.000000	0.003109  
2603.000000	0.003000  
2602.000000	0.002967  
2601.000000	0.003006  
2600.000000	0.003049  
2599.000000	0.003023  
2598.000000	0.002910  
2597.000000	0.002757  
2596.000000	0.002633  
2595.000000	0.002566  
2594.000000	0.002516  
2593.000000	0.002439  
2592.000000	0.002355  
2591.000000	0.002342  
2590.000000	0.002448  
2589.000000	0.002619  
2588.000000	0.002748  
2587.000000	0.002773  
2586.000000	0.002711  
2585.000000	0.002622  
2584.000000	0.002552  
2583.000000	0.002508  
2582.000000	0.002466  
2581.000000	0.002403  
2580.000000	0.002324  
2579.000000	0.002270  
2578.000000	0.002253  
2577.000000	0.002224  
2576.000000	0.002136  
2575.000000	0.002033  
2574.000000	0.002026  
2573.000000	0.002157  
2572.000000	0.002340  
2571.000000	0.002451  
2570.000000	0.002450  
2569.000000	0.002381  
2568.000000	0.002309  
2567.000000	0.002269  
2566.000000	0.002262  
2565.000000	0.002249  
2564.000000	0.002166  
2563.000000	0.001976  
2562.000000	0.001728  
2561.000000	0.001546  
2560.000000	0.001537  
2559.000000	0.001712  
2558.000000	0.001959  
2557.000000	0.002122  
2556.000000	0.002125  
2555.000000	0.002027  
2554.000000	0.001938  
2553.000000	0.001897  
2552.000000	0.001868  
2551.000000	0.001831  
2550.000000	0.001797  
2549.000000	0.001760  
2548.000000	0.001686  
2547.000000	0.001589  
2546.000000	0.001559  
2545.000000	0.001648  
2544.000000	0.001791  
2543.000000	0.001875  
2542.000000	0.001860  
2541.000000	0.001796  
2540.000000	0.001755  
2539.000000	0.001769  
2538.000000	0.001812  
2537.000000	0.001816  
2536.000000	0.001732  
2535.000000	0.001582  
2534.000000	0.001445  
2533.000000	0.001363  
2532.000000	0.001320  
2531.000000	0.001321  
2530.000000	0.001426  
2529.000000	0.001645  
2528.000000	0.001852  
2527.000000	0.001888  
2526.000000	0.001724  
2525.000000	0.001469  
2524.000000	0.001243  
2523.000000	0.001101  
2522.000000	0.001053  
2521.000000	0.001088  
2520.000000	0.001169  
2519.000000	0.001261  
2518.000000	0.001364  
2517.000000	0.001490  
2516.000000	0.001616  
2515.000000	0.001715  
2514.000000	0.001803  
2513.000000	0.001912  
2512.000000	0.002004  
2511.000000	0.001993  
2510.000000	0.001868  
2509.000000	0.001740  
2508.000000	0.001719  
2507.000000	0.001776  
2506.000000	0.001778  
2505.000000	0.001645  
2504.000000	0.001445  
2503.000000	0.001325  
2502.000000	0.001363  
2501.000000	0.001517  
2500.000000	0.001682  
2499.000000	0.001776  
2498.000000	0.001780  
2497.000000	0.001722  
2496.000000	0.001654  
2495.000000	0.001622  
2494.000000	0.001617  
2493.000000	0.001570  
2492.000000	0.001427  
2491.000000	0.001247  
2490.000000	0.001154  
2489.000000	0.001214  
2488.000000	0.001377  
2487.000000	0.001555  
2486.000000	0.001695  
2485.000000	0.001756  
2484.000000	0.001697  
2483.000000	0.001540  
2482.000000	0.001388  
2481.000000	0.001328  
2480.000000	0.001337  
2479.000000	0.001336  
2478.000000	0.001297  
2477.000000	0.001242  
2476.000000	0.001178  
2475.000000	0.001087  
2474.000000	0.000985  
2473.000000	0.000920  
2472.000000	0.000921  
2471.000000	0.000969  
2470.000000	0.001027  
2469.000000	0.001075  
2468.000000	0.001105  
2467.000000	0.001119  
2466.000000	0.001112  
2465.000000	0.001052  
2464.000000	0.000918  
2463.000000	0.000754  
2462.000000	0.000662  
2461.000000	0.000685  
2460.000000	0.000754  
2459.000000	0.000784  
2458.000000	0.000778  
2457.000000	0.000787  
2456.000000	0.000804  
2455.000000	0.000782  
2454.000000	0.000731  
2453.000000	0.000717  
2452.000000	0.000772  
2451.000000	0.000861  
2450.000000	0.000950  
2449.000000	0.001028  
2448.000000	0.001058  
2447.000000	0.000982  
2446.000000	0.000800  
2445.000000	0.000616  
2444.000000	0.000555  
2443.000000	0.000660  
2442.000000	0.000858  
2441.000000	0.001015  
2440.000000	0.001027  
2439.000000	0.000899  
2438.000000	0.000750  
2437.000000	0.000705  
2436.000000	0.000795  
2435.000000	0.000943  
2434.000000	0.001047  
2433.000000	0.001049  
2432.000000	0.000970  
2431.000000	0.000894  
2430.000000	0.000910  
2429.000000	0.001010  
2428.000000	0.001064  
2427.000000	0.000960  
2426.000000	0.000747  
2425.000000	0.000604  
2424.000000	0.000660  
2423.000000	0.000882  
2422.000000	0.001143  
2421.000000	0.001337  
2420.000000	0.001425  
2419.000000	0.001420  
2418.000000	0.001366  
2417.000000	0.001305  
2416.000000	0.001241  
2415.000000	0.001160  
2414.000000	0.001074  
2413.000000	0.001027  
2412.000000	0.001034  
2411.000000	0.001047  
2410.000000	0.001013  
2409.000000	0.000950  
2408.000000	0.000928  
2407.000000	0.000975  
2406.000000	0.001019  
2405.000000	0.000957  
2404.000000	0.000790  
2403.000000	0.000646  
2402.000000	0.000654  
2401.000000	0.000805  
2400.000000	0.000968  
2399.000000	0.001040  
2398.000000	0.001028  
2397.000000	0.000982  
2396.000000	0.000932  
2395.000000	0.000891  
2394.000000	0.000886  
2393.000000	0.000911  
2392.000000	0.000918  
2391.000000	0.000870  
2390.000000	0.000777  
2389.000000	0.000656  
2388.000000	0.000495  
2387.000000	0.000298  
2386.000000	0.000133  
2385.000000	0.000066  
2384.000000	0.000080  
2383.000000	0.000105  
2382.000000	0.000104  
2381.000000	0.000082  
2380.000000	0.000025  
2379.000000	-0.000081 
2378.000000	-0.000212 
2377.000000	-0.000357 
2376.000000	-0.000623 
2375.000000	-0.001115 
2374.000000	-0.001680 
2373.000000	-0.001924 
2372.000000	-0.001641 
2371.000000	-0.001091 
2370.000000	-0.000714 
2369.000000	-0.000659 
2368.000000	-0.000713 
2367.000000	-0.000591 
2366.000000	-0.000208 
2365.000000	0.000190  
2364.000000	0.000088  
2363.000000	-0.000828 
2362.000000	-0.002149 
2361.000000	-0.003003 
2360.000000	-0.002983 
2359.000000	-0.002490 
2358.000000	-0.002011 
2357.000000	-0.001561 
2356.000000	-0.001004 
2355.000000	-0.000450 
2354.000000	-0.000063 
2353.000000	0.000124  
2352.000000	0.000101  
2351.000000	-0.000153 
2350.000000	-0.000561 
2349.000000	-0.000986 
2348.000000	-0.001381 
2347.000000	-0.001777 
2346.000000	-0.002137 
2345.000000	-0.002293 
2344.000000	-0.002166 
2343.000000	-0.001872 
2342.000000	-0.001492 
2341.000000	-0.001004 
2340.000000	-0.000474 
2339.000000	-0.000102 
2338.000000	-0.000031 
2337.000000	-0.000237 
2336.000000	-0.000586 
2335.000000	-0.000902 
2334.000000	-0.001009 
2333.000000	-0.000854 
2332.000000	-0.000624 
2331.000000	-0.000558 
2330.000000	-0.000663 
2329.000000	-0.000725 
2328.000000	-0.000652 
2327.000000	-0.000558 
2326.000000	-0.000555 
2325.000000	-0.000576 
2324.000000	-0.000480 
2323.000000	-0.000250 
2322.000000	-0.000007 
2321.000000	0.000113  
2320.000000	0.000076  
2319.000000	-0.000074 
2318.000000	-0.000261 
2317.000000	-0.000381 
2316.000000	-0.000364 
2315.000000	-0.000219 
2314.000000	-0.000068 
2313.000000	-0.000045 
2312.000000	-0.000190 
2311.000000	-0.000399 
2310.000000	-0.000541 
2309.000000	-0.000580 
2308.000000	-0.000576 
2307.000000	-0.000569 
2306.000000	-0.000540 
2305.000000	-0.000478 
2304.000000	-0.000428 
2303.000000	-0.000418 
2302.000000	-0.000409 
2301.000000	-0.000352 
2300.000000	-0.000275 
2299.000000	-0.000255 
2298.000000	-0.000323 
2297.000000	-0.000431 
2296.000000	-0.000498 
2295.000000	-0.000454 
2294.000000	-0.000285 
2293.000000	-0.000072 
2292.000000	0.000046  
2291.000000	0.000004  
2290.000000	-0.000102 
2289.000000	-0.000118 
2288.000000	-0.000003 
2287.000000	0.000141  
2286.000000	0.000205  
2285.000000	0.000162  
2284.000000	0.000037  
2283.000000	-0.000118 
2282.000000	-0.000219 
2281.000000	-0.000184 
2280.000000	-0.000025 
2279.000000	0.000151  
2278.000000	0.000258  
2277.000000	0.000278  
2276.000000	0.000230  
2275.000000	0.000151  
2274.000000	0.000108  
2273.000000	0.000147  
2272.000000	0.000198  
2271.000000	0.000140  
2270.000000	-0.000013 
2269.000000	-0.000079 
2268.000000	0.000070  
2267.000000	0.000334  
2266.000000	0.000496  
2265.000000	0.000440  
2264.000000	0.000206  
2263.000000	-0.000122 
2262.000000	-0.000462 
2261.000000	-0.000693 
2260.000000	-0.000692 
2259.000000	-0.000435 
2258.000000	-0.000061 
2257.000000	0.000215  
2256.000000	0.000249  
2255.000000	0.000065  
2254.000000	-0.000166 
2253.000000	-0.000262 
2252.000000	-0.000163 
2251.000000	0.000036  
2250.000000	0.000171  
2249.000000	0.000127  
2248.000000	-0.000062 
2247.000000	-0.000222 
2246.000000	-0.000166 
2245.000000	0.000134  
2244.000000	0.000505  
2243.000000	0.000721  
2242.000000	0.000691  
2241.000000	0.000476  
2240.000000	0.000209  
2239.000000	0.000031  
2238.000000	0.000039  
2237.000000	0.000184  
2236.000000	0.000263  
2235.000000	0.000101  
2234.000000	-0.000249 
2233.000000	-0.000560 
2232.000000	-0.000646 
2231.000000	-0.000498 
2230.000000	-0.000216 
2229.000000	0.000070  
2228.000000	0.000252  
2227.000000	0.000297  
2226.000000	0.000291  
2225.000000	0.000341  
2224.000000	0.000448  
2223.000000	0.000530  
2222.000000	0.000538  
2221.000000	0.000458  
2220.000000	0.000256  
2219.000000	-0.000064 
2218.000000	-0.000369 
2217.000000	-0.000493 
2216.000000	-0.000420 
2215.000000	-0.000260 
2214.000000	-0.000066 
2213.000000	0.000184  
2212.000000	0.000460  
2211.000000	0.000677  
2210.000000	0.000853  
2209.000000	0.001098  
2208.000000	0.001421  
2207.000000	0.001694  
2206.000000	0.001822  
2205.000000	0.001828  
2204.000000	0.001729  
2203.000000	0.001506  
2202.000000	0.001214  
2201.000000	0.000981  
2200.000000	0.000817  
2199.000000	0.000611  
2198.000000	0.000349  
2197.000000	0.000187  
2196.000000	0.000182  
2195.000000	0.000160  
2194.000000	-0.000027 
2193.000000	-0.000268 
2192.000000	-0.000362 
2191.000000	-0.000320 
2190.000000	-0.000319 
2189.000000	-0.000463 
2188.000000	-0.000725 
2187.000000	-0.001061 
2186.000000	-0.001402 
2185.000000	-0.001586 
2184.000000	-0.001477 
2183.000000	-0.001150 
2182.000000	-0.000823 
2181.000000	-0.000602 
2180.000000	-0.000417 
2179.000000	-0.000188 
2178.000000	0.000047  
2177.000000	0.000219  
2176.000000	0.000317  
2175.000000	0.000396  
2174.000000	0.000503  
2173.000000	0.000636  
2172.000000	0.000702  
2171.000000	0.000556  
2170.000000	0.000143  
2169.000000	-0.000367 
2168.000000	-0.000651 
2167.000000	-0.000511 
2166.000000	-0.000064 
2165.000000	0.000388  
2164.000000	0.000683  
2163.000000	0.000912  
2162.000000	0.001188  
2161.000000	0.001395  
2160.000000	0.001292  
2159.000000	0.000857  
2158.000000	0.000339  
2157.000000	-0.000056 
2156.000000	-0.000335 
2155.000000	-0.000527 
2154.000000	-0.000559 
2153.000000	-0.000390 
2152.000000	-0.000121 
2151.000000	0.000109  
2150.000000	0.000240  
2149.000000	0.000250  
2148.000000	0.000132  
2147.000000	-0.000008 
2146.000000	0.000031  
2145.000000	0.000320  
2144.000000	0.000664  
2143.000000	0.000837  
2142.000000	0.000825  
2141.000000	0.000737  
2140.000000	0.000589  
2139.000000	0.000340  
2138.000000	0.000061  
2137.000000	-0.000104 
2136.000000	-0.000128 
2135.000000	-0.000085 
2134.000000	-0.000004 
2133.000000	0.000102  
2132.000000	0.000112  
2131.000000	-0.000101 
2130.000000	-0.000443 
2129.000000	-0.000641 
2128.000000	-0.000552 
2127.000000	-0.000308 
2126.000000	-0.000098 
2125.000000	0.000048  
2124.000000	0.000208  
2123.000000	0.000380  
2122.000000	0.000473  
2121.000000	0.000436  
2120.000000	0.000328  
2119.000000	0.000267  
2118.000000	0.000319  
2117.000000	0.000437  
2116.000000	0.000502  
2115.000000	0.000445  
2114.000000	0.000326  
2113.000000	0.000228  
2112.000000	0.000141  
2111.000000	0.000012  
2110.000000	-0.000124 
2109.000000	-0.000163 
2108.000000	-0.000094 
2107.000000	-0.000024 
2106.000000	-0.000026 
2105.000000	-0.000056 
2104.000000	-0.000055 
2103.000000	-0.000028 
2102.000000	0.000007  
2101.000000	0.000055  
2100.000000	0.000081  
2099.000000	0.000012  
2098.000000	-0.000152 
2097.000000	-0.000279 
2096.000000	-0.000228 
2095.000000	0.000008  
2094.000000	0.000320  
2093.000000	0.000564  
2092.000000	0.000640  
2091.000000	0.000539  
2090.000000	0.000365  
2089.000000	0.000248  
2088.000000	0.000212  
2087.000000	0.000189  
2086.000000	0.000149  
2085.000000	0.000140  
2084.000000	0.000183  
2083.000000	0.000222  
2082.000000	0.000201  
2081.000000	0.000139  
2080.000000	0.000076  
2079.000000	0.000043  
2078.000000	0.000099  
2077.000000	0.000290  
2076.000000	0.000527  
2075.000000	0.000608  
2074.000000	0.000444  
2073.000000	0.000185  
2072.000000	0.000047  
2071.000000	0.000078  
2070.000000	0.000177  
2069.000000	0.000269  
2068.000000	0.000349  
2067.000000	0.000402  
2066.000000	0.000381  
2065.000000	0.000265  
2064.000000	0.000100  
2063.000000	-0.000027 
2062.000000	-0.000027 
2061.000000	0.000157  
2060.000000	0.000485  
2059.000000	0.000825  
2058.000000	0.001046  
2057.000000	0.001100  
2056.000000	0.001009  
2055.000000	0.000824  
2054.000000	0.000608  
2053.000000	0.000412  
2052.000000	0.000261  
2051.000000	0.000181  
2050.000000	0.000221  
2049.000000	0.000373  
2048.000000	0.000496  
2047.000000	0.000441  
2046.000000	0.000235  
2045.000000	0.000036  
2044.000000	-0.000073 
2043.000000	-0.000113 
2042.000000	-0.000049 
2041.000000	0.000205  
2040.000000	0.000599  
2039.000000	0.000935  
2038.000000	0.001104  
2037.000000	0.001168  
2036.000000	0.001193  
2035.000000	0.001146  
2034.000000	0.001025  
2033.000000	0.000927  
2032.000000	0.000896  
2031.000000	0.000860  
2030.000000	0.000791  
2029.000000	0.000778  
2028.000000	0.000854  
2027.000000	0.000882  
2026.000000	0.000728  
2025.000000	0.000433  
2024.000000	0.000165  
2023.000000	0.000088  
2022.000000	0.000307  
2021.000000	0.000802  
2020.000000	0.001354  
2019.000000	0.001641  
2018.000000	0.001489  
2017.000000	0.000977  
2016.000000	0.000333  
2015.000000	-0.000200 
2014.000000	-0.000406 
2013.000000	-0.000246 
2012.000000	-0.000016 
2011.000000	-0.000113 
2010.000000	-0.000565 
2009.000000	-0.000993 
2008.000000	-0.001099 
2007.000000	-0.000952 
2006.000000	-0.000716 
2005.000000	-0.000408 
2004.000000	-0.000083 
2003.000000	0.000047  
2002.000000	-0.000113 
2001.000000	-0.000328 
2000.000000	-0.000283 
1999.000000	0.000034  
1998.000000	0.000384  
1997.000000	0.000556  
1996.000000	0.000480  
1995.000000	0.000170  
1994.000000	-0.000245 
1993.000000	-0.000455 
1992.000000	-0.000230 
1991.000000	0.000197  
1990.000000	0.000361  
1989.000000	0.000108  
1988.000000	-0.000273 
1987.000000	-0.000447 
1986.000000	-0.000390 
1985.000000	-0.000307 
1984.000000	-0.000295 
1983.000000	-0.000240 
1982.000000	-0.000030 
1981.000000	0.000245  
1980.000000	0.000393  
1979.000000	0.000379  
1978.000000	0.000358  
1977.000000	0.000375  
1976.000000	0.000248  
1975.000000	-0.000123 
1974.000000	-0.000494 
1973.000000	-0.000545 
1972.000000	-0.000307 
1971.000000	-0.000081 
1970.000000	0.000003  
1969.000000	0.000110  
1968.000000	0.000369  
1967.000000	0.000651  
1966.000000	0.000784  
1965.000000	0.000791  
1964.000000	0.000768  
1963.000000	0.000724  
1962.000000	0.000657  
1961.000000	0.000621  
1960.000000	0.000618  
1959.000000	0.000562  
1958.000000	0.000427  
1957.000000	0.000310  
1956.000000	0.000274  
1955.000000	0.000270  
1954.000000	0.000276  
1953.000000	0.000371  
1952.000000	0.000562  
1951.000000	0.000664  
1950.000000	0.000504  
1949.000000	0.000186  
1948.000000	0.000014  
1947.000000	0.000174  
1946.000000	0.000560  
1945.000000	0.000893  
1944.000000	0.000932  
1943.000000	0.000650  
1942.000000	0.000277  
1941.000000	0.000085  
1940.000000	0.000141  
1939.000000	0.000330  
1938.000000	0.000520  
1937.000000	0.000640  
1936.000000	0.000657  
1935.000000	0.000556  
1934.000000	0.000384  
1933.000000	0.000245  
1932.000000	0.000212  
1931.000000	0.000273  
1930.000000	0.000385  
1929.000000	0.000503  
1928.000000	0.000549  
1927.000000	0.000463  
1926.000000	0.000286  
1925.000000	0.000153  
1924.000000	0.000146  
1923.000000	0.000217  
1922.000000	0.000290  
1921.000000	0.000381  
1920.000000	0.000516  
1919.000000	0.000656  
1918.000000	0.000759  
1917.000000	0.000833  
1916.000000	0.000861  
1915.000000	0.000767  
1914.000000	0.000523  
1913.000000	0.000254  
1912.000000	0.000160  
1911.000000	0.000326  
1910.000000	0.000656  
1909.000000	0.000964  
1908.000000	0.001101  
1907.000000	0.001024  
1906.000000	0.000793  
1905.000000	0.000538  
1904.000000	0.000374  
1903.000000	0.000323  
1902.000000	0.000358  
1901.000000	0.000438  
1900.000000	0.000514  
1899.000000	0.000535  
1898.000000	0.000482  
1897.000000	0.000395  
1896.000000	0.000321  
1895.000000	0.000287  
1894.000000	0.000318  
1893.000000	0.000438  
1892.000000	0.000621  
1891.000000	0.000776  
1890.000000	0.000824  
1889.000000	0.000774  
1888.000000	0.000695  
1887.000000	0.000636  
1886.000000	0.000604  
1885.000000	0.000584  
1884.000000	0.000544  
1883.000000	0.000474  
1882.000000	0.000419  
1881.000000	0.000431  
1880.000000	0.000476  
1879.000000	0.000475  
1878.000000	0.000428  
1877.000000	0.000433  
1876.000000	0.000548  
1875.000000	0.000702  
1874.000000	0.000797  
1873.000000	0.000821  
1872.000000	0.000786  
1871.000000	0.000661  
1870.000000	0.000460  
1869.000000	0.000350  
1868.000000	0.000438  
1867.000000	0.000576  
1866.000000	0.000618  
1865.000000	0.000584  
1864.000000	0.000541  
1863.000000	0.000489  
1862.000000	0.000394  
1861.000000	0.000275  
1860.000000	0.000204  
1859.000000	0.000202  
1858.000000	0.000220  
1857.000000	0.000214  
1856.000000	0.000200  
1855.000000	0.000215  
1854.000000	0.000281  
1853.000000	0.000391  
1852.000000	0.000500  
1851.000000	0.000557  
1850.000000	0.000547  
1849.000000	0.000515  
1848.000000	0.000545  
1847.000000	0.000675  
1846.000000	0.000836  
1845.000000	0.000883  
1844.000000	0.000718  
1843.000000	0.000430  
1842.000000	0.000236  
1841.000000	0.000243  
1840.000000	0.000362  
1839.000000	0.000446  
1838.000000	0.000438  
1837.000000	0.000418  
1836.000000	0.000453  
1835.000000	0.000493  
1834.000000	0.000465  
1833.000000	0.000387  
1832.000000	0.000340  
1831.000000	0.000381  
1830.000000	0.000469  
1829.000000	0.000496  
1828.000000	0.000446  
1827.000000	0.000368  
1826.000000	0.000280  
1825.000000	0.000221  
1824.000000	0.000231  
1823.000000	0.000288  
1822.000000	0.000343  
1821.000000	0.000369  
1820.000000	0.000381  
1819.000000	0.000416  
1818.000000	0.000496  
1817.000000	0.000617  
1816.000000	0.000735  
1815.000000	0.000798  
1814.000000	0.000796  
1813.000000	0.000755  
1812.000000	0.000704  
1811.000000	0.000652  
1810.000000	0.000605  
1809.000000	0.000592  
1808.000000	0.000595  
1807.000000	0.000573  
1806.000000	0.000549  
1805.000000	0.000603  
1804.000000	0.000761  
1803.000000	0.000933  
1802.000000	0.001014  
1801.000000	0.000983  
1800.000000	0.000915  
1799.000000	0.000862  
1798.000000	0.000842  
1797.000000	0.000873  
1796.000000	0.000941  
1795.000000	0.000997  
1794.000000	0.001009  
1793.000000	0.001037  
1792.000000	0.001142  
1791.000000	0.001220  
1790.000000	0.001209  
1789.000000	0.001201  
1788.000000	0.001256  
1787.000000	0.001356  
1786.000000	0.001467  
1785.000000	0.001567  
1784.000000	0.001633  
1783.000000	0.001644  
1782.000000	0.001629  
1781.000000	0.001641  
1780.000000	0.001727  
1779.000000	0.001838  
1778.000000	0.001910  
1777.000000	0.001948  
1776.000000	0.001969  
1775.000000	0.001972  
1774.000000	0.001934  
1773.000000	0.001932  
1772.000000	0.002080  
1771.000000	0.002275  
1770.000000	0.002412  
1769.000000	0.002549  
1768.000000	0.002720  
1767.000000	0.002875  
1766.000000	0.003012  
1765.000000	0.003220  
1764.000000	0.003546  
1763.000000	0.003917  
1762.000000	0.004233  
1761.000000	0.004496  
1760.000000	0.004827  
1759.000000	0.005285  
1758.000000	0.005878  
1757.000000	0.006640  
1756.000000	0.007512  
1755.000000	0.008387  
1754.000000	0.009328  
1753.000000	0.010627  
1752.000000	0.012675  
1751.000000	0.015659  
1750.000000	0.019535  
1749.000000	0.024430  
1748.000000	0.030165  
1747.000000	0.036054  
1746.000000	0.041914  
1745.000000	0.048198  
1744.000000	0.054783  
1743.000000	0.060456  
1742.000000	0.064152  
1741.000000	0.065674  
1740.000000	0.064963  
1739.000000	0.062323  
1738.000000	0.058964  
1737.000000	0.055606  
1736.000000	0.051562  
1735.000000	0.045241  
1734.000000	0.037389  
1733.000000	0.031432  
1732.000000	0.027975  
1731.000000	0.025492  
1730.000000	0.023296  
1729.000000	0.021375  
1728.000000	0.019831  
1727.000000	0.018624  
1726.000000	0.017665  
1725.000000	0.016826  
1724.000000	0.016021  
1723.000000	0.015263  
1722.000000	0.014636  
1721.000000	0.014127  
1720.000000	0.013551  
1719.000000	0.012673  
1718.000000	0.011535  
1717.000000	0.010487  
1716.000000	0.009648  
1715.000000	0.008934  
1714.000000	0.008350  
1713.000000	0.007878  
1712.000000	0.007442  
1711.000000	0.006994  
1710.000000	0.006560  
1709.000000	0.006173  
1708.000000	0.005813  
1707.000000	0.005449  
1706.000000	0.005092  
1705.000000	0.004803  
1704.000000	0.004626  
1703.000000	0.004607  
1702.000000	0.004699  
1701.000000	0.004729  
1700.000000	0.004464  
1699.000000	0.003995  
1698.000000	0.003751  
1697.000000	0.003778  
1696.000000	0.003787  
1695.000000	0.003608  
1694.000000	0.003414  
1693.000000	0.003395  
1692.000000	0.003436  
1691.000000	0.003384  
1690.000000	0.003254  
1689.000000	0.003134  
1688.000000	0.003053  
1687.000000	0.003026  
1686.000000	0.003030  
1685.000000	0.003135  
1684.000000	0.003339  
1683.000000	0.003422  
1682.000000	0.003512  
1681.000000	0.003667  
1680.000000	0.003679  
1679.000000	0.003539  
1678.000000	0.003426  
1677.000000	0.003442  
1676.000000	0.003516  
1675.000000	0.003512  
1674.000000	0.003405  
1673.000000	0.003303  
1672.000000	0.003254  
1671.000000	0.003260  
1670.000000	0.003447  
1669.000000	0.003769  
1668.000000	0.003971  
1667.000000	0.004028  
1666.000000	0.004064  
1665.000000	0.004139  
1664.000000	0.004285  
1663.000000	0.004530  
1662.000000	0.004847  
1661.000000	0.005127  
1660.000000	0.005324  
1659.000000	0.005440  
1658.000000	0.005510  
1657.000000	0.005556  
1656.000000	0.005588  
1655.000000	0.005514  
1654.000000	0.005599  
1653.000000	0.006218  
1652.000000	0.006557  
1651.000000	0.006539  
1650.000000	0.006603  
1649.000000	0.006639  
1648.000000	0.006603  
1647.000000	0.006679  
1646.000000	0.006890  
1645.000000	0.007037  
1644.000000	0.007091  
1643.000000	0.007094  
1642.000000	0.007088  
1641.000000	0.007095  
1640.000000	0.007081  
1639.000000	0.007018  
1638.000000	0.006911  
1637.000000	0.006862  
1636.000000	0.006976  
1635.000000	0.007080  
1634.000000	0.007036  
1633.000000	0.007010  
1632.000000	0.007022  
1631.000000	0.006967  
1630.000000	0.006821  
1629.000000	0.006641  
1628.000000	0.006495  
1627.000000	0.006384  
1626.000000	0.006277  
1625.000000	0.006137  
1624.000000	0.005967  
1623.000000	0.005838  
1622.000000	0.005780  
1621.000000	0.005734  
1620.000000	0.005634  
1619.000000	0.005410  
1618.000000	0.005074  
1617.000000	0.004824  
1616.000000	0.004748  
1615.000000	0.004725  
1614.000000	0.004712  
1613.000000	0.004696  
1612.000000	0.004629  
1611.000000	0.004514  
1610.000000	0.004410  
1609.000000	0.004347  
1608.000000	0.004320  
1607.000000	0.004331  
1606.000000	0.004390  
1605.000000	0.004438  
1604.000000	0.004397  
1603.000000	0.004266  
1602.000000	0.004122  
1601.000000	0.004032  
1600.000000	0.003981  
1599.000000	0.003933  
1598.000000	0.003894  
1597.000000	0.003886  
1596.000000	0.003922  
1595.000000	0.003998  
1594.000000	0.004109  
1593.000000	0.004227  
1592.000000	0.004320  
1591.000000	0.004387  
1590.000000	0.004465  
1589.000000	0.004565  
1588.000000	0.004659  
1587.000000	0.004748  
1586.000000	0.004873  
1585.000000	0.005045  
1584.000000	0.005213  
1583.000000	0.005350  
1582.000000	0.005462  
1581.000000	0.005547  
1580.000000	0.005596  
1579.000000	0.005616  
1578.000000	0.005635  
1577.000000	0.005730  
1576.000000	0.005890  
1575.000000	0.005943  
1574.000000	0.005928  
1573.000000	0.005956  
1572.000000	0.005978  
1571.000000	0.005960  
1570.000000	0.006023  
1569.000000	0.006205  
1568.000000	0.006330  
1567.000000	0.006338  
1566.000000	0.006273  
1565.000000	0.006175  
1564.000000	0.006061  
1563.000000	0.005947  
1562.000000	0.005846  
1561.000000	0.005701  
1560.000000	0.005429  
1559.000000	0.005219  
1558.000000	0.005109  
1557.000000	0.005067  
1556.000000	0.005152  
1555.000000	0.005158  
1554.000000	0.005013  
1553.000000	0.004833  
1552.000000	0.004712  
1551.000000	0.004606  
1550.000000	0.004448  
1549.000000	0.004292  
1548.000000	0.004200  
1547.000000	0.004162  
1546.000000	0.004111  
1545.000000	0.004007  
1544.000000	0.003799  
1543.000000	0.003425  
1542.000000	0.002969  
1541.000000	0.002896  
1540.000000	0.003446  
1539.000000	0.003817  
1538.000000	0.003798  
1537.000000	0.003794  
1536.000000	0.003855  
1535.000000	0.003864  
1534.000000	0.003854  
1533.000000	0.003927  
1532.000000	0.004022  
1531.000000	0.004071  
1530.000000	0.004083  
1529.000000	0.004086  
1528.000000	0.004079  
1527.000000	0.004014  
1526.000000	0.003905  
1525.000000	0.003846  
1524.000000	0.003901  
1523.000000	0.004055  
1522.000000	0.004324  
1521.000000	0.004588  
1520.000000	0.004607  
1519.000000	0.004507  
1518.000000	0.004492  
1517.000000	0.004622  
1516.000000	0.004762  
1515.000000	0.004795  
1514.000000	0.004848  
1513.000000	0.004997  
1512.000000	0.005179  
1511.000000	0.005310  
1510.000000	0.005440  
1509.000000	0.005691  
1508.000000	0.006070  
1507.000000	0.006304  
1506.000000	0.006255  
1505.000000	0.006236  
1504.000000	0.006373  
1503.000000	0.006568  
1502.000000	0.006755  
1501.000000	0.006939  
1500.000000	0.007090  
1499.000000	0.007179  
1498.000000	0.007353  
1497.000000	0.007803  
1496.000000	0.008278  
1495.000000	0.008436  
1494.000000	0.008446  
1493.000000	0.008551  
1492.000000	0.008749  
1491.000000	0.008979  
1490.000000	0.009381  
1489.000000	0.010022  
1488.000000	0.010623  
1487.000000	0.011031  
1486.000000	0.011412  
1485.000000	0.011913  
1484.000000	0.012522  
1483.000000	0.013285  
1482.000000	0.014348  
1481.000000	0.015700  
1480.000000	0.017048  
1479.000000	0.018256  
1478.000000	0.019567  
1477.000000	0.021235  
1476.000000	0.023143  
1475.000000	0.025263  
1474.000000	0.028747  
1473.000000	0.035189  
1472.000000	0.043241  
1471.000000	0.050144  
1470.000000	0.055880  
1469.000000	0.061188  
1468.000000	0.066027  
1467.000000	0.070131  
1466.000000	0.073559  
1465.000000	0.076333  
1464.000000	0.078084  
1463.000000	0.078867  
1462.000000	0.079245  
1461.000000	0.079569  
1460.000000	0.079898  
1459.000000	0.080403  
1458.000000	0.081352  
1457.000000	0.081713  
1456.000000	0.080070  
1455.000000	0.077474  
1454.000000	0.074856  
1453.000000	0.072106  
1452.000000	0.069166  
1451.000000	0.066366  
1450.000000	0.063930  
1449.000000	0.061604  
1448.000000	0.059047  
1447.000000	0.056327  
1446.000000	0.053650  
1445.000000	0.050961  
1444.000000	0.048207  
1443.000000	0.045507  
1442.000000	0.043004  
1441.000000	0.040743  
1440.000000	0.038756  
1439.000000	0.037034  
1438.000000	0.035343  
1437.000000	0.033362  
1436.000000	0.031253  
1435.000000	0.029518  
1434.000000	0.028133  
1433.000000	0.026741  
1432.000000	0.025178  
1431.000000	0.023580  
1430.000000	0.022109  
1429.000000	0.020822  
1428.000000	0.019785  
1427.000000	0.019059  
1426.000000	0.018577  
1425.000000	0.018203  
1424.000000	0.017927  
1423.000000	0.017793  
1422.000000	0.017727  
1421.000000	0.017585  
1420.000000	0.017315  
1419.000000	0.016971  
1418.000000	0.016522  
1417.000000	0.015966  
1416.000000	0.015423  
1415.000000	0.014948  
1414.000000	0.014506  
1413.000000	0.014074  
1412.000000	0.013726  
1411.000000	0.013539  
1410.000000	0.013449  
1409.000000	0.013364  
1408.000000	0.013323  
1407.000000	0.013417  
1406.000000	0.013644  
1405.000000	0.013890  
1404.000000	0.014106  
1403.000000	0.014340  
1402.000000	0.014621  
1401.000000	0.014958  
1400.000000	0.015402  
1399.000000	0.015952  
1398.000000	0.016453  
1397.000000	0.016805  
1396.000000	0.017079  
1395.000000	0.017361  
1394.000000	0.017619  
1393.000000	0.017835  
1392.000000	0.018101  
1391.000000	0.018476  
1390.000000	0.018990  
1389.000000	0.019789  
1388.000000	0.021150  
1387.000000	0.023068  
1386.000000	0.025105  
1385.000000	0.027035  
1384.000000	0.029094  
1383.000000	0.031569  
1382.000000	0.034538  
1381.000000	0.037860  
1380.000000	0.041159  
1379.000000	0.043778  
1378.000000	0.045086  
1377.000000	0.044905  
1376.000000	0.043364  
1375.000000	0.040620  
1374.000000	0.037185  
1373.000000	0.033992  
1372.000000	0.031602  
1371.000000	0.029964  
1370.000000	0.028897  
1369.000000	0.028291  
1368.000000	0.028017  
1367.000000	0.027829  
1366.000000	0.027466  
1365.000000	0.026750  
1364.000000	0.025630  
1363.000000	0.024282  
1362.000000	0.023075  
1361.000000	0.022227  
1360.000000	0.021676  
1359.000000	0.021296  
1358.000000	0.021025  
1357.000000	0.020842  
1356.000000	0.020730  
1355.000000	0.020663  
1354.000000	0.020611  
1353.000000	0.020555  
1352.000000	0.020489  
1351.000000	0.020399  
1350.000000	0.020258  
1349.000000	0.020048  
1348.000000	0.019801  
1347.000000	0.019556  
1346.000000	0.019302  
1345.000000	0.019019  
1344.000000	0.018743  
1343.000000	0.018541  
1342.000000	0.018416  
1341.000000	0.018276  
1340.000000	0.018007  
1339.000000	0.017583  
1338.000000	0.017078  
1337.000000	0.016570  
1336.000000	0.016106  
1335.000000	0.015710  
1334.000000	0.015381  
1333.000000	0.015101  
1332.000000	0.014881  
1331.000000	0.014761  
1330.000000	0.014743  
1329.000000	0.014772  
1328.000000	0.014813  
1327.000000	0.014886  
1326.000000	0.015018  
1325.000000	0.015191  
1324.000000	0.015371  
1323.000000	0.015545  
1322.000000	0.015705  
1321.000000	0.015826  
1320.000000	0.015902  
1319.000000	0.015966  
1318.000000	0.016058  
1317.000000	0.016189  
1316.000000	0.016356  
1315.000000	0.016559  
1314.000000	0.016781  
1313.000000	0.016971  
1312.000000	0.017094  
1311.000000	0.017177  
1310.000000	0.017275  
1309.000000	0.017399  
1308.000000	0.017511  
1307.000000	0.017564  
1306.000000	0.017569  
1305.000000	0.017582  
1304.000000	0.017647  
1303.000000	0.017744  
1302.000000	0.017795  
1301.000000	0.017733  
1300.000000	0.017556  
1299.000000	0.017314  
1298.000000	0.017052  
1297.000000	0.016788  
1296.000000	0.016532  
1295.000000	0.016298  
1294.000000	0.016086  
1293.000000	0.015897  
1292.000000	0.015746  
1291.000000	0.015660  
1290.000000	0.015646  
1289.000000	0.015690  
1288.000000	0.015781  
1287.000000	0.015922  
1286.000000	0.016117  
1285.000000	0.016367  
1284.000000	0.016668  
1283.000000	0.016990  
1282.000000	0.017279  
1281.000000	0.017504  
1280.000000	0.017697  
1279.000000	0.017909  
1278.000000	0.018146  
1277.000000	0.018376  
1276.000000	0.018594  
1275.000000	0.018820  
1274.000000	0.019051  
1273.000000	0.019256  
1272.000000	0.019426  
1271.000000	0.019586  
1270.000000	0.019736  
1269.000000	0.019837  
1268.000000	0.019872  
1267.000000	0.019895  
1266.000000	0.019968  
1265.000000	0.020094  
1264.000000	0.020229  
1263.000000	0.020361  
1262.000000	0.020515  
1261.000000	0.020700  
1260.000000	0.020877  
1259.000000	0.020993  
1258.000000	0.021034  
1257.000000	0.021039  
1256.000000	0.021082  
1255.000000	0.021227  
1254.000000	0.021483  
1253.000000	0.021800  
1252.000000	0.022128  
1251.000000	0.022468  
1250.000000	0.022859  
1249.000000	0.023330  
1248.000000	0.023851  
1247.000000	0.024351  
1246.000000	0.024756  
1245.000000	0.025028  
1244.000000	0.025170  
1243.000000	0.025208  
1242.000000	0.025160  
1241.000000	0.025014  
1240.000000	0.024750  
1239.000000	0.024374  
1238.000000	0.023934  
1237.000000	0.023492  
1236.000000	0.023073  
1235.000000	0.022665  
1234.000000	0.022242  
1233.000000	0.021808  
1232.000000	0.021394  
1231.000000	0.021030  
1230.000000	0.020719  
1229.000000	0.020448  
1228.000000	0.020201  
1227.000000	0.019967  
1226.000000	0.019725  
1225.000000	0.019469  
1224.000000	0.019235  
1223.000000	0.019079  
1222.000000	0.019019  
1221.000000	0.019035  
1220.000000	0.019111  
1219.000000	0.019241  
1218.000000	0.019398  
1217.000000	0.019528  
1216.000000	0.019612  
1215.000000	0.019704  
1214.000000	0.019869  
1213.000000	0.020101  
1212.000000	0.020323  
1211.000000	0.020479  
1210.000000	0.020603  
1209.000000	0.020770  
1208.000000	0.021027  
1207.000000	0.021350  
1206.000000	0.021682  
1205.000000	0.021991  
1204.000000	0.022291  
1203.000000	0.022617  
1202.000000	0.022992  
1201.000000	0.023422  
1200.000000	0.023908  
1199.000000	0.024457  
1198.000000	0.025078  
1197.000000	0.025776  
1196.000000	0.026543  
1195.000000	0.027344  
1194.000000	0.028134  
1193.000000	0.028893  
1192.000000	0.029647  
1191.000000	0.030441  
1190.000000	0.031296  
1189.000000	0.032195  
1188.000000	0.033104  
1187.000000	0.033999  
1186.000000	0.034880  
1185.000000	0.035754  
1184.000000	0.036618  
1183.000000	0.037443  
1182.000000	0.038208  
1181.000000	0.038919  
1180.000000	0.039590  
1179.000000	0.040212  
1178.000000	0.040744  
1177.000000	0.041148  
1176.000000	0.041411  
1175.000000	0.041536  
1174.000000	0.041522  
1173.000000	0.041363  
1172.000000	0.041070  
1171.000000	0.040683  
1170.000000	0.040243  
1169.000000	0.039746  
1168.000000	0.039162  
1167.000000	0.038473  
1166.000000	0.037694  
1165.000000	0.036828  
1164.000000	0.035847  
1163.000000	0.034742  
1162.000000	0.033561  
1161.000000	0.032394  
1160.000000	0.031320  
1159.000000	0.030366  
1158.000000	0.029491  
1157.000000	0.028618  
1156.000000	0.027716  
1155.000000	0.026849  
1154.000000	0.026113  
1153.000000	0.025518  
1152.000000	0.024974  
1151.000000	0.024387  
1150.000000	0.023746  
1149.000000	0.023101  
1148.000000	0.022496  
1147.000000	0.021944  
1146.000000	0.021437  
1145.000000	0.020949  
1144.000000	0.020438  
1143.000000	0.019873  
1142.000000	0.019269  
1141.000000	0.018681  
1140.000000	0.018166  
1139.000000	0.017732  
1138.000000	0.017338  
1137.000000	0.016935  
1136.000000	0.016514  
1135.000000	0.016115  
1134.000000	0.015786  
1133.000000	0.015548  
1132.000000	0.015396  
1131.000000	0.015311  
1130.000000	0.015279  
1129.000000	0.015315  
1128.000000	0.015474  
1127.000000	0.015811  
1126.000000	0.016329  
1125.000000	0.016970  
1124.000000	0.017657  
1123.000000	0.018331  
1122.000000	0.018945  
1121.000000	0.019449  
1120.000000	0.019807  
1119.000000	0.020020  
1118.000000	0.020111  
1117.000000	0.020089  
1116.000000	0.019944  
1115.000000	0.019669  
1114.000000	0.019289  
1113.000000	0.018858  
1112.000000	0.018439  
1111.000000	0.018078  
1110.000000	0.017795  
1109.000000	0.017593  
1108.000000	0.017464  
1107.000000	0.017403  
1106.000000	0.017398  
1105.000000	0.017448  
1104.000000	0.017562  
1103.000000	0.017730  
1102.000000	0.017894  
1101.000000	0.017984  
1100.000000	0.017979  
1099.000000	0.017915  
1098.000000	0.017835  
1097.000000	0.017760  
1096.000000	0.017703  
1095.000000	0.017672  
1094.000000	0.017640  
1093.000000	0.017572  
1092.000000	0.017484  
1091.000000	0.017454  
1090.000000	0.017522  
1089.000000	0.017631  
1088.000000	0.017699  
1087.000000	0.017723  
1086.000000	0.017783  
1085.000000	0.017954  
1084.000000	0.018257  
1083.000000	0.018669  
1082.000000	0.019132  
1081.000000	0.019567  
1080.000000	0.019924  
1079.000000	0.020242  
1078.000000	0.020628  
1077.000000	0.021157  
1076.000000	0.021822  
1075.000000	0.022550  
1074.000000	0.023257  
1073.000000	0.023852  
1072.000000	0.024256  
1071.000000	0.024449  
1070.000000	0.024495  
1069.000000	0.024502  
1068.000000	0.024539  
1067.000000	0.024615  
1066.000000	0.024695  
1065.000000	0.024724  
1064.000000	0.024654  
1063.000000	0.024467  
1062.000000	0.024182  
1061.000000	0.023809  
1060.000000	0.023324  
1059.000000	0.022701  
1058.000000	0.021982  
1057.000000	0.021293  
1056.000000	0.020785  
1055.000000	0.020540  
1054.000000	0.020525  
1053.000000	0.020630  
1052.000000	0.020746  
1051.000000	0.020823  
1050.000000	0.020859  
1049.000000	0.020869  
1048.000000	0.020881  
1047.000000	0.020945  
1046.000000	0.021107  
1045.000000	0.021349  
1044.000000	0.021595  
1043.000000	0.021763  
1042.000000	0.021828  
1041.000000	0.021821  
1040.000000	0.021769  
1039.000000	0.021659  
1038.000000	0.021468  
1037.000000	0.021220  
1036.000000	0.021004  
1035.000000	0.020905  
1034.000000	0.020936  
1033.000000	0.021039  
1032.000000	0.021152  
1031.000000	0.021237  
1030.000000	0.021250  
1029.000000	0.021121  
1028.000000	0.020810  
1027.000000	0.020357  
1026.000000	0.019854  
1025.000000	0.019358  
1024.000000	0.018863  
1023.000000	0.018337  
1022.000000	0.017784  
1021.000000	0.017245  
1020.000000	0.016765  
1019.000000	0.016355  
1018.000000	0.015991  
1017.000000	0.015659  
1016.000000	0.015402  
1015.000000	0.015293  
1014.000000	0.015346  
1013.000000	0.015480  
1012.000000	0.015580  
1011.000000	0.015581  
1010.000000	0.015466  
1009.000000	0.015233  
1008.000000	0.014916  
1007.000000	0.014596  
1006.000000	0.014336  
1005.000000	0.014110  
1004.000000	0.013841  
1003.000000	0.013503  
1002.000000	0.013145  
1001.000000	0.012833  
1000.000000	0.012614  
999.000000	 0.012529  
998.000000	 0.012602  
997.000000	 0.012782  
996.000000	 0.012966  
995.000000	 0.013080  
994.000000	 0.013122  
993.000000	 0.013111  
992.000000	 0.013043  
991.000000	 0.012927  
990.000000	 0.012814  
989.000000	 0.012745  
988.000000	 0.012686  
987.000000	 0.012565  
986.000000	 0.012360  
985.000000	 0.012121  
984.000000	 0.011915  
983.000000	 0.011781  
982.000000	 0.011742  
981.000000	 0.011805  
980.000000	 0.011961  
979.000000	 0.012181  
978.000000	 0.012433  
977.000000	 0.012698  
976.000000	 0.012971  
975.000000	 0.013252  
974.000000	 0.013539  
973.000000	 0.013814  
972.000000	 0.014046  
971.000000	 0.014215  
970.000000	 0.014331  
969.000000	 0.014424  
968.000000	 0.014515  
967.000000	 0.014621  
966.000000	 0.014745  
965.000000	 0.014848  
964.000000	 0.014848  
963.000000	 0.014702  
962.000000	 0.014466  
961.000000	 0.014262  
960.000000	 0.014161  
959.000000	 0.014129  
958.000000	 0.014102  
957.000000	 0.014080  
956.000000	 0.014118  
955.000000	 0.014248  
954.000000	 0.014429  
953.000000	 0.014571  
952.000000	 0.014603  
951.000000	 0.014518  
950.000000	 0.014369  
949.000000	 0.014218  
948.000000	 0.014077  
947.000000	 0.013902  
946.000000	 0.013652  
945.000000	 0.013343  
944.000000	 0.013037  
943.000000	 0.012765  
942.000000	 0.012499  
941.000000	 0.012184  
940.000000	 0.011813  
939.000000	 0.011444  
938.000000	 0.011144  
937.000000	 0.010932  
936.000000	 0.010767  
935.000000	 0.010601  
934.000000	 0.010434  
933.000000	 0.010303  
932.000000	 0.010235  
931.000000	 0.010198  
930.000000	 0.010134  
929.000000	 0.010040  
928.000000	 0.009988  
927.000000	 0.010047  
926.000000	 0.010174  
925.000000	 0.010247  
924.000000	 0.010201  
923.000000	 0.010127  
922.000000	 0.010176  
921.000000	 0.010396  
920.000000	 0.010682  
919.000000	 0.010879  
918.000000	 0.010904  
917.000000	 0.010776  
916.000000	 0.010569  
915.000000	 0.010373  
914.000000	 0.010254  
913.000000	 0.010215  
912.000000	 0.010201  
911.000000	 0.010147  
910.000000	 0.010031  
909.000000	 0.009867  
908.000000	 0.009679  
907.000000	 0.009506  
906.000000	 0.009396  
905.000000	 0.009366  
904.000000	 0.009374  
903.000000	 0.009364  
902.000000	 0.009342  
901.000000	 0.009357  
900.000000	 0.009402  
899.000000	 0.009393  
898.000000	 0.009276  
897.000000	 0.009119  
896.000000	 0.009050  
895.000000	 0.009118  
894.000000	 0.009245  
893.000000	 0.009332  
892.000000	 0.009358  
891.000000	 0.009378  
890.000000	 0.009444  
889.000000	 0.009543  
888.000000	 0.009612  
887.000000	 0.009587  
886.000000	 0.009455  
885.000000	 0.009285  
884.000000	 0.009195  
883.000000	 0.009267  
882.000000	 0.009467  
881.000000	 0.009653  
880.000000	 0.009687  
879.000000	 0.009549  
878.000000	 0.009355  
877.000000	 0.009252  
876.000000	 0.009294  
875.000000	 0.009416  
874.000000	 0.009523  
873.000000	 0.009576  
872.000000	 0.009593  
871.000000	 0.009600  
870.000000	 0.009607  
869.000000	 0.009620  
868.000000	 0.009642  
867.000000	 0.009654  
866.000000	 0.009621  
865.000000	 0.009543  
864.000000	 0.009468  
863.000000	 0.009467  
862.000000	 0.009570  
861.000000	 0.009749  
860.000000	 0.009942  
859.000000	 0.010111  
858.000000	 0.010266  
857.000000	 0.010449  
856.000000	 0.010668  
855.000000	 0.010886  
854.000000	 0.011075  
853.000000	 0.011284  
852.000000	 0.011609  
851.000000	 0.012081  
850.000000	 0.012611  
849.000000	 0.013072  
848.000000	 0.013406  
847.000000	 0.013627  
846.000000	 0.013754  
845.000000	 0.013766  
844.000000	 0.013649  
843.000000	 0.013423  
842.000000	 0.013132  
841.000000	 0.012821  
840.000000	 0.012513  
839.000000	 0.012212  
838.000000	 0.011898  
837.000000	 0.011546  
836.000000	 0.011164  
835.000000	 0.010797  
834.000000	 0.010487  
833.000000	 0.010259  
832.000000	 0.010137  
831.000000	 0.010146  
830.000000	 0.010246  
829.000000	 0.010310  
828.000000	 0.010249  
827.000000	 0.010128  
826.000000	 0.010107  
825.000000	 0.010222  
824.000000	 0.010343  
823.000000	 0.010375  
822.000000	 0.010395  
821.000000	 0.010503  
820.000000	 0.010650  
819.000000	 0.010726  
818.000000	 0.010727  
817.000000	 0.010742  
816.000000	 0.010795  
815.000000	 0.010788  
814.000000	 0.010650  
813.000000	 0.010455  
812.000000	 0.010361  
811.000000	 0.010439  
810.000000	 0.010626  
809.000000	 0.010830  
808.000000	 0.011018  
807.000000	 0.011200  
806.000000	 0.011375  
805.000000	 0.011499  
804.000000	 0.011505  
803.000000	 0.011356  
802.000000	 0.011081  
801.000000	 0.010762  
800.000000	 0.010464  
799.000000	 0.010185  
798.000000	 0.009913  
797.000000	 0.009675  
796.000000	 0.009516  
795.000000	 0.009413  
794.000000	 0.009300  
793.000000	 0.009178  
792.000000	 0.009154  
791.000000	 0.009324  
790.000000	 0.009650  
789.000000	 0.010009  
788.000000	 0.010321  
787.000000	 0.010596  
786.000000	 0.010877  
785.000000	 0.011186  
784.000000	 0.011517  
783.000000	 0.011846  
782.000000	 0.012137  
781.000000	 0.012386  
780.000000	 0.012646  
779.000000	 0.012959  
778.000000	 0.013277  
777.000000	 0.013501  
776.000000	 0.013626  
775.000000	 0.013777  
774.000000	 0.014070  
773.000000	 0.014483  
772.000000	 0.014925  
771.000000	 0.015367  
770.000000	 0.015828  
769.000000	 0.016269  
768.000000	 0.016587  
767.000000	 0.016749  
766.000000	 0.016832  
765.000000	 0.016913  
764.000000	 0.016967  
763.000000	 0.016932  
762.000000	 0.016828  
761.000000	 0.016737  
760.000000	 0.016715  
759.000000	 0.016773  
758.000000	 0.016945  
757.000000	 0.017273  
756.000000	 0.017726  
755.000000	 0.018190  
754.000000	 0.018559  
753.000000	 0.018829  
752.000000	 0.019089  
751.000000	 0.019442  
750.000000	 0.019929  
749.000000	 0.020503  
748.000000	 0.021075  
747.000000	 0.021641  
746.000000	 0.022358  
745.000000	 0.023436  
744.000000	 0.024905  
743.000000	 0.026543  
742.000000	 0.028058  
741.000000	 0.029295  
740.000000	 0.030246  
739.000000	 0.030941  
738.000000	 0.031408  
737.000000	 0.031697  
736.000000	 0.031886  
735.000000	 0.032032  
734.000000	 0.032165  
733.000000	 0.032338  
732.000000	 0.032643  
731.000000	 0.033166  
730.000000	 0.033940  
729.000000	 0.034930  
728.000000	 0.036065  
727.000000	 0.037292  
726.000000	 0.038575  
725.000000	 0.039842  
724.000000	 0.040914  
723.000000	 0.041523  
722.000000	 0.041424  
721.000000	 0.040534  
720.000000	 0.039010  
719.000000	 0.037171  
718.000000	 0.035325  
717.000000	 0.033671  
716.000000	 0.032311  
715.000000	 0.031249  
714.000000	 0.030393  
713.000000	 0.029613  
712.000000	 0.028827  
711.000000	 0.028024  
710.000000	 0.027255  
709.000000	 0.026613  
708.000000	 0.026191  
707.000000	 0.026002  
706.000000	 0.025944  
705.000000	 0.025897  
704.000000	 0.025842  
703.000000	 0.025828  
702.000000	 0.025862  
701.000000	 0.025889  
700.000000	 0.025855  
699.000000	 0.025706  
698.000000	 0.025325  
697.000000	 0.024601  
696.000000	 0.023604  
695.000000	 0.022602  
694.000000	 0.021831  
693.000000	 0.021298  
692.000000	 0.020843  
691.000000	 0.020368  
690.000000	 0.019913  
689.000000	 0.019531  
688.000000	 0.019191  
687.000000	 0.018807  
686.000000	 0.018362  
685.000000	 0.017933  
684.000000	 0.017595  
683.000000	 0.017330  
682.000000	 0.017042  
681.000000	 0.016676  
680.000000	 0.016293  
679.000000	 0.015998  
678.000000	 0.015784  
677.000000	 0.015538  
676.000000	 0.015238  
675.000000	 0.014989  
674.000000	 0.014795  
673.000000	 0.014565  
672.000000	 0.014251  
671.000000	 0.014176  
670.000000	 0.014670  
669.000000	 0.016042  
668.000000	 0.017371  
667.000000	 0.016752  
666.000000	 0.014870  
665.000000	 0.013320  
664.000000	 0.012375  
663.000000	 0.011995  
662.000000	 0.012004  
661.000000	 0.012181  
660.000000	 0.012311  
659.000000	 0.012325  
658.000000	 0.012301  
657.000000	 0.012283  
656.000000	 0.012210  
655.000000	 0.012002  
654.000000	 0.011722  
653.000000	 0.011545  
652.000000	 0.011581  
651.000000	 0.011713  
650.000000	 0.011794  

