PE IR                   SPECTRUM    ASCII       PEDS        1.60        
  -1
NB4-12~2.ASC
17/04/10
13:34:05.00
17/04/10
13:34:05.00
Admin

650.000000
6









SPECTRUM ONE,CPU32 MAIN 00.02.5000 17-APRIL-2002 13:00:00
MIR TGS
MIR
OPTKBR
68128
0.200000

4.000000
STRONG
RATIO
SPECTRUM
MAGNITUDE

DOUBLE

COMBINED


0


#HDR
-1
-1
#GR
CM-1
A
0.00000011920928955078
0.0
4000.000000
-1.000000
3351
8
0.212871
-0.018200
#DATA
4000.000000	0.001240  
3999.000000	0.001256  
3998.000000	0.001373  
3997.000000	0.001571  
3996.000000	0.001785  
3995.000000	0.001952  
3994.000000	0.002042  
3993.000000	0.001798  
3992.000000	0.001730  
3991.000000	0.001630  
3990.000000	0.001536  
3989.000000	0.001460  
3988.000000	0.001387  
3987.000000	0.001300  
3986.000000	0.001221  
3985.000000	0.001194  
3984.000000	0.001225  
3983.000000	0.001254  
3982.000000	0.001211  
3981.000000	0.001099  
3980.000000	0.001004  
3979.000000	0.001011  
3978.000000	0.001123  
3977.000000	0.001273  
3976.000000	0.001396  
3975.000000	0.001473  
3974.000000	0.001516  
3973.000000	0.001523  
3972.000000	0.001488  
3971.000000	0.001430  
3970.000000	0.001387  
3969.000000	0.001367  
3968.000000	0.001332  
3967.000000	0.001238  
3966.000000	0.001105  
3965.000000	0.001018  
3964.000000	0.001060  
3963.000000	0.001232  
3962.000000	0.001454  
3961.000000	0.001635  
3960.000000	0.001728  
3959.000000	0.001730  
3958.000000	0.001650  
3957.000000	0.001501  
3956.000000	0.001314  
3955.000000	0.001144  
3954.000000	0.001048  
3953.000000	0.001044  
3952.000000	0.001103  
3951.000000	0.001170  
3950.000000	0.001213  
3949.000000	0.001252  
3948.000000	0.001332  
3947.000000	0.001458  
3946.000000	0.001565  
3945.000000	0.001574  
3944.000000	0.001468  
3943.000000	0.001313  
3942.000000	0.001192  
3941.000000	0.001138  
3940.000000	0.001149  
3939.000000	0.001227  
3938.000000	0.001370  
3937.000000	0.001541  
3936.000000	0.001663  
3935.000000	0.001684  
3934.000000	0.001625  
3933.000000	0.001560  
3932.000000	0.001537  
3931.000000	0.001540  
3930.000000	0.001536  
3929.000000	0.001520  
3928.000000	0.001529  
3927.000000	0.001591  
3926.000000	0.001696  
3925.000000	0.001797  
3924.000000	0.001854  
3923.000000	0.001870  
3922.000000	0.001881  
3921.000000	0.001906  
3920.000000	0.001923  
3919.000000	0.001888  
3918.000000	0.001791  
3917.000000	0.001673  
3916.000000	0.001593  
3915.000000	0.001575  
3914.000000	0.001589  
3913.000000	0.001585  
3912.000000	0.001528  
3911.000000	0.001435  
3910.000000	0.001372  
3909.000000	0.001409  
3908.000000	0.001562  
3907.000000	0.001786  
3906.000000	0.001997  
3905.000000	0.002136  
3904.000000	0.002185  
3903.000000	0.002136  
3902.000000	0.001995  
3901.000000	0.001819  
3900.000000	0.001706  
3899.000000	0.001709  
3898.000000	0.001771  
3897.000000	0.001783  
3896.000000	0.001691  
3895.000000	0.001521  
3894.000000	0.001362  
3893.000000	0.001301  
3892.000000	0.001364  
3891.000000	0.001482  
3890.000000	0.001556  
3889.000000	0.001546  
3888.000000	0.001475  
3887.000000	0.001389  
3886.000000	0.001334  
3885.000000	0.001317  
3884.000000	0.001308  
3883.000000	0.001291  
3882.000000	0.001283  
3881.000000	0.001320  
3880.000000	0.001400  
3879.000000	0.001485  
3878.000000	0.001547  
3877.000000	0.001589  
3876.000000	0.001634  
3875.000000	0.001715  
3874.000000	0.001850  
3873.000000	0.002014  
3872.000000	0.002173  
3871.000000	0.002327  
3870.000000	0.002496  
3869.000000	0.002650  
3868.000000	0.002723  
3867.000000	0.002680  
3866.000000	0.002531  
3865.000000	0.002324  
3864.000000	0.002140  
3863.000000	0.002037  
3862.000000	0.002019  
3861.000000	0.002029  
3860.000000	0.002019  
3859.000000	0.001992  
3858.000000	0.002003  
3857.000000	0.002081  
3856.000000	0.002167  
3855.000000	0.002139  
3854.000000	0.002012  
3853.000000	0.001895  
3852.000000	0.001803  
3851.000000	0.001739  
3850.000000	0.001754  
3849.000000	0.001878  
3848.000000	0.002092  
3847.000000	0.002339  
3846.000000	0.002572  
3845.000000	0.002795  
3844.000000	0.003036  
3843.000000	0.003282  
3842.000000	0.003471  
3841.000000	0.003540  
3840.000000	0.003462  
3839.000000	0.003253  
3838.000000	0.002964  
3837.000000	0.002685  
3836.000000	0.002523  
3835.000000	0.002542  
3834.000000	0.002707  
3833.000000	0.002882  
3832.000000	0.002916  
3831.000000	0.002767  
3830.000000	0.002517  
3829.000000	0.002281  
3828.000000	0.002122  
3827.000000	0.002043  
3826.000000	0.002052  
3825.000000	0.002184  
3824.000000	0.002472  
3823.000000	0.002857  
3822.000000	0.003181  
3821.000000	0.003274  
3820.000000	0.003072  
3819.000000	0.002666  
3818.000000	0.002227  
3817.000000	0.001916  
3816.000000	0.001796  
3815.000000	0.001794  
3814.000000	0.001799  
3813.000000	0.001779  
3812.000000	0.001755  
3811.000000	0.001746  
3810.000000	0.001741  
3809.000000	0.001725  
3808.000000	0.001733  
3807.000000	0.001839  
3806.000000	0.002066  
3805.000000	0.002355  
3804.000000	0.002592  
3803.000000	0.002644  
3802.000000	0.002480  
3801.000000	0.002223  
3800.000000	0.002026  
3799.000000	0.001962  
3798.000000	0.002019  
3797.000000	0.002137  
3796.000000	0.002245  
3795.000000	0.002289  
3794.000000	0.002252  
3793.000000	0.002149  
3792.000000	0.002010  
3791.000000	0.001867  
3790.000000	0.001752  
3789.000000	0.001680  
3788.000000	0.001644  
3787.000000	0.001627  
3786.000000	0.001617  
3785.000000	0.001615  
3784.000000	0.001626  
3783.000000	0.001645  
3782.000000	0.001657  
3781.000000	0.001650  
3780.000000	0.001636  
3779.000000	0.001636  
3778.000000	0.001655  
3777.000000	0.001673  
3776.000000	0.001677  
3775.000000	0.001661  
3774.000000	0.001635  
3773.000000	0.001616  
3772.000000	0.001634  
3771.000000	0.001729  
3770.000000	0.001908  
3769.000000	0.002102  
3768.000000	0.002187  
3767.000000	0.002087  
3766.000000	0.001837  
3765.000000	0.001571  
3764.000000	0.001423  
3763.000000	0.001434  
3762.000000	0.001552  
3761.000000	0.001695  
3760.000000	0.001822  
3759.000000	0.001953  
3758.000000	0.002100  
3757.000000	0.002215  
3756.000000	0.002244  
3755.000000	0.002225  
3754.000000	0.002336  
3753.000000	0.002776  
3752.000000	0.003483  
3751.000000	0.004017  
3750.000000	0.003980  
3749.000000	0.003479  
3748.000000	0.002907  
3747.000000	0.002580  
3746.000000	0.002623  
3745.000000	0.002947  
3744.000000	0.003261  
3743.000000	0.003356  
3742.000000	0.003296  
3741.000000	0.003275  
3740.000000	0.003430  
3739.000000	0.003770  
3738.000000	0.004143  
3737.000000	0.004336  
3736.000000	0.004231  
3735.000000	0.003916  
3734.000000	0.003601  
3733.000000	0.003428  
3732.000000	0.003391  
3731.000000	0.003411  
3730.000000	0.003434  
3729.000000	0.003424  
3728.000000	0.003322  
3727.000000	0.003097  
3726.000000	0.002822  
3725.000000	0.002617  
3724.000000	0.002522  
3723.000000	0.002469  
3722.000000	0.002354  
3721.000000	0.002124  
3720.000000	0.001825  
3719.000000	0.001540  
3718.000000	0.001282  
3717.000000	0.001025  
3716.000000	0.000782  
3715.000000	0.000676  
3714.000000	0.000839  
3713.000000	0.001321  
3712.000000	0.002015  
3711.000000	0.002643  
3710.000000	0.002964  
3709.000000	0.002948  
3708.000000	0.002800  
3707.000000	0.002714  
3706.000000	0.002764  
3705.000000	0.002805  
3704.000000	0.002622  
3703.000000	0.002149  
3702.000000	0.001599  
3701.000000	0.001262  
3700.000000	0.001207  
3699.000000	0.001296  
3698.000000	0.001353  
3697.000000	0.001359  
3696.000000	0.001393  
3695.000000	0.001551  
3694.000000	0.001804  
3693.000000	0.002039  
3692.000000	0.002136  
3691.000000	0.002088  
3690.000000	0.002025  
3689.000000	0.002021  
3688.000000	0.002029  
3687.000000	0.001956  
3686.000000	0.001836  
3685.000000	0.001757  
3684.000000	0.001803  
3683.000000	0.001950  
3682.000000	0.002086  
3681.000000	0.002112  
3680.000000	0.002032  
3679.000000	0.001946  
3678.000000	0.001952  
3677.000000	0.002098  
3676.000000	0.002360  
3675.000000	0.002613  
3674.000000	0.002727  
3673.000000	0.002696  
3672.000000	0.002588  
3671.000000	0.002465  
3670.000000	0.002377  
3669.000000	0.002327  
3668.000000	0.002271  
3667.000000	0.002180  
3666.000000	0.002040  
3665.000000	0.001817  
3664.000000	0.001484  
3663.000000	0.001066  
3662.000000	0.000650  
3661.000000	0.000350  
3660.000000	0.000243  
3659.000000	0.000348  
3658.000000	0.000649  
3657.000000	0.001088  
3656.000000	0.001567  
3655.000000	0.001970  
3654.000000	0.002226  
3653.000000	0.002301  
3652.000000	0.002193  
3651.000000	0.001990  
3650.000000	0.001874  
3649.000000	0.001942  
3648.000000	0.002094  
3647.000000	0.002193  
3646.000000	0.002188  
3645.000000	0.002107  
3644.000000	0.002023  
3643.000000	0.002027  
3642.000000	0.002164  
3641.000000	0.002389  
3640.000000	0.002576  
3639.000000	0.002621  
3638.000000	0.002526  
3637.000000	0.002399  
3636.000000	0.002365  
3635.000000	0.002471  
3634.000000	0.002653  
3633.000000	0.002794  
3632.000000	0.002812  
3631.000000	0.002754  
3630.000000	0.002781  
3629.000000	0.002966  
3628.000000	0.003110  
3627.000000	0.003032  
3626.000000	0.002796  
3625.000000	0.002579  
3624.000000	0.002473  
3623.000000	0.002407  
3622.000000	0.002217  
3621.000000	0.001828  
3620.000000	0.001405  
3619.000000	0.001209  
3618.000000	0.001303  
3617.000000	0.001495  
3616.000000	0.001539  
3615.000000	0.001347  
3614.000000	0.001086  
3613.000000	0.001057  
3612.000000	0.001413  
3611.000000	0.002042  
3610.000000	0.002666  
3609.000000	0.003011  
3608.000000	0.002999  
3607.000000	0.002727  
3606.000000	0.002362  
3605.000000	0.002028  
3604.000000	0.001818  
3603.000000	0.001792  
3602.000000	0.001954  
3601.000000	0.002261  
3600.000000	0.002607  
3599.000000	0.002882  
3598.000000	0.002985  
3597.000000	0.002896  
3596.000000	0.002665  
3595.000000	0.002420  
3594.000000	0.002250  
3593.000000	0.002154  
3592.000000	0.002063  
3591.000000	0.001933  
3590.000000	0.001808  
3589.000000	0.001795  
3588.000000	0.001985  
3587.000000	0.002298  
3586.000000	0.002544  
3585.000000	0.002568  
3584.000000	0.002357  
3583.000000	0.002022  
3582.000000	0.001732  
3581.000000	0.001645  
3580.000000	0.001769  
3579.000000	0.001975  
3578.000000	0.002063  
3577.000000	0.001951  
3576.000000	0.001713  
3575.000000	0.001508  
3574.000000	0.001407  
3573.000000	0.001362  
3572.000000	0.001286  
3571.000000	0.001175  
3570.000000	0.001125  
3569.000000	0.001244  
3568.000000	0.001523  
3567.000000	0.001806  
3566.000000	0.001957  
3565.000000	0.001989  
3564.000000	0.001979  
3563.000000	0.001959  
3562.000000	0.001911  
3561.000000	0.001839  
3560.000000	0.001802  
3559.000000	0.001868  
3558.000000	0.002019  
3557.000000	0.002144  
3556.000000	0.002119  
3555.000000	0.001906  
3554.000000	0.001601  
3553.000000	0.001364  
3552.000000	0.001299  
3551.000000	0.001382  
3550.000000	0.001500  
3549.000000	0.001559  
3548.000000	0.001549  
3547.000000	0.001533  
3546.000000	0.001579  
3545.000000	0.001688  
3544.000000	0.001797  
3543.000000	0.001856  
3542.000000	0.001888  
3541.000000	0.001960  
3540.000000	0.002091  
3539.000000	0.002201  
3538.000000	0.002158  
3537.000000	0.001903  
3536.000000	0.001535  
3535.000000	0.001250  
3534.000000	0.001191  
3533.000000	0.001359  
3532.000000	0.001644  
3531.000000	0.001908  
3530.000000	0.002058  
3529.000000	0.002083  
3528.000000	0.002044  
3527.000000	0.002012  
3526.000000	0.002000  
3525.000000	0.001955  
3524.000000	0.001837  
3523.000000	0.001692  
3522.000000	0.001623  
3521.000000	0.001668  
3520.000000	0.001767  
3519.000000	0.001833  
3518.000000	0.001846  
3517.000000	0.001853  
3516.000000	0.001904  
3515.000000	0.002009  
3514.000000	0.002138  
3513.000000	0.002245  
3512.000000	0.002296  
3511.000000	0.002287  
3510.000000	0.002247  
3509.000000	0.002201  
3508.000000	0.002139  
3507.000000	0.002049  
3506.000000	0.001961  
3505.000000	0.001938  
3504.000000	0.002009  
3503.000000	0.002132  
3502.000000	0.002234  
3501.000000	0.002273  
3500.000000	0.002262  
3499.000000	0.002249  
3498.000000	0.002270  
3497.000000	0.002326  
3496.000000	0.002378  
3495.000000	0.002400  
3494.000000	0.002402  
3493.000000	0.002393  
3492.000000	0.002346  
3491.000000	0.002222  
3490.000000	0.002054  
3489.000000	0.001942  
3488.000000	0.001965  
3487.000000	0.002119  
3486.000000	0.002348  
3485.000000	0.002589  
3484.000000	0.002765  
3483.000000	0.002792  
3482.000000	0.002638  
3481.000000	0.002377  
3480.000000	0.002138  
3479.000000	0.001999  
3478.000000	0.001954  
3477.000000	0.001966  
3476.000000	0.002005  
3475.000000	0.002056  
3474.000000	0.002111  
3473.000000	0.002159  
3472.000000	0.002172  
3471.000000	0.002111  
3470.000000	0.001969  
3469.000000	0.001808  
3468.000000	0.001728  
3467.000000	0.001788  
3466.000000	0.001952  
3465.000000	0.002117  
3464.000000	0.002171  
3463.000000	0.002065  
3462.000000	0.001862  
3461.000000	0.001700  
3460.000000	0.001685  
3459.000000	0.001806  
3458.000000	0.001969  
3457.000000	0.002087  
3456.000000	0.002133  
3455.000000	0.002120  
3454.000000	0.002090  
3453.000000	0.002100  
3452.000000	0.002187  
3451.000000	0.002320  
3450.000000	0.002417  
3449.000000	0.002432  
3448.000000	0.002406  
3447.000000	0.002412  
3446.000000	0.002477  
3445.000000	0.002572  
3444.000000	0.002656  
3443.000000	0.002702  
3442.000000	0.002713  
3441.000000	0.002725  
3440.000000	0.002785  
3439.000000	0.002898  
3438.000000	0.002989  
3437.000000	0.002956  
3436.000000	0.002757  
3435.000000	0.002460  
3434.000000	0.002207  
3433.000000	0.002124  
3432.000000	0.002231  
3431.000000	0.002423  
3430.000000	0.002542  
3429.000000	0.002492  
3428.000000	0.002288  
3427.000000	0.002016  
3426.000000	0.001770  
3425.000000	0.001621  
3424.000000	0.001605  
3423.000000	0.001711  
3422.000000	0.001886  
3421.000000	0.002064  
3420.000000	0.002196  
3419.000000	0.002264  
3418.000000	0.002289  
3417.000000	0.002328  
3416.000000	0.002423  
3415.000000	0.002548  
3414.000000	0.002629  
3413.000000	0.002629  
3412.000000	0.002596  
3411.000000	0.002591  
3410.000000	0.002609  
3409.000000	0.002578  
3408.000000	0.002453  
3407.000000	0.002263  
3406.000000	0.002095  
3405.000000	0.002024  
3404.000000	0.002074  
3403.000000	0.002213  
3402.000000	0.002393  
3401.000000	0.002578  
3400.000000	0.002734  
3399.000000	0.002813  
3398.000000	0.002781  
3397.000000	0.002679  
3396.000000	0.002619  
3395.000000	0.002697  
3394.000000	0.002897  
3393.000000	0.003105  
3392.000000	0.003197  
3391.000000	0.003126  
3390.000000	0.002942  
3389.000000	0.002752  
3388.000000	0.002640  
3387.000000	0.002602  
3386.000000	0.002560  
3385.000000	0.002467  
3384.000000	0.002388  
3383.000000	0.002425  
3382.000000	0.002597  
3381.000000	0.002811  
3380.000000	0.002957  
3379.000000	0.002988  
3378.000000	0.002899  
3377.000000	0.002690  
3376.000000	0.002398  
3375.000000	0.002132  
3374.000000	0.002022  
3373.000000	0.002102  
3372.000000	0.002283  
3371.000000	0.002451  
3370.000000	0.002571  
3369.000000	0.002678  
3368.000000	0.002793  
3367.000000	0.002888  
3366.000000	0.002937  
3365.000000	0.002964  
3364.000000	0.002995  
3363.000000	0.003010  
3362.000000	0.002975  
3361.000000	0.002910  
3360.000000	0.002883  
3359.000000	0.002926  
3358.000000	0.002992  
3357.000000	0.003022  
3356.000000	0.003012  
3355.000000	0.002988  
3354.000000	0.002944  
3353.000000	0.002866  
3352.000000	0.002779  
3351.000000	0.002737  
3350.000000	0.002759  
3349.000000	0.002817  
3348.000000	0.002894  
3347.000000	0.003006  
3346.000000	0.003144  
3345.000000	0.003237  
3344.000000	0.003213  
3343.000000	0.003085  
3342.000000	0.002937  
3341.000000	0.002827  
3340.000000	0.002730  
3339.000000	0.002590  
3338.000000	0.002423  
3337.000000	0.002329  
3336.000000	0.002389  
3335.000000	0.002575  
3334.000000	0.002756  
3333.000000	0.002824  
3332.000000	0.002775  
3331.000000	0.002683  
3330.000000	0.002622  
3329.000000	0.002626  
3328.000000	0.002692  
3327.000000	0.002790  
3326.000000	0.002855  
3325.000000	0.002838  
3324.000000	0.002756  
3323.000000	0.002685  
3322.000000	0.002677  
3321.000000	0.002715  
3320.000000	0.002751  
3319.000000	0.002783  
3318.000000	0.002852  
3317.000000	0.002964  
3316.000000	0.003044  
3315.000000	0.002994  
3314.000000	0.002794  
3313.000000	0.002550  
3312.000000	0.002422  
3311.000000	0.002498  
3310.000000	0.002721  
3309.000000	0.002934  
3308.000000	0.002982  
3307.000000	0.002820  
3306.000000	0.002555  
3305.000000	0.002390  
3304.000000	0.002471  
3303.000000	0.002769  
3302.000000	0.003106  
3301.000000	0.003313  
3300.000000	0.003343  
3299.000000	0.003241  
3298.000000	0.003059  
3297.000000	0.002847  
3296.000000	0.002679  
3295.000000	0.002625  
3294.000000	0.002684  
3293.000000	0.002787  
3292.000000	0.002884  
3291.000000	0.002968  
3290.000000	0.003025  
3289.000000	0.003008  
3288.000000	0.002901  
3287.000000	0.002765  
3286.000000	0.002672  
3285.000000	0.002629  
3284.000000	0.002592  
3283.000000	0.002544  
3282.000000	0.002522  
3281.000000	0.002565  
3280.000000	0.002661  
3279.000000	0.002763  
3278.000000	0.002835  
3277.000000	0.002881  
3276.000000	0.002934  
3275.000000	0.003026  
3274.000000	0.003163  
3273.000000	0.003308  
3272.000000	0.003399  
3271.000000	0.003385  
3270.000000	0.003268  
3269.000000	0.003091  
3268.000000	0.002900  
3267.000000	0.002715  
3266.000000	0.002551  
3265.000000	0.002453  
3264.000000	0.002482  
3263.000000	0.002638  
3262.000000	0.002840  
3261.000000	0.002992  
3260.000000	0.003069  
3259.000000	0.003111  
3258.000000	0.003147  
3257.000000	0.003158  
3256.000000	0.003110  
3255.000000	0.003011  
3254.000000	0.002928  
3253.000000	0.002947  
3252.000000	0.003097  
3251.000000	0.003300  
3250.000000	0.003425  
3249.000000	0.003413  
3248.000000	0.003332  
3247.000000	0.003279  
3246.000000	0.003251  
3245.000000	0.003178  
3244.000000	0.003057  
3243.000000	0.002980  
3242.000000	0.003008  
3241.000000	0.003083  
3240.000000	0.003101  
3239.000000	0.003016  
3238.000000	0.002851  
3237.000000	0.002646  
3236.000000	0.002443  
3235.000000	0.002283  
3234.000000	0.002193  
3233.000000	0.002185  
3232.000000	0.002276  
3231.000000	0.002475  
3230.000000	0.002727  
3229.000000	0.002912  
3228.000000	0.002957  
3227.000000	0.002911  
3226.000000	0.002886  
3225.000000	0.002939  
3224.000000	0.003034  
3223.000000	0.003107  
3222.000000	0.003108  
3221.000000	0.003015  
3220.000000	0.002846  
3219.000000	0.002675  
3218.000000	0.002595  
3217.000000	0.002645  
3216.000000	0.002790  
3215.000000	0.002961  
3214.000000	0.003093  
3213.000000	0.003148  
3212.000000	0.003136  
3211.000000	0.003112  
3210.000000	0.003120  
3209.000000	0.003152  
3208.000000	0.003180  
3207.000000	0.003209  
3206.000000	0.003265  
3205.000000	0.003347  
3204.000000	0.003424  
3203.000000	0.003479  
3202.000000	0.003505  
3201.000000	0.003467  
3200.000000	0.003316  
3199.000000	0.003055  
3198.000000	0.002767  
3197.000000	0.002532  
3196.000000	0.002367  
3195.000000	0.002257  
3194.000000	0.002205  
3193.000000	0.002230  
3192.000000	0.002329  
3191.000000	0.002476  
3190.000000	0.002664  
3189.000000	0.002891  
3188.000000	0.003117  
3187.000000	0.003268  
3186.000000	0.003302  
3185.000000	0.003256  
3184.000000	0.003204  
3183.000000	0.003173  
3182.000000	0.003121  
3181.000000	0.003006  
3180.000000	0.002847  
3179.000000	0.002698  
3178.000000	0.002604  
3177.000000	0.002588  
3176.000000	0.002676  
3175.000000	0.002878  
3174.000000	0.003130  
3173.000000	0.003315  
3172.000000	0.003347  
3171.000000	0.003242  
3170.000000	0.003083  
3169.000000	0.002955  
3168.000000	0.002897  
3167.000000	0.002906  
3166.000000	0.002954  
3165.000000	0.003009  
3164.000000	0.003069  
3163.000000	0.003143  
3162.000000	0.003202  
3161.000000	0.003189  
3160.000000	0.003088  
3159.000000	0.002967  
3158.000000	0.002914  
3157.000000	0.002949  
3156.000000	0.003035  
3155.000000	0.003146  
3154.000000	0.003275  
3153.000000	0.003392  
3152.000000	0.003440  
3151.000000	0.003369  
3150.000000	0.003186  
3149.000000	0.002948  
3148.000000	0.002735  
3147.000000	0.002606  
3146.000000	0.002570  
3145.000000	0.002583  
3144.000000	0.002602  
3143.000000	0.002623  
3142.000000	0.002657  
3141.000000	0.002693  
3140.000000	0.002715  
3139.000000	0.002747  
3138.000000	0.002833  
3137.000000	0.002971  
3136.000000	0.003090  
3135.000000	0.003116  
3134.000000	0.003036  
3133.000000	0.002922  
3132.000000	0.002877  
3131.000000	0.002954  
3130.000000	0.003100  
3129.000000	0.003195  
3128.000000	0.003162  
3127.000000	0.003031  
3126.000000	0.002893  
3125.000000	0.002812  
3124.000000	0.002813  
3123.000000	0.002905  
3122.000000	0.003069  
3121.000000	0.003230  
3120.000000	0.003300  
3119.000000	0.003249  
3118.000000	0.003123  
3117.000000	0.002980  
3116.000000	0.002860  
3115.000000	0.002800  
3114.000000	0.002822  
3113.000000	0.002899  
3112.000000	0.002976  
3111.000000	0.003036  
3110.000000	0.003104  
3109.000000	0.003179  
3108.000000	0.003197  
3107.000000	0.003104  
3106.000000	0.002937  
3105.000000	0.002792  
3104.000000	0.002751  
3103.000000	0.002829  
3102.000000	0.002980  
3101.000000	0.003114  
3100.000000	0.003134  
3099.000000	0.003003  
3098.000000	0.002780  
3097.000000	0.002589  
3096.000000	0.002536  
3095.000000	0.002644  
3094.000000	0.002846  
3093.000000	0.003040  
3092.000000	0.003158  
3091.000000	0.003212  
3090.000000	0.003256  
3089.000000	0.003309  
3088.000000	0.003344  
3087.000000	0.003349  
3086.000000	0.003352  
3085.000000	0.003372  
3084.000000	0.003377  
3083.000000	0.003328  
3082.000000	0.003259  
3081.000000	0.003263  
3080.000000	0.003396  
3079.000000	0.003612  
3078.000000	0.003814  
3077.000000	0.003926  
3076.000000	0.003935  
3075.000000	0.003865  
3074.000000	0.003753  
3073.000000	0.003643  
3072.000000	0.003589  
3071.000000	0.003638  
3070.000000	0.003782  
3069.000000	0.003948  
3068.000000	0.004038  
3067.000000	0.004014  
3066.000000	0.003930  
3065.000000	0.003890  
3064.000000	0.003957  
3063.000000	0.004112  
3062.000000	0.004266  
3061.000000	0.004336  
3060.000000	0.004306  
3059.000000	0.004235  
3058.000000	0.004190  
3057.000000	0.004174  
3056.000000	0.004151  
3055.000000	0.004127  
3054.000000	0.004153  
3053.000000	0.004243  
3052.000000	0.004326  
3051.000000	0.004329  
3050.000000	0.004277  
3049.000000	0.004277  
3048.000000	0.004394  
3047.000000	0.004587  
3046.000000	0.004755  
3045.000000	0.004816  
3044.000000	0.004755  
3043.000000	0.004610  
3042.000000	0.004447  
3041.000000	0.004338  
3040.000000	0.004337  
3039.000000	0.004459  
3038.000000	0.004660  
3037.000000	0.004846  
3036.000000	0.004933  
3035.000000	0.004903  
3034.000000	0.004813  
3033.000000	0.004739  
3032.000000	0.004737  
3031.000000	0.004841  
3030.000000	0.005062  
3029.000000	0.005359  
3028.000000	0.005648  
3027.000000	0.005864  
3026.000000	0.006017  
3025.000000	0.006170  
3024.000000	0.006379  
3023.000000	0.006654  
3022.000000	0.006948  
3021.000000	0.007178  
3020.000000	0.007279  
3019.000000	0.007292  
3018.000000	0.007357  
3017.000000	0.007594  
3016.000000	0.007991  
3015.000000	0.008430  
3014.000000	0.008813  
3013.000000	0.009103  
3012.000000	0.009287  
3011.000000	0.009355  
3010.000000	0.009347  
3009.000000	0.009358  
3008.000000	0.009463  
3007.000000	0.009648  
3006.000000	0.009812  
3005.000000	0.009847  
3004.000000	0.009704  
3003.000000	0.009437  
3002.000000	0.009191  
3001.000000	0.009122  
3000.000000	0.009288  
2999.000000	0.009599  
2998.000000	0.009887  
2997.000000	0.010029  
2996.000000	0.010022  
2995.000000	0.009976  
2994.000000	0.010042  
2993.000000	0.010334  
2992.000000	0.010855  
2991.000000	0.011506  
2990.000000	0.012164  
2989.000000	0.012770  
2988.000000	0.013354  
2987.000000	0.013996  
2986.000000	0.014765  
2985.000000	0.015674  
2984.000000	0.016683  
2983.000000	0.017754  
2982.000000	0.018899  
2981.000000	0.020177  
2980.000000	0.021635  
2979.000000	0.023277  
2978.000000	0.025107  
2977.000000	0.027176  
2976.000000	0.029570  
2975.000000	0.032358  
2974.000000	0.035555  
2973.000000	0.039124  
2972.000000	0.042992  
2971.000000	0.047095  
2970.000000	0.051442  
2969.000000	0.056132  
2968.000000	0.061256  
2967.000000	0.066764  
2966.000000	0.072445  
2965.000000	0.078070  
2964.000000	0.083520  
2963.000000	0.088764  
2962.000000	0.093765  
2961.000000	0.098455  
2960.000000	0.102782  
2959.000000	0.106694  
2958.000000	0.110080  
2957.000000	0.112775  
2956.000000	0.114647  
2955.000000	0.115649  
2954.000000	0.115782  
2953.000000	0.115061  
2952.000000	0.113565  
2951.000000	0.111488  
2950.000000	0.109109  
2949.000000	0.106706  
2948.000000	0.104494  
2947.000000	0.102630  
2946.000000	0.101246  
2945.000000	0.100478  
2944.000000	0.100462  
2943.000000	0.101311  
2942.000000	0.103088  
2941.000000	0.105792  
2940.000000	0.109365  
2939.000000	0.113714  
2938.000000	0.118749  
2937.000000	0.124386  
2936.000000	0.130545  
2935.000000	0.137126  
2934.000000	0.144024  
2933.000000	0.151178  
2932.000000	0.158585  
2931.000000	0.166214  
2930.000000	0.173926  
2929.000000	0.181497  
2928.000000	0.188701  
2927.000000	0.195330  
2926.000000	0.201164  
2925.000000	0.205996  
2924.000000	0.209667  
2923.000000	0.212024  
2922.000000	0.212871  
2921.000000	0.212098  
2920.000000	0.209854  
2919.000000	0.206493  
2918.000000	0.202334  
2917.000000	0.197549  
2916.000000	0.192286  
2915.000000	0.186762  
2914.000000	0.181195  
2913.000000	0.175699  
2912.000000	0.170333  
2911.000000	0.165194  
2910.000000	0.160403  
2909.000000	0.155970  
2908.000000	0.151743  
2907.000000	0.147519  
2906.000000	0.143211  
2905.000000	0.138886  
2904.000000	0.134677  
2903.000000	0.130665  
2902.000000	0.126850  
2901.000000	0.123187  
2900.000000	0.119614  
2899.000000	0.116059  
2898.000000	0.112486  
2897.000000	0.108933  
2896.000000	0.105492  
2895.000000	0.102223  
2894.000000	0.099092  
2893.000000	0.095995  
2892.000000	0.092843  
2891.000000	0.089623  
2890.000000	0.086425  
2889.000000	0.083410  
2888.000000	0.080737  
2887.000000	0.078480  
2886.000000	0.076631  
2885.000000	0.075164  
2884.000000	0.074091  
2883.000000	0.073458  
2882.000000	0.073311  
2881.000000	0.073691  
2880.000000	0.074663  
2879.000000	0.076309  
2878.000000	0.078663  
2877.000000	0.081632  
2876.000000	0.084976  
2875.000000	0.088368  
2874.000000	0.091476  
2873.000000	0.094036  
2872.000000	0.095882  
2871.000000	0.096972  
2870.000000	0.097404  
2869.000000	0.097428  
2868.000000	0.097384  
2867.000000	0.097584  
2866.000000	0.098241  
2865.000000	0.099478  
2864.000000	0.101382  
2863.000000	0.103993  
2862.000000	0.107271  
2861.000000	0.111110  
2860.000000	0.115402  
2859.000000	0.120029  
2858.000000	0.124777  
2857.000000	0.129275  
2856.000000	0.133042  
2855.000000	0.135595  
2854.000000	0.136553  
2853.000000	0.135720  
2852.000000	0.133134  
2851.000000	0.129035  
2850.000000	0.123751  
2849.000000	0.117595  
2848.000000	0.110853  
2847.000000	0.103816  
2846.000000	0.096777  
2845.000000	0.089951  
2844.000000	0.083398  
2843.000000	0.077043  
2842.000000	0.070824  
2841.000000	0.064796  
2840.000000	0.059105  
2839.000000	0.053884  
2838.000000	0.049194  
2837.000000	0.045040  
2836.000000	0.041371  
2835.000000	0.038079  
2834.000000	0.035049  
2833.000000	0.032237  
2832.000000	0.029693  
2831.000000	0.027491  
2830.000000	0.025651  
2829.000000	0.024127  
2828.000000	0.022831  
2827.000000	0.021677  
2826.000000	0.020601  
2825.000000	0.019577  
2824.000000	0.018613  
2823.000000	0.017734  
2822.000000	0.016964  
2821.000000	0.016320  
2820.000000	0.015791  
2819.000000	0.015319  
2818.000000	0.014832  
2817.000000	0.014295  
2816.000000	0.013735  
2815.000000	0.013198  
2814.000000	0.012709  
2813.000000	0.012262  
2812.000000	0.011843  
2811.000000	0.011449  
2810.000000	0.011095  
2809.000000	0.010819  
2808.000000	0.010653  
2807.000000	0.010582  
2806.000000	0.010537  
2805.000000	0.010438  
2804.000000	0.010248  
2803.000000	0.009976  
2802.000000	0.009658  
2801.000000	0.009339  
2800.000000	0.009062  
2799.000000	0.008855  
2798.000000	0.008726  
2797.000000	0.008666  
2796.000000	0.008651  
2795.000000	0.008629  
2794.000000	0.008518  
2793.000000	0.008246  
2792.000000	0.007827  
2791.000000	0.007370  
2790.000000	0.007028  
2789.000000	0.006891  
2788.000000	0.006931  
2787.000000	0.007029  
2786.000000	0.007067  
2785.000000	0.007001  
2784.000000	0.006864  
2783.000000	0.006712  
2782.000000	0.006587  
2781.000000	0.006527  
2780.000000	0.006552  
2779.000000	0.006626  
2778.000000	0.006640  
2777.000000	0.006493  
2776.000000	0.006187  
2775.000000	0.005840  
2774.000000	0.005596  
2773.000000	0.005529  
2772.000000	0.005608  
2771.000000	0.005742  
2770.000000	0.005832  
2769.000000	0.005819  
2768.000000	0.005695  
2767.000000	0.005495  
2766.000000	0.005281  
2765.000000	0.005127  
2764.000000	0.005083  
2763.000000	0.005142  
2762.000000	0.005238  
2761.000000	0.005294  
2760.000000	0.005284  
2759.000000	0.005228  
2758.000000	0.005155  
2757.000000	0.005074  
2756.000000	0.004994  
2755.000000	0.004936  
2754.000000	0.004912  
2753.000000	0.004914  
2752.000000	0.004918  
2751.000000	0.004910  
2750.000000	0.004893  
2749.000000	0.004875  
2748.000000	0.004855  
2747.000000	0.004811  
2746.000000	0.004728  
2745.000000	0.004627  
2744.000000	0.004568  
2743.000000	0.004591  
2742.000000	0.004680  
2741.000000	0.004791  
2740.000000	0.004904  
2739.000000	0.005021  
2738.000000	0.005124  
2737.000000	0.005182  
2736.000000	0.005210  
2735.000000	0.005269  
2734.000000	0.005388  
2733.000000	0.005515  
2732.000000	0.005572  
2731.000000	0.005539  
2730.000000	0.005468  
2729.000000	0.005424  
2728.000000	0.005436  
2727.000000	0.005478  
2726.000000	0.005493  
2725.000000	0.005436  
2724.000000	0.005321  
2723.000000	0.005212  
2722.000000	0.005161  
2721.000000	0.005171  
2720.000000	0.005208  
2719.000000	0.005233  
2718.000000	0.005209  
2717.000000	0.005127  
2716.000000	0.005021  
2715.000000	0.004946  
2714.000000	0.004907  
2713.000000	0.004844  
2712.000000	0.004719  
2711.000000	0.004577  
2710.000000	0.004497  
2709.000000	0.004487  
2708.000000	0.004485  
2707.000000	0.004445  
2706.000000	0.004391  
2705.000000	0.004353  
2704.000000	0.004319  
2703.000000	0.004256  
2702.000000	0.004165  
2701.000000	0.004077  
2700.000000	0.004013  
2699.000000	0.003974  
2698.000000	0.003957  
2697.000000	0.003963  
2696.000000	0.003990  
2695.000000	0.004035  
2694.000000	0.004085  
2693.000000	0.004125  
2692.000000	0.004140  
2691.000000	0.004141  
2690.000000	0.004175  
2689.000000	0.004299  
2688.000000	0.004521  
2687.000000	0.004764  
2686.000000	0.004918  
2685.000000	0.004929  
2684.000000	0.004852  
2683.000000	0.004782  
2682.000000	0.004763  
2681.000000	0.004755  
2680.000000	0.004706  
2679.000000	0.004624  
2678.000000	0.004562  
2677.000000	0.004572  
2676.000000	0.004662  
2675.000000	0.004796  
2674.000000	0.004908  
2673.000000	0.004934  
2672.000000	0.004859  
2671.000000	0.004730  
2670.000000	0.004615  
2669.000000	0.004562  
2668.000000	0.004584  
2667.000000	0.004677  
2666.000000	0.004815  
2665.000000	0.004949  
2664.000000	0.005027  
2663.000000	0.005007  
2662.000000	0.004861  
2661.000000	0.004602  
2660.000000	0.004316  
2659.000000	0.004122  
2658.000000	0.004065  
2657.000000	0.004082  
2656.000000	0.004091  
2655.000000	0.004097  
2654.000000	0.004138  
2653.000000	0.004187  
2652.000000	0.004170  
2651.000000	0.004095  
2650.000000	0.004061  
2649.000000	0.004131  
2648.000000	0.004248  
2647.000000	0.004304  
2646.000000	0.004258  
2645.000000	0.004153  
2644.000000	0.004055  
2643.000000	0.004024  
2642.000000	0.004086  
2641.000000	0.004203  
2640.000000	0.004282  
2639.000000	0.004248  
2638.000000	0.004097  
2637.000000	0.003885  
2636.000000	0.003688  
2635.000000	0.003584  
2634.000000	0.003637  
2633.000000	0.003832  
2632.000000	0.004062  
2631.000000	0.004203  
2630.000000	0.004201  
2629.000000	0.004080  
2628.000000	0.003918  
2627.000000	0.003808  
2626.000000	0.003819  
2625.000000	0.003924  
2624.000000	0.003998  
2623.000000	0.003931  
2622.000000	0.003736  
2621.000000	0.003518  
2620.000000	0.003362  
2619.000000	0.003297  
2618.000000	0.003330  
2617.000000	0.003453  
2616.000000	0.003607  
2615.000000	0.003710  
2614.000000	0.003726  
2613.000000	0.003695  
2612.000000	0.003668  
2611.000000	0.003662  
2610.000000	0.003672  
2609.000000	0.003713  
2608.000000	0.003811  
2607.000000	0.003969  
2606.000000	0.004141  
2605.000000	0.004236  
2604.000000	0.004181  
2603.000000	0.003994  
2602.000000	0.003794  
2601.000000	0.003704  
2600.000000	0.003730  
2599.000000	0.003757  
2598.000000	0.003666  
2597.000000	0.003460  
2596.000000	0.003255  
2595.000000	0.003163  
2594.000000	0.003174  
2593.000000	0.003167  
2592.000000	0.003050  
2591.000000	0.002876  
2590.000000	0.002781  
2589.000000	0.002817  
2588.000000	0.002897  
2587.000000	0.002935  
2586.000000	0.002957  
2585.000000	0.003027  
2584.000000	0.003114  
2583.000000	0.003107  
2582.000000	0.002958  
2581.000000	0.002739  
2580.000000	0.002559  
2579.000000	0.002503  
2578.000000	0.002610  
2577.000000	0.002851  
2576.000000	0.003086  
2575.000000	0.003143  
2574.000000	0.002986  
2573.000000	0.002772  
2572.000000	0.002679  
2571.000000	0.002730  
2570.000000	0.002810  
2569.000000	0.002818  
2568.000000	0.002757  
2567.000000	0.002693  
2566.000000	0.002661  
2565.000000	0.002637  
2564.000000	0.002570  
2563.000000	0.002451  
2562.000000	0.002341  
2561.000000	0.002325  
2560.000000	0.002407  
2559.000000	0.002497  
2558.000000	0.002518  
2557.000000	0.002500  
2556.000000	0.002527  
2555.000000	0.002589  
2554.000000	0.002577  
2553.000000	0.002438  
2552.000000	0.002289  
2551.000000	0.002311  
2550.000000	0.002548  
2549.000000	0.002851  
2548.000000	0.003033  
2547.000000	0.003006  
2546.000000	0.002793  
2545.000000	0.002472  
2544.000000	0.002164  
2543.000000	0.002007  
2542.000000	0.002058  
2541.000000	0.002212  
2540.000000	0.002302  
2539.000000	0.002289  
2538.000000	0.002282  
2537.000000	0.002365  
2536.000000	0.002466  
2535.000000	0.002453  
2534.000000	0.002306  
2533.000000	0.002132  
2532.000000	0.002036  
2531.000000	0.002011  
2530.000000	0.001987  
2529.000000	0.001924  
2528.000000	0.001866  
2527.000000	0.001894  
2526.000000	0.002041  
2525.000000	0.002244  
2524.000000	0.002405  
2523.000000	0.002488  
2522.000000	0.002528  
2521.000000	0.002534  
2520.000000	0.002466  
2519.000000	0.002337  
2518.000000	0.002265  
2517.000000	0.002351  
2516.000000	0.002537  
2515.000000	0.002669  
2514.000000	0.002681  
2513.000000	0.002639  
2512.000000	0.002618  
2511.000000	0.002599  
2510.000000	0.002530  
2509.000000	0.002415  
2508.000000	0.002313  
2507.000000	0.002284  
2506.000000	0.002343  
2505.000000	0.002444  
2504.000000	0.002487  
2503.000000	0.002405  
2502.000000	0.002250  
2501.000000	0.002158  
2500.000000	0.002202  
2499.000000	0.002293  
2498.000000	0.002261  
2497.000000	0.002006  
2496.000000	0.001580  
2495.000000	0.001154  
2494.000000	0.000928  
2493.000000	0.001024  
2492.000000	0.001409  
2491.000000	0.001912  
2490.000000	0.002331  
2489.000000	0.002544  
2488.000000	0.002537  
2487.000000	0.002363  
2486.000000	0.002103  
2485.000000	0.001841  
2484.000000	0.001645  
2483.000000	0.001571  
2482.000000	0.001657  
2481.000000	0.001898  
2480.000000	0.002222  
2479.000000	0.002505  
2478.000000	0.002629  
2477.000000	0.002548  
2476.000000	0.002310  
2475.000000	0.002033  
2474.000000	0.001837  
2473.000000	0.001763  
2472.000000	0.001764  
2471.000000	0.001762  
2470.000000	0.001720  
2469.000000	0.001657  
2468.000000	0.001620  
2467.000000	0.001677  
2466.000000	0.001872  
2465.000000	0.002152  
2464.000000	0.002358  
2463.000000	0.002359  
2462.000000	0.002192  
2461.000000	0.002021  
2460.000000	0.001975  
2459.000000	0.002066  
2458.000000	0.002232  
2457.000000	0.002377  
2456.000000	0.002368  
2455.000000	0.002121  
2454.000000	0.001732  
2453.000000	0.001440  
2452.000000	0.001389  
2451.000000	0.001478  
2450.000000	0.001531  
2449.000000	0.001536  
2448.000000	0.001639  
2447.000000	0.001918  
2446.000000	0.002265  
2445.000000	0.002491  
2444.000000	0.002492  
2443.000000	0.002321  
2442.000000	0.002117  
2441.000000	0.002004  
2440.000000	0.001998  
2439.000000	0.002017  
2438.000000	0.001987  
2437.000000	0.001927  
2436.000000	0.001898  
2435.000000	0.001899  
2434.000000	0.001875  
2433.000000	0.001810  
2432.000000	0.001753  
2431.000000	0.001744  
2430.000000	0.001759  
2429.000000	0.001771  
2428.000000	0.001807  
2427.000000	0.001913  
2426.000000	0.002077  
2425.000000	0.002213  
2424.000000	0.002237  
2423.000000	0.002138  
2422.000000	0.001983  
2421.000000	0.001857  
2420.000000	0.001794  
2419.000000	0.001767  
2418.000000	0.001728  
2417.000000	0.001668  
2416.000000	0.001622  
2415.000000	0.001631  
2414.000000	0.001716  
2413.000000	0.001866  
2412.000000	0.002036  
2411.000000	0.002168  
2410.000000	0.002239  
2409.000000	0.002282  
2408.000000	0.002331  
2407.000000	0.002352  
2406.000000	0.002264  
2405.000000	0.002040  
2404.000000	0.001770  
2403.000000	0.001581  
2402.000000	0.001517  
2401.000000	0.001519  
2400.000000	0.001524  
2399.000000	0.001555  
2398.000000	0.001679  
2397.000000	0.001900  
2396.000000	0.002118  
2395.000000	0.002233  
2394.000000	0.002248  
2393.000000	0.002257  
2392.000000	0.002336  
2391.000000	0.002463  
2390.000000	0.002560  
2389.000000	0.002591  
2388.000000	0.002618  
2387.000000	0.002769  
2386.000000	0.003143  
2385.000000	0.003708  
2384.000000	0.004253  
2383.000000	0.004495  
2382.000000	0.004264  
2381.000000	0.003628  
2380.000000	0.002844  
2379.000000	0.002147  
2378.000000	0.001635  
2377.000000	0.001298  
2376.000000	0.001135  
2375.000000	0.001290  
2374.000000	0.001882  
2373.000000	0.002865  
2372.000000	0.003944  
2371.000000	0.004678  
2370.000000	0.004792  
2369.000000	0.004338  
2368.000000	0.003480  
2367.000000	0.002349  
2366.000000	0.001242  
2365.000000	0.000456  
2364.000000	-0.000424 
2363.000000	-0.001636 
2362.000000	-0.002455 
2361.000000	-0.002552 
2360.000000	-0.001886 
2359.000000	-0.001054 
2358.000000	-0.000976 
2357.000000	-0.001224 
2356.000000	-0.001458 
2355.000000	-0.001146 
2354.000000	-0.000494 
2353.000000	-0.000538 
2352.000000	-0.002792 
2351.000000	-0.008719 
2350.000000	-0.015457 
2349.000000	-0.018200 
2348.000000	-0.014006 
2347.000000	-0.004404 
2346.000000	0.004699  
2345.000000	0.009341  
2344.000000	0.008768  
2343.000000	0.006078  
2342.000000	0.003464  
2341.000000	0.000920  
2340.000000	-0.000872 
2339.000000	-0.002000 
2338.000000	-0.002549 
2337.000000	-0.003239 
2336.000000	-0.003932 
2335.000000	-0.004437 
2334.000000	-0.004338 
2333.000000	-0.003869 
2332.000000	-0.002769 
2331.000000	-0.001889 
2330.000000	-0.000920 
2329.000000	-0.000419 
2328.000000	-0.000444 
2327.000000	-0.000338 
2326.000000	-0.000146 
2325.000000	0.000755  
2324.000000	0.001240  
2323.000000	0.001137  
2322.000000	0.000496  
2321.000000	-0.000138 
2320.000000	-0.000026 
2319.000000	0.000419  
2318.000000	0.001149  
2317.000000	0.001451  
2316.000000	0.001578  
2315.000000	0.001434  
2314.000000	0.001507  
2313.000000	0.001831  
2312.000000	0.002483  
2311.000000	0.003174  
2310.000000	0.003710  
2309.000000	0.004083  
2308.000000	0.004307  
2307.000000	0.004418  
2306.000000	0.004310  
2305.000000	0.004087  
2304.000000	0.003901  
2303.000000	0.003859  
2302.000000	0.003955  
2301.000000	0.004001  
2300.000000	0.003969  
2299.000000	0.003933  
2298.000000	0.004079  
2297.000000	0.004415  
2296.000000	0.004706  
2295.000000	0.004722  
2294.000000	0.004359  
2293.000000	0.003907  
2292.000000	0.003551  
2291.000000	0.003397  
2290.000000	0.003279  
2289.000000	0.003164  
2288.000000	0.002993  
2287.000000	0.002731  
2286.000000	0.002306  
2285.000000	0.001840  
2284.000000	0.001568  
2283.000000	0.001612  
2282.000000	0.001832  
2281.000000	0.002002  
2280.000000	0.002078  
2279.000000	0.002139  
2278.000000	0.002222  
2277.000000	0.002222  
2276.000000	0.002159  
2275.000000	0.002183  
2274.000000	0.002478  
2273.000000	0.003023  
2272.000000	0.003584  
2271.000000	0.003908  
2270.000000	0.003878  
2269.000000	0.003567  
2268.000000	0.003112  
2267.000000	0.002606  
2266.000000	0.002125  
2265.000000	0.001788  
2264.000000	0.001722  
2263.000000	0.001940  
2262.000000	0.002259  
2261.000000	0.002504  
2260.000000	0.002598  
2259.000000	0.002616  
2258.000000	0.002664  
2257.000000	0.002798  
2256.000000	0.002993  
2255.000000	0.003100  
2254.000000	0.002999  
2253.000000	0.002713  
2252.000000	0.002448  
2251.000000	0.002353  
2250.000000	0.002364  
2249.000000	0.002296  
2248.000000	0.002051  
2247.000000	0.001686  
2246.000000	0.001314  
2245.000000	0.001044  
2244.000000	0.000953  
2243.000000	0.001072  
2242.000000	0.001341  
2241.000000	0.001670  
2240.000000	0.001994  
2239.000000	0.002264  
2238.000000	0.002392  
2237.000000	0.002312  
2236.000000	0.002083  
2235.000000	0.001874  
2234.000000	0.001805  
2233.000000	0.001840  
2232.000000	0.001840  
2231.000000	0.001682  
2230.000000	0.001373  
2229.000000	0.001070  
2228.000000	0.000979  
2227.000000	0.001169  
2226.000000	0.001485  
2225.000000	0.001668  
2224.000000	0.001552  
2223.000000	0.001160  
2222.000000	0.000672  
2221.000000	0.000371  
2220.000000	0.000484  
2219.000000	0.000965  
2218.000000	0.001467  
2217.000000	0.001689  
2216.000000	0.001709  
2215.000000	0.001824  
2214.000000	0.002102  
2213.000000	0.002295  
2212.000000	0.002235  
2211.000000	0.002087  
2210.000000	0.002055  
2209.000000	0.002033  
2208.000000	0.001771  
2207.000000	0.001294  
2206.000000	0.000953  
2205.000000	0.001039  
2204.000000	0.001513  
2203.000000	0.002144  
2202.000000	0.002752  
2201.000000	0.003250  
2200.000000	0.003581  
2199.000000	0.003741  
2198.000000	0.003799  
2197.000000	0.003817  
2196.000000	0.003747  
2195.000000	0.003485  
2194.000000	0.003021  
2193.000000	0.002485  
2192.000000	0.002020  
2191.000000	0.001637  
2190.000000	0.001261  
2189.000000	0.000912  
2188.000000	0.000753  
2187.000000	0.000915  
2186.000000	0.001284  
2185.000000	0.001558  
2184.000000	0.001549  
2183.000000	0.001388  
2182.000000	0.001370  
2181.000000	0.001645  
2180.000000	0.002089  
2179.000000	0.002469  
2178.000000	0.002671  
2177.000000	0.002767  
2176.000000	0.002891  
2175.000000	0.003015  
2174.000000	0.002909  
2173.000000	0.002386  
2172.000000	0.001616  
2171.000000	0.001064  
2170.000000	0.001043  
2169.000000	0.001379  
2168.000000	0.001649  
2167.000000	0.001720  
2166.000000	0.001877  
2165.000000	0.002355  
2164.000000	0.002895  
2163.000000	0.002969  
2162.000000	0.002409  
2161.000000	0.001669  
2160.000000	0.001385  
2159.000000	0.001715  
2158.000000	0.002245  
2157.000000	0.002524  
2156.000000	0.002470  
2155.000000	0.002241  
2154.000000	0.001968  
2153.000000	0.001715  
2152.000000	0.001560  
2151.000000	0.001564  
2150.000000	0.001643  
2149.000000	0.001607  
2148.000000	0.001373  
2147.000000	0.001115  
2146.000000	0.001110  
2145.000000	0.001483  
2144.000000	0.002094  
2143.000000	0.002645  
2142.000000	0.002840  
2141.000000	0.002530  
2140.000000	0.001828  
2139.000000	0.001108  
2138.000000	0.000796  
2137.000000	0.001060  
2136.000000	0.001660  
2135.000000	0.002139  
2134.000000	0.002200  
2133.000000	0.001914  
2132.000000	0.001607  
2131.000000	0.001553  
2130.000000	0.001769  
2129.000000	0.002076  
2128.000000	0.002302  
2127.000000	0.002387  
2126.000000	0.002330  
2125.000000	0.002125  
2124.000000	0.001816  
2123.000000	0.001571  
2122.000000	0.001584  
2121.000000	0.001890  
2120.000000	0.002305  
2119.000000	0.002585  
2118.000000	0.002635  
2117.000000	0.002565  
2116.000000	0.002571  
2115.000000	0.002737  
2114.000000	0.002917  
2113.000000	0.002841  
2112.000000	0.002391  
2111.000000	0.001798  
2110.000000	0.001468  
2109.000000	0.001592  
2108.000000	0.001961  
2107.000000	0.002206  
2106.000000	0.002150  
2105.000000	0.001873  
2104.000000	0.001532  
2103.000000	0.001231  
2102.000000	0.001032  
2101.000000	0.000960  
2100.000000	0.000939  
2099.000000	0.000841  
2098.000000	0.000652  
2097.000000	0.000520  
2096.000000	0.000582  
2095.000000	0.000803  
2094.000000	0.001039  
2093.000000	0.001211  
2092.000000	0.001332  
2091.000000	0.001403  
2090.000000	0.001373  
2089.000000	0.001260  
2088.000000	0.001225  
2087.000000	0.001449  
2086.000000	0.001928  
2085.000000	0.002417  
2084.000000	0.002611  
2083.000000	0.002395  
2082.000000	0.001934  
2081.000000	0.001545  
2080.000000	0.001464  
2079.000000	0.001680  
2078.000000	0.001953  
2077.000000	0.002009  
2076.000000	0.001787  
2075.000000	0.001504  
2074.000000	0.001470  
2073.000000	0.001776  
2072.000000	0.002201  
2071.000000	0.002453  
2070.000000	0.002450  
2069.000000	0.002315  
2068.000000	0.002156  
2067.000000	0.001974  
2066.000000	0.001792  
2065.000000	0.001727  
2064.000000	0.001857  
2063.000000	0.002082  
2062.000000	0.002225  
2061.000000	0.002225  
2060.000000	0.002148  
2059.000000	0.002073  
2058.000000	0.002045  
2057.000000	0.002088  
2056.000000	0.002148  
2055.000000	0.002058  
2054.000000	0.001702  
2053.000000	0.001207  
2052.000000	0.000863  
2051.000000	0.000833  
2050.000000	0.001061  
2049.000000	0.001445  
2048.000000	0.001954  
2047.000000	0.002443  
2046.000000	0.002581  
2045.000000	0.002176  
2044.000000	0.001505  
2043.000000	0.001087  
2042.000000	0.001147  
2041.000000	0.001473  
2040.000000	0.001809  
2039.000000	0.002129  
2038.000000	0.002449  
2037.000000	0.002608  
2036.000000	0.002468  
2035.000000	0.002204  
2034.000000	0.002160  
2033.000000	0.002413  
2032.000000	0.002653  
2031.000000	0.002530  
2030.000000	0.001961  
2029.000000	0.001104  
2028.000000	0.000202  
2027.000000	-0.000505 
2026.000000	-0.000847 
2025.000000	-0.000838 
2024.000000	-0.000661 
2023.000000	-0.000433 
2022.000000	-0.000056 
2021.000000	0.000564  
2020.000000	0.001268  
2019.000000	0.001731  
2018.000000	0.001814  
2017.000000	0.001642  
2016.000000	0.001371  
2015.000000	0.001034  
2014.000000	0.000716  
2013.000000	0.000648  
2012.000000	0.000901  
2011.000000	0.001123  
2010.000000	0.000840  
2009.000000	0.000044  
2008.000000	-0.000728 
2007.000000	-0.000959 
2006.000000	-0.000615 
2005.000000	0.000004  
2004.000000	0.000669  
2003.000000	0.001325  
2002.000000	0.001980  
2001.000000	0.002622  
2000.000000	0.003158  
1999.000000	0.003357  
1998.000000	0.002967  
1997.000000	0.002061  
1996.000000	0.001156  
1995.000000	0.000791  
1994.000000	0.001037  
1993.000000	0.001508  
1992.000000	0.001808  
1991.000000	0.001855  
1990.000000	0.001769  
1989.000000	0.001686  
1988.000000	0.001751  
1987.000000	0.002055  
1986.000000	0.002467  
1985.000000	0.002703  
1984.000000	0.002662  
1983.000000	0.002555  
1982.000000	0.002575  
1981.000000	0.002615  
1980.000000	0.002464  
1979.000000	0.002162  
1978.000000	0.001927  
1977.000000	0.001771  
1976.000000	0.001491  
1975.000000	0.001043  
1974.000000	0.000634  
1973.000000	0.000417  
1972.000000	0.000335  
1971.000000	0.000326  
1970.000000	0.000441  
1969.000000	0.000673  
1968.000000	0.000844  
1967.000000	0.000844  
1966.000000	0.000825  
1965.000000	0.000995  
1964.000000	0.001329  
1963.000000	0.001647  
1962.000000	0.001839  
1961.000000	0.001917  
1960.000000	0.001915  
1959.000000	0.001862  
1958.000000	0.001808  
1957.000000	0.001748  
1956.000000	0.001574  
1955.000000	0.001224  
1954.000000	0.000853  
1953.000000	0.000744  
1952.000000	0.001031  
1951.000000	0.001586  
1950.000000	0.002142  
1949.000000	0.002471  
1948.000000	0.002477  
1947.000000	0.002249  
1946.000000	0.002019  
1945.000000	0.001978  
1944.000000	0.002091  
1943.000000	0.002156  
1942.000000	0.002072  
1941.000000	0.001943  
1940.000000	0.001873  
1939.000000	0.001831  
1938.000000	0.001790  
1937.000000	0.001830  
1936.000000	0.002019  
1935.000000	0.002268  
1934.000000	0.002431  
1933.000000	0.002487  
1932.000000	0.002533  
1931.000000	0.002606  
1930.000000	0.002627  
1929.000000	0.002530  
1928.000000	0.002342  
1927.000000	0.002114  
1926.000000	0.001847  
1925.000000	0.001558  
1924.000000	0.001336  
1923.000000	0.001286  
1922.000000	0.001425  
1921.000000	0.001686  
1920.000000	0.001988  
1919.000000	0.002234  
1918.000000	0.002331  
1917.000000	0.002302  
1916.000000	0.002271  
1915.000000	0.002261  
1914.000000	0.002139  
1913.000000	0.001814  
1912.000000	0.001418  
1911.000000	0.001198  
1910.000000	0.001247  
1909.000000	0.001424  
1908.000000	0.001564  
1907.000000	0.001642  
1906.000000	0.001708  
1905.000000	0.001776  
1904.000000	0.001832  
1903.000000	0.001892  
1902.000000	0.001977  
1901.000000	0.002074  
1900.000000	0.002134  
1899.000000	0.002110  
1898.000000	0.002003  
1897.000000	0.001869  
1896.000000	0.001786  
1895.000000	0.001788  
1894.000000	0.001842  
1893.000000	0.001900  
1892.000000	0.001963  
1891.000000	0.002064  
1890.000000	0.002208  
1889.000000	0.002346  
1888.000000	0.002422  
1887.000000	0.002395  
1886.000000	0.002261  
1885.000000	0.002080  
1884.000000	0.001946  
1883.000000	0.001878  
1882.000000	0.001811  
1881.000000	0.001720  
1880.000000	0.001667  
1879.000000	0.001699  
1878.000000	0.001755  
1877.000000	0.001768  
1876.000000	0.001799  
1875.000000	0.001957  
1874.000000	0.002213  
1873.000000	0.002404  
1872.000000	0.002424  
1871.000000	0.002298  
1870.000000	0.002091  
1869.000000	0.001847  
1868.000000	0.001668  
1867.000000	0.001677  
1866.000000	0.001854  
1865.000000	0.002053  
1864.000000	0.002166  
1863.000000	0.002191  
1862.000000	0.002155  
1861.000000	0.002057  
1860.000000	0.001932  
1859.000000	0.001887  
1858.000000	0.001999  
1857.000000	0.002206  
1856.000000	0.002358  
1855.000000	0.002347  
1854.000000	0.002172  
1853.000000	0.001939  
1852.000000	0.001790  
1851.000000	0.001806  
1850.000000	0.001918  
1849.000000	0.001958  
1848.000000	0.001849  
1847.000000	0.001700  
1846.000000	0.001689  
1845.000000	0.001861  
1844.000000	0.002066  
1843.000000	0.002144  
1842.000000	0.002087  
1841.000000	0.001974  
1840.000000	0.001861  
1839.000000	0.001798  
1838.000000	0.001820  
1837.000000	0.001907  
1836.000000	0.001997  
1835.000000	0.002057  
1834.000000	0.002090  
1833.000000	0.002073  
1832.000000	0.001950  
1831.000000	0.001739  
1830.000000	0.001588  
1829.000000	0.001621  
1828.000000	0.001781  
1827.000000	0.001937  
1826.000000	0.002028  
1825.000000	0.002057  
1824.000000	0.002073  
1823.000000	0.002129  
1822.000000	0.002219  
1821.000000	0.002236  
1820.000000	0.002076  
1819.000000	0.001798  
1818.000000	0.001619  
1817.000000	0.001694  
1816.000000	0.001937  
1815.000000	0.002132  
1814.000000	0.002152  
1813.000000	0.002029  
1812.000000	0.001885  
1811.000000	0.001847  
1810.000000	0.001958  
1809.000000	0.002149  
1808.000000	0.002325  
1807.000000	0.002431  
1806.000000	0.002450  
1805.000000	0.002394  
1804.000000	0.002309  
1803.000000	0.002266  
1802.000000	0.002310  
1801.000000	0.002409  
1800.000000	0.002509  
1799.000000	0.002579  
1798.000000	0.002600  
1797.000000	0.002567  
1796.000000	0.002521  
1795.000000	0.002505  
1794.000000	0.002519  
1793.000000	0.002509  
1792.000000	0.002438  
1791.000000	0.002367  
1790.000000	0.002362  
1789.000000	0.002407  
1788.000000	0.002453  
1787.000000	0.002475  
1786.000000	0.002475  
1785.000000	0.002462  
1784.000000	0.002427  
1783.000000	0.002366  
1782.000000	0.002309  
1781.000000	0.002326  
1780.000000	0.002467  
1779.000000	0.002683  
1778.000000	0.002871  
1777.000000	0.002967  
1776.000000	0.002994  
1775.000000	0.003008  
1774.000000	0.003041  
1773.000000	0.003061  
1772.000000	0.002991  
1771.000000	0.002830  
1770.000000	0.002689  
1769.000000	0.002669  
1768.000000	0.002766  
1767.000000	0.002909  
1766.000000	0.003033  
1765.000000	0.003144  
1764.000000	0.003273  
1763.000000	0.003456  
1762.000000	0.003709  
1761.000000	0.004007  
1760.000000	0.004293  
1759.000000	0.004533  
1758.000000	0.004758  
1757.000000	0.005040  
1756.000000	0.005402  
1755.000000	0.005814  
1754.000000	0.006311  
1753.000000	0.007048  
1752.000000	0.008188  
1751.000000	0.009736  
1750.000000	0.011636  
1749.000000	0.013954  
1748.000000	0.016695  
1747.000000	0.019672  
1746.000000	0.022716  
1745.000000	0.025731  
1744.000000	0.028447  
1743.000000	0.030403  
1742.000000	0.031297  
1741.000000	0.031037  
1740.000000	0.029617  
1739.000000	0.027383  
1738.000000	0.024996  
1737.000000	0.022741  
1736.000000	0.020340  
1735.000000	0.017410  
1734.000000	0.014361  
1733.000000	0.012096  
1732.000000	0.010670  
1731.000000	0.009610  
1730.000000	0.008721  
1729.000000	0.008046  
1728.000000	0.007592  
1727.000000	0.007261  
1726.000000	0.006954  
1725.000000	0.006624  
1724.000000	0.006260  
1723.000000	0.005898  
1722.000000	0.005598  
1721.000000	0.005368  
1720.000000	0.005149  
1719.000000	0.004908  
1718.000000	0.004668  
1717.000000	0.004406  
1716.000000	0.004165  
1715.000000	0.004062  
1714.000000	0.004071  
1713.000000	0.004073  
1712.000000	0.003984  
1711.000000	0.003822  
1710.000000	0.003667  
1709.000000	0.003569  
1708.000000	0.003519  
1707.000000	0.003507  
1706.000000	0.003533  
1705.000000	0.003572  
1704.000000	0.003651  
1703.000000	0.003835  
1702.000000	0.004118  
1701.000000	0.004280  
1700.000000	0.004139  
1699.000000	0.003913  
1698.000000	0.003833  
1697.000000	0.003814  
1696.000000	0.003728  
1695.000000	0.003631  
1694.000000	0.003579  
1693.000000	0.003528  
1692.000000	0.003430  
1691.000000	0.003310  
1690.000000	0.003239  
1689.000000	0.003234  
1688.000000	0.003264  
1687.000000	0.003298  
1686.000000	0.003337  
1685.000000	0.003362  
1684.000000	0.003353  
1683.000000	0.003348  
1682.000000	0.003388  
1681.000000	0.003449  
1680.000000	0.003459  
1679.000000	0.003417  
1678.000000	0.003331  
1677.000000	0.003213  
1676.000000	0.003085  
1675.000000	0.003037  
1674.000000	0.003133  
1673.000000	0.003328  
1672.000000	0.003537  
1671.000000	0.003699  
1670.000000	0.003780  
1669.000000	0.003782  
1668.000000	0.003739  
1667.000000	0.003708  
1666.000000	0.003742  
1665.000000	0.003844  
1664.000000	0.003960  
1663.000000	0.004034  
1662.000000	0.004073  
1661.000000	0.004126  
1660.000000	0.004200  
1659.000000	0.004255  
1658.000000	0.004229  
1657.000000	0.004137  
1656.000000	0.004002  
1655.000000	0.003875  
1654.000000	0.003858  
1653.000000	0.004047  
1652.000000	0.004251  
1651.000000	0.004295  
1650.000000	0.004316  
1649.000000	0.004370  
1648.000000	0.004475  
1647.000000	0.004506  
1646.000000	0.004401  
1645.000000	0.004232  
1644.000000	0.004089  
1643.000000	0.003997  
1642.000000	0.003988  
1641.000000	0.004037  
1640.000000	0.004100  
1639.000000	0.004152  
1638.000000	0.004209  
1637.000000	0.004286  
1636.000000	0.004322  
1635.000000	0.004242  
1634.000000	0.004111  
1633.000000	0.004041  
1632.000000	0.004038  
1631.000000	0.004057  
1630.000000	0.004055  
1629.000000	0.004046  
1628.000000	0.004065  
1627.000000	0.004116  
1626.000000	0.004187  
1625.000000	0.004265  
1624.000000	0.004319  
1623.000000	0.004300  
1622.000000	0.004226  
1621.000000	0.004184  
1620.000000	0.004207  
1619.000000	0.004246  
1618.000000	0.004244  
1617.000000	0.004227  
1616.000000	0.004281  
1615.000000	0.004390  
1614.000000	0.004494  
1613.000000	0.004576  
1612.000000	0.004654  
1611.000000	0.004741  
1610.000000	0.004831  
1609.000000	0.004900  
1608.000000	0.004909  
1607.000000	0.004829  
1606.000000	0.004696  
1605.000000	0.004587  
1604.000000	0.004532  
1603.000000	0.004490  
1602.000000	0.004423  
1601.000000	0.004344  
1600.000000	0.004264  
1599.000000	0.004158  
1598.000000	0.004028  
1597.000000	0.003917  
1596.000000	0.003865  
1595.000000	0.003856  
1594.000000	0.003863  
1593.000000	0.003900  
1592.000000	0.004002  
1591.000000	0.004153  
1590.000000	0.004288  
1589.000000	0.004353  
1588.000000	0.004343  
1587.000000	0.004278  
1586.000000	0.004204  
1585.000000	0.004171  
1584.000000	0.004194  
1583.000000	0.004245  
1582.000000	0.004283  
1581.000000	0.004305  
1580.000000	0.004339  
1579.000000	0.004386  
1578.000000	0.004409  
1577.000000	0.004361  
1576.000000	0.004252  
1575.000000	0.004171  
1574.000000	0.004216  
1573.000000	0.004388  
1572.000000	0.004578  
1571.000000	0.004647  
1570.000000	0.004553  
1569.000000	0.004444  
1568.000000	0.004437  
1567.000000	0.004485  
1566.000000	0.004487  
1565.000000	0.004419  
1564.000000	0.004282  
1563.000000	0.004119  
1562.000000	0.003961  
1561.000000	0.003855  
1560.000000	0.003858  
1559.000000	0.003905  
1558.000000	0.003868  
1557.000000	0.003930  
1556.000000	0.004151  
1555.000000	0.004306  
1554.000000	0.004403  
1553.000000	0.004381  
1552.000000	0.004278  
1551.000000	0.004100  
1550.000000	0.003945  
1549.000000	0.003894  
1548.000000	0.003936  
1547.000000	0.003994  
1546.000000	0.004036  
1545.000000	0.004043  
1544.000000	0.003991  
1543.000000	0.003916  
1542.000000	0.003936  
1541.000000	0.004064  
1540.000000	0.004143  
1539.000000	0.004132  
1538.000000	0.004174  
1537.000000	0.004316  
1536.000000	0.004463  
1535.000000	0.004528  
1534.000000	0.004452  
1533.000000	0.004289  
1532.000000	0.004148  
1531.000000	0.004085  
1530.000000	0.004057  
1529.000000	0.004025  
1528.000000	0.004015  
1527.000000	0.004115  
1526.000000	0.004378  
1525.000000	0.004708  
1524.000000	0.004948  
1523.000000	0.005056  
1522.000000	0.005115  
1521.000000	0.005175  
1520.000000	0.005188  
1519.000000	0.005126  
1518.000000	0.005048  
1517.000000	0.005043  
1516.000000	0.005140  
1515.000000	0.005321  
1514.000000	0.005571  
1513.000000	0.005843  
1512.000000	0.006033  
1511.000000	0.006092  
1510.000000	0.006102  
1509.000000	0.006219  
1508.000000	0.006515  
1507.000000	0.006939  
1506.000000	0.007403  
1505.000000	0.007761  
1504.000000	0.007904  
1503.000000	0.007883  
1502.000000	0.007851  
1501.000000	0.007840  
1500.000000	0.007812  
1499.000000	0.007790  
1498.000000	0.008017  
1497.000000	0.008588  
1496.000000	0.009145  
1495.000000	0.009411  
1494.000000	0.009552  
1493.000000	0.009739  
1492.000000	0.009900  
1491.000000	0.009941  
1490.000000	0.010013  
1489.000000	0.010282  
1488.000000	0.010661  
1487.000000	0.011032  
1486.000000	0.011428  
1485.000000	0.011916  
1484.000000	0.012481  
1483.000000	0.013126  
1482.000000	0.013957  
1481.000000	0.014996  
1480.000000	0.016090  
1479.000000	0.017197  
1478.000000	0.018544  
1477.000000	0.020330  
1476.000000	0.022458  
1475.000000	0.024940  
1474.000000	0.028474  
1473.000000	0.033886  
1472.000000	0.040679  
1471.000000	0.047523  
1470.000000	0.053914  
1469.000000	0.059852  
1468.000000	0.065111  
1467.000000	0.069498  
1466.000000	0.073142  
1465.000000	0.076168  
1464.000000	0.078406  
1463.000000	0.079887  
1462.000000	0.080983  
1461.000000	0.081953  
1460.000000	0.082830  
1459.000000	0.083645  
1458.000000	0.084410  
1457.000000	0.084488  
1456.000000	0.083227  
1455.000000	0.081129  
1454.000000	0.078791  
1453.000000	0.076192  
1452.000000	0.073350  
1451.000000	0.070547  
1450.000000	0.067994  
1449.000000	0.065446  
1448.000000	0.062613  
1447.000000	0.059631  
1446.000000	0.056727  
1445.000000	0.053794  
1444.000000	0.050646  
1443.000000	0.047335  
1442.000000	0.044087  
1441.000000	0.041095  
1440.000000	0.038418  
1439.000000	0.035941  
1438.000000	0.033394  
1437.000000	0.030644  
1436.000000	0.028082  
1435.000000	0.026125  
1434.000000	0.024572  
1433.000000	0.022992  
1432.000000	0.021252  
1431.000000	0.019509  
1430.000000	0.017963  
1429.000000	0.016696  
1428.000000	0.015736  
1427.000000	0.015056  
1426.000000	0.014520  
1425.000000	0.014002  
1424.000000	0.013514  
1423.000000	0.013133  
1422.000000	0.012833  
1421.000000	0.012497  
1420.000000	0.012075  
1419.000000	0.011657  
1418.000000	0.011347  
1417.000000	0.011126  
1416.000000	0.010948  
1415.000000	0.010799  
1414.000000	0.010663  
1413.000000	0.010507  
1412.000000	0.010316  
1411.000000	0.010095  
1410.000000	0.009875  
1409.000000	0.009713  
1408.000000	0.009662  
1407.000000	0.009718  
1406.000000	0.009805  
1405.000000	0.009869  
1404.000000	0.009951  
1403.000000	0.010094  
1402.000000	0.010245  
1401.000000	0.010333  
1400.000000	0.010404  
1399.000000	0.010560  
1398.000000	0.010813  
1397.000000	0.011099  
1396.000000	0.011401  
1395.000000	0.011752  
1394.000000	0.012170  
1393.000000	0.012650  
1392.000000	0.013192  
1391.000000	0.013824  
1390.000000	0.014621  
1389.000000	0.015759  
1388.000000	0.017483  
1387.000000	0.019819  
1386.000000	0.022460  
1385.000000	0.025149  
1384.000000	0.027950  
1383.000000	0.031070  
1382.000000	0.034633  
1381.000000	0.038573  
1380.000000	0.042538  
1379.000000	0.045829  
1378.000000	0.047679  
1377.000000	0.047718  
1376.000000	0.046022  
1375.000000	0.042911  
1374.000000	0.039028  
1373.000000	0.035265  
1372.000000	0.032206  
1371.000000	0.029934  
1370.000000	0.028373  
1369.000000	0.027480  
1368.000000	0.027096  
1367.000000	0.026839  
1366.000000	0.026294  
1365.000000	0.025221  
1364.000000	0.023628  
1363.000000	0.021778  
1362.000000	0.020081  
1361.000000	0.018823  
1360.000000	0.018003  
1359.000000	0.017452  
1358.000000	0.017019  
1357.000000	0.016662  
1356.000000	0.016425  
1355.000000	0.016342  
1354.000000	0.016360  
1353.000000	0.016374  
1352.000000	0.016331  
1351.000000	0.016251  
1350.000000	0.016150  
1349.000000	0.016021  
1348.000000	0.015843  
1347.000000	0.015600  
1346.000000	0.015307  
1345.000000	0.015031  
1344.000000	0.014856  
1343.000000	0.014792  
1342.000000	0.014757  
1341.000000	0.014656  
1340.000000	0.014464  
1339.000000	0.014203  
1338.000000	0.013898  
1337.000000	0.013564  
1336.000000	0.013234  
1335.000000	0.012944  
1334.000000	0.012692  
1333.000000	0.012454  
1332.000000	0.012234  
1331.000000	0.012065  
1330.000000	0.011949  
1329.000000	0.011853  
1328.000000	0.011762  
1327.000000	0.011689  
1326.000000	0.011645  
1325.000000	0.011631  
1324.000000	0.011646  
1323.000000	0.011689  
1322.000000	0.011747  
1321.000000	0.011804  
1320.000000	0.011849  
1319.000000	0.011880  
1318.000000	0.011894  
1317.000000	0.011900  
1316.000000	0.011926  
1315.000000	0.012006  
1314.000000	0.012153  
1313.000000	0.012345  
1312.000000	0.012545  
1311.000000	0.012727  
1310.000000	0.012881  
1309.000000	0.013008  
1308.000000	0.013120  
1307.000000	0.013228  
1306.000000	0.013329  
1305.000000	0.013400  
1304.000000	0.013415  
1303.000000	0.013362  
1302.000000	0.013265  
1301.000000	0.013170  
1300.000000	0.013102  
1299.000000	0.013042  
1298.000000	0.012953  
1297.000000	0.012818  
1296.000000	0.012655  
1295.000000	0.012486  
1294.000000	0.012305  
1293.000000	0.012104  
1292.000000	0.011905  
1291.000000	0.011750  
1290.000000	0.011662  
1289.000000	0.011628  
1288.000000	0.011625  
1287.000000	0.011660  
1286.000000	0.011756  
1285.000000	0.011908  
1284.000000	0.012065  
1283.000000	0.012173  
1282.000000	0.012220  
1281.000000	0.012251  
1280.000000	0.012307  
1279.000000	0.012384  
1278.000000	0.012448  
1277.000000	0.012491  
1276.000000	0.012539  
1275.000000	0.012617  
1274.000000	0.012722  
1273.000000	0.012843  
1272.000000	0.012968  
1271.000000	0.013078  
1270.000000	0.013150  
1269.000000	0.013185  
1268.000000	0.013201  
1267.000000	0.013205  
1266.000000	0.013167  
1265.000000	0.013059  
1264.000000	0.012910  
1263.000000	0.012797  
1262.000000	0.012788  
1261.000000	0.012885  
1260.000000	0.013014  
1259.000000	0.013094  
1258.000000	0.013091  
1257.000000	0.013038  
1256.000000	0.012981  
1255.000000	0.012960  
1254.000000	0.013013  
1253.000000	0.013179  
1252.000000	0.013440  
1251.000000	0.013691  
1250.000000	0.013822  
1249.000000	0.013844  
1248.000000	0.013887  
1247.000000	0.014055  
1246.000000	0.014313  
1245.000000	0.014542  
1244.000000	0.014669  
1243.000000	0.014694  
1242.000000	0.014644  
1241.000000	0.014532  
1240.000000	0.014374  
1239.000000	0.014192  
1238.000000	0.013986  
1237.000000	0.013750  
1236.000000	0.013502  
1235.000000	0.013288  
1234.000000	0.013134  
1233.000000	0.013010  
1232.000000	0.012866  
1231.000000	0.012680  
1230.000000	0.012453  
1229.000000	0.012200  
1228.000000	0.011962  
1227.000000	0.011801  
1226.000000	0.011748  
1225.000000	0.011763  
1224.000000	0.011782  
1223.000000	0.011779  
1222.000000	0.011765  
1221.000000	0.011742  
1220.000000	0.011692  
1219.000000	0.011619  
1218.000000	0.011569  
1217.000000	0.011585  
1216.000000	0.011658  
1215.000000	0.011745  
1214.000000	0.011801  
1213.000000	0.011808  
1212.000000	0.011786  
1211.000000	0.011802  
1210.000000	0.011912  
1209.000000	0.012087  
1208.000000	0.012218  
1207.000000	0.012238  
1206.000000	0.012210  
1205.000000	0.012254  
1204.000000	0.012410  
1203.000000	0.012610  
1202.000000	0.012785  
1201.000000	0.012941  
1200.000000	0.013113  
1199.000000	0.013315  
1198.000000	0.013549  
1197.000000	0.013822  
1196.000000	0.014140  
1195.000000	0.014494  
1194.000000	0.014883  
1193.000000	0.015312  
1192.000000	0.015750  
1191.000000	0.016130  
1190.000000	0.016413  
1189.000000	0.016643  
1188.000000	0.016896  
1187.000000	0.017206  
1186.000000	0.017569  
1185.000000	0.017982  
1184.000000	0.018441  
1183.000000	0.018914  
1182.000000	0.019371  
1181.000000	0.019806  
1180.000000	0.020217  
1179.000000	0.020565  
1178.000000	0.020823  
1177.000000	0.021024  
1176.000000	0.021228  
1175.000000	0.021437  
1174.000000	0.021601  
1173.000000	0.021695  
1172.000000	0.021732  
1171.000000	0.021711  
1170.000000	0.021598  
1169.000000	0.021379  
1168.000000	0.021092  
1167.000000	0.020788  
1166.000000	0.020481  
1165.000000	0.020149  
1164.000000	0.019757  
1163.000000	0.019286  
1162.000000	0.018769  
1161.000000	0.018294  
1160.000000	0.017934  
1159.000000	0.017676  
1158.000000	0.017439  
1157.000000	0.017163  
1156.000000	0.016837  
1155.000000	0.016444  
1154.000000	0.015955  
1153.000000	0.015404  
1152.000000	0.014898  
1151.000000	0.014527  
1150.000000	0.014285  
1149.000000	0.014121  
1148.000000	0.014013  
1147.000000	0.013946  
1146.000000	0.013867  
1145.000000	0.013699  
1144.000000	0.013414  
1143.000000	0.013045  
1142.000000	0.012652  
1141.000000	0.012292  
1140.000000	0.011999  
1139.000000	0.011763  
1138.000000	0.011543  
1137.000000	0.011324  
1136.000000	0.011134  
1135.000000	0.010980  
1134.000000	0.010815  
1133.000000	0.010608  
1132.000000	0.010411  
1131.000000	0.010307  
1130.000000	0.010319  
1129.000000	0.010407  
1128.000000	0.010540  
1127.000000	0.010706  
1126.000000	0.010868  
1125.000000	0.010988  
1124.000000	0.011077  
1123.000000	0.011192  
1122.000000	0.011347  
1121.000000	0.011489  
1120.000000	0.011562  
1119.000000	0.011548  
1118.000000	0.011467  
1117.000000	0.011360  
1116.000000	0.011273  
1115.000000	0.011216  
1114.000000	0.011130  
1113.000000	0.010954  
1112.000000	0.010709  
1111.000000	0.010482  
1110.000000	0.010325  
1109.000000	0.010218  
1108.000000	0.010145  
1107.000000	0.010142  
1106.000000	0.010234  
1105.000000	0.010365  
1104.000000	0.010432  
1103.000000	0.010389  
1102.000000	0.010290  
1101.000000	0.010248  
1100.000000	0.010338  
1099.000000	0.010536  
1098.000000	0.010731  
1097.000000	0.010843  
1096.000000	0.010895  
1095.000000	0.010972  
1094.000000	0.011089  
1093.000000	0.011175  
1092.000000	0.011166  
1091.000000	0.011069  
1090.000000	0.010917  
1089.000000	0.010723  
1088.000000	0.010506  
1087.000000	0.010327  
1086.000000	0.010245  
1085.000000	0.010265  
1084.000000	0.010339  
1083.000000	0.010398  
1082.000000	0.010392  
1081.000000	0.010318  
1080.000000	0.010245  
1079.000000	0.010277  
1078.000000	0.010460  
1077.000000	0.010742  
1076.000000	0.011050  
1075.000000	0.011362  
1074.000000	0.011683  
1073.000000	0.011981  
1072.000000	0.012191  
1071.000000	0.012275  
1070.000000	0.012256  
1069.000000	0.012197  
1068.000000	0.012163  
1067.000000	0.012197  
1066.000000	0.012283  
1065.000000	0.012354  
1064.000000	0.012345  
1063.000000	0.012243  
1062.000000	0.012078  
1061.000000	0.011879  
1060.000000	0.011662  
1059.000000	0.011446  
1058.000000	0.011258  
1057.000000	0.011120  
1056.000000	0.011054  
1055.000000	0.011075  
1054.000000	0.011129  
1053.000000	0.011080  
1052.000000	0.010813  
1051.000000	0.010405  
1050.000000	0.010097  
1049.000000	0.010063  
1048.000000	0.010237  
1047.000000	0.010418  
1046.000000	0.010483  
1045.000000	0.010462  
1044.000000	0.010459  
1043.000000	0.010553  
1042.000000	0.010758  
1041.000000	0.011009  
1040.000000	0.011196  
1039.000000	0.011242  
1038.000000	0.011168  
1037.000000	0.011069  
1036.000000	0.011026  
1035.000000	0.011057  
1034.000000	0.011139  
1033.000000	0.011257  
1032.000000	0.011384  
1031.000000	0.011474  
1030.000000	0.011491  
1029.000000	0.011452  
1028.000000	0.011416  
1027.000000	0.011416  
1026.000000	0.011434  
1025.000000	0.011423  
1024.000000	0.011344  
1023.000000	0.011191  
1022.000000	0.010997  
1021.000000	0.010818  
1020.000000	0.010679  
1019.000000	0.010553  
1018.000000	0.010407  
1017.000000	0.010274  
1016.000000	0.010233  
1015.000000	0.010300  
1014.000000	0.010392  
1013.000000	0.010398  
1012.000000	0.010292  
1011.000000	0.010142  
1010.000000	0.010035  
1009.000000	0.010009  
1008.000000	0.010043  
1007.000000	0.010077  
1006.000000	0.010065  
1005.000000	0.009997  
1004.000000	0.009907  
1003.000000	0.009830  
1002.000000	0.009784  
1001.000000	0.009764  
1000.000000	0.009739  
999.000000	 0.009648  
998.000000	 0.009450  
997.000000	 0.009199  
996.000000	 0.009028  
995.000000	 0.009025  
994.000000	 0.009136  
993.000000	 0.009234  
992.000000	 0.009250  
991.000000	 0.009219  
990.000000	 0.009209  
989.000000	 0.009260  
988.000000	 0.009363  
987.000000	 0.009466  
986.000000	 0.009502  
985.000000	 0.009464  
984.000000	 0.009432  
983.000000	 0.009496  
982.000000	 0.009644  
981.000000	 0.009780  
980.000000	 0.009857  
979.000000	 0.009932  
978.000000	 0.010066  
977.000000	 0.010239  
976.000000	 0.010377  
975.000000	 0.010457  
974.000000	 0.010521  
973.000000	 0.010625  
972.000000	 0.010791  
971.000000	 0.011008  
970.000000	 0.011240  
969.000000	 0.011439  
968.000000	 0.011573  
967.000000	 0.011635  
966.000000	 0.011622  
965.000000	 0.011522  
964.000000	 0.011336  
963.000000	 0.011118  
962.000000	 0.010959  
961.000000	 0.010907  
960.000000	 0.010917  
959.000000	 0.010899  
958.000000	 0.010806  
957.000000	 0.010679  
956.000000	 0.010603  
955.000000	 0.010624  
954.000000	 0.010715  
953.000000	 0.010808  
952.000000	 0.010852  
951.000000	 0.010846  
950.000000	 0.010820  
949.000000	 0.010800  
948.000000	 0.010790  
947.000000	 0.010791  
946.000000	 0.010813  
945.000000	 0.010864  
944.000000	 0.010921  
943.000000	 0.010933  
942.000000	 0.010867  
941.000000	 0.010735  
940.000000	 0.010570  
939.000000	 0.010377  
938.000000	 0.010136  
937.000000	 0.009856  
936.000000	 0.009589  
935.000000	 0.009384  
934.000000	 0.009262  
933.000000	 0.009238  
932.000000	 0.009327  
931.000000	 0.009479  
930.000000	 0.009571  
929.000000	 0.009509  
928.000000	 0.009347  
927.000000	 0.009241  
926.000000	 0.009284  
925.000000	 0.009426  
924.000000	 0.009564  
923.000000	 0.009658  
922.000000	 0.009734  
921.000000	 0.009796  
920.000000	 0.009796  
919.000000	 0.009700  
918.000000	 0.009549  
917.000000	 0.009443  
916.000000	 0.009451  
915.000000	 0.009542  
914.000000	 0.009612  
913.000000	 0.009586  
912.000000	 0.009472  
911.000000	 0.009334  
910.000000	 0.009226  
909.000000	 0.009177  
908.000000	 0.009198  
907.000000	 0.009257  
906.000000	 0.009268  
905.000000	 0.009172  
904.000000	 0.009033  
903.000000	 0.009004  
902.000000	 0.009155  
901.000000	 0.009384  
900.000000	 0.009528  
899.000000	 0.009532  
898.000000	 0.009474  
897.000000	 0.009448  
896.000000	 0.009471  
895.000000	 0.009503  
894.000000	 0.009515  
893.000000	 0.009521  
892.000000	 0.009555  
891.000000	 0.009643  
890.000000	 0.009788  
889.000000	 0.009958  
888.000000	 0.010100  
887.000000	 0.010158  
886.000000	 0.010101  
885.000000	 0.009934  
884.000000	 0.009700  
883.000000	 0.009470  
882.000000	 0.009326  
881.000000	 0.009324  
880.000000	 0.009452  
879.000000	 0.009625  
878.000000	 0.009751  
877.000000	 0.009807  
876.000000	 0.009838  
875.000000	 0.009874  
874.000000	 0.009868  
873.000000	 0.009729  
872.000000	 0.009426  
871.000000	 0.009053  
870.000000	 0.008793  
869.000000	 0.008795  
868.000000	 0.009043  
867.000000	 0.009337  
866.000000	 0.009446  
865.000000	 0.009297  
864.000000	 0.009017  
863.000000	 0.008793  
862.000000	 0.008722  
861.000000	 0.008792  
860.000000	 0.008954  
859.000000	 0.009135  
858.000000	 0.009237  
857.000000	 0.009208  
856.000000	 0.009131  
855.000000	 0.009182  
854.000000	 0.009467  
853.000000	 0.009921  
852.000000	 0.010387  
851.000000	 0.010751  
850.000000	 0.010995  
849.000000	 0.011138  
848.000000	 0.011173  
847.000000	 0.011088  
846.000000	 0.010916  
845.000000	 0.010745  
844.000000	 0.010640  
843.000000	 0.010582  
842.000000	 0.010487  
841.000000	 0.010318  
840.000000	 0.010143  
839.000000	 0.010074  
838.000000	 0.010151  
837.000000	 0.010288  
836.000000	 0.010316  
835.000000	 0.010089  
834.000000	 0.009600  
833.000000	 0.009036  
832.000000	 0.008660  
831.000000	 0.008601  
830.000000	 0.008744  
829.000000	 0.008888  
828.000000	 0.008987  
827.000000	 0.009165  
826.000000	 0.009491  
825.000000	 0.009845  
824.000000	 0.010036  
823.000000	 0.010012  
822.000000	 0.009875  
821.000000	 0.009777  
820.000000	 0.009820  
819.000000	 0.010028  
818.000000	 0.010353  
817.000000	 0.010715  
816.000000	 0.011051  
815.000000	 0.011293  
814.000000	 0.011357  
813.000000	 0.011211  
812.000000	 0.010966  
811.000000	 0.010833  
810.000000	 0.010953  
809.000000	 0.011289  
808.000000	 0.011692  
807.000000	 0.012031  
806.000000	 0.012231  
805.000000	 0.012243  
804.000000	 0.012035  
803.000000	 0.011640  
802.000000	 0.011161  
801.000000	 0.010723  
800.000000	 0.010392  
799.000000	 0.010147  
798.000000	 0.009921  
797.000000	 0.009678  
796.000000	 0.009447  
795.000000	 0.009272  
794.000000	 0.009157  
793.000000	 0.009087  
792.000000	 0.009086  
791.000000	 0.009197  
790.000000	 0.009388  
789.000000	 0.009546  
788.000000	 0.009592  
787.000000	 0.009595  
786.000000	 0.009712  
785.000000	 0.010022  
784.000000	 0.010450  
783.000000	 0.010849  
782.000000	 0.011146  
781.000000	 0.011389  
780.000000	 0.011656  
779.000000	 0.011961  
778.000000	 0.012272  
777.000000	 0.012589  
776.000000	 0.012956  
775.000000	 0.013385  
774.000000	 0.013815  
773.000000	 0.014169  
772.000000	 0.014442  
771.000000	 0.014679  
770.000000	 0.014910  
769.000000	 0.015119  
768.000000	 0.015274  
767.000000	 0.015323  
766.000000	 0.015188  
765.000000	 0.014828  
764.000000	 0.014341  
763.000000	 0.013946  
762.000000	 0.013828  
761.000000	 0.013989  
760.000000	 0.014265  
759.000000	 0.014479  
758.000000	 0.014586  
757.000000	 0.014670  
756.000000	 0.014836  
755.000000	 0.015077  
754.000000	 0.015287  
753.000000	 0.015391  
752.000000	 0.015420  
751.000000	 0.015462  
750.000000	 0.015564  
749.000000	 0.015744  
748.000000	 0.016067  
747.000000	 0.016649  
746.000000	 0.017575  
745.000000	 0.018824  
744.000000	 0.020267  
743.000000	 0.021684  
742.000000	 0.022828  
741.000000	 0.023543  
740.000000	 0.023860  
739.000000	 0.023932  
738.000000	 0.023870  
737.000000	 0.023684  
736.000000	 0.023366  
735.000000	 0.022991  
734.000000	 0.022699  
733.000000	 0.022612  
732.000000	 0.022764  
731.000000	 0.023080  
730.000000	 0.023453  
729.000000	 0.023898  
728.000000	 0.024584  
727.000000	 0.025649  
726.000000	 0.026980  
725.000000	 0.028274  
724.000000	 0.029334  
723.000000	 0.030163  
722.000000	 0.030704  
721.000000	 0.030607  
720.000000	 0.029476  
719.000000	 0.027426  
718.000000	 0.025106  
717.000000	 0.023143  
716.000000	 0.021753  
715.000000	 0.020786  
714.000000	 0.019956  
713.000000	 0.019062  
712.000000	 0.018102  
711.000000	 0.017234  
710.000000	 0.016629  
709.000000	 0.016332  
708.000000	 0.016251  
707.000000	 0.016279  
706.000000	 0.016410  
705.000000	 0.016684  
704.000000	 0.017054  
703.000000	 0.017346  
702.000000	 0.017412  
701.000000	 0.017314  
700.000000	 0.017240  
699.000000	 0.017258  
698.000000	 0.017175  
697.000000	 0.016716  
696.000000	 0.015886  
695.000000	 0.015032  
694.000000	 0.014503  
693.000000	 0.014262  
692.000000	 0.013904  
691.000000	 0.013131  
690.000000	 0.012094  
689.000000	 0.011185  
688.000000	 0.010532  
687.000000	 0.009853  
686.000000	 0.008922  
685.000000	 0.007954  
684.000000	 0.007367  
683.000000	 0.007301  
682.000000	 0.007553  
681.000000	 0.007832  
680.000000	 0.007955  
679.000000	 0.007801  
678.000000	 0.007410  
677.000000	 0.007251  
676.000000	 0.007245  
675.000000	 0.007322  
674.000000	 0.007470  
673.000000	 0.007039  
672.000000	 0.005255  
671.000000	 0.002024  
670.000000	 -0.002001 
669.000000	 -0.007443 
668.000000	 -0.013252 
667.000000	 -0.012902 
666.000000	 -0.007356 
665.000000	 -0.001650 
664.000000	 0.003207  
663.000000	 0.006445  
662.000000	 0.007659  
661.000000	 0.007475  
660.000000	 0.007086  
659.000000	 0.007022  
658.000000	 0.007060  
657.000000	 0.006953  
656.000000	 0.006126  
655.000000	 0.004658  
654.000000	 0.003507  
653.000000	 0.003410  
652.000000	 0.004272  
651.000000	 0.005366  
650.000000	 0.006031  

