PE IR                   SPECTRUM    ASCII       PEDS        1.60        
  -1
NB4-25~1.ASC
17/04/10
13:51:09.00
17/04/10
13:51:09.00
Admin

650.000000
6









SPECTRUM ONE,CPU32 MAIN 00.02.5000 17-APRIL-2002 13:00:00
MIR TGS
MIR
OPTKBR
68128
0.200000

4.000000
STRONG
RATIO
SPECTRUM
MAGNITUDE

DOUBLE

COMBINED


0


#HDR
-1
-1
#GR
CM-1
A
0.00000011920928955078
0.0
4000.000000
-1.000000
3351
8
0.206101
-0.015877
#DATA
4000.000000	0.001316  
3999.000000	0.001382  
3998.000000	0.001533  
3997.000000	0.001749  
3996.000000	0.001983  
3995.000000	0.001866  
3994.000000	0.001992  
3993.000000	0.002040  
3992.000000	0.001998  
3991.000000	0.001883  
3990.000000	0.001739  
3989.000000	0.001611  
3988.000000	0.001519  
3987.000000	0.001464  
3986.000000	0.001447  
3985.000000	0.001468  
3984.000000	0.001504  
3983.000000	0.001495  
3982.000000	0.001398  
3981.000000	0.001237  
3980.000000	0.001087  
3979.000000	0.001020  
3978.000000	0.001048  
3977.000000	0.001139  
3976.000000	0.001264  
3975.000000	0.001406  
3974.000000	0.001542  
3973.000000	0.001620  
3972.000000	0.001602  
3971.000000	0.001508  
3970.000000	0.001415  
3969.000000	0.001385  
3968.000000	0.001404  
3967.000000	0.001419  
3966.000000	0.001401  
3965.000000	0.001383  
3964.000000	0.001412  
3963.000000	0.001497  
3962.000000	0.001601  
3961.000000	0.001681  
3960.000000	0.001727  
3959.000000	0.001747  
3958.000000	0.001740  
3957.000000	0.001691  
3956.000000	0.001593  
3955.000000	0.001463  
3954.000000	0.001340  
3953.000000	0.001268  
3952.000000	0.001270  
3951.000000	0.001333  
3950.000000	0.001434  
3949.000000	0.001557  
3948.000000	0.001695  
3947.000000	0.001825  
3946.000000	0.001893  
3945.000000	0.001851  
3944.000000	0.001709  
3943.000000	0.001541  
3942.000000	0.001425  
3941.000000	0.001385  
3940.000000	0.001415  
3939.000000	0.001509  
3938.000000	0.001658  
3937.000000	0.001820  
3936.000000	0.001925  
3935.000000	0.001941  
3934.000000	0.001905  
3933.000000	0.001891  
3932.000000	0.001929  
3931.000000	0.001978  
3930.000000	0.001990  
3929.000000	0.001953  
3928.000000	0.001907  
3927.000000	0.001906  
3926.000000	0.001972  
3925.000000	0.002078  
3924.000000	0.002168  
3923.000000	0.002211  
3922.000000	0.002220  
3921.000000	0.002217  
3920.000000	0.002205  
3919.000000	0.002168  
3918.000000	0.002104  
3917.000000	0.002040  
3916.000000	0.002002  
3915.000000	0.001986  
3914.000000	0.001956  
3913.000000	0.001876  
3912.000000	0.001736  
3911.000000	0.001571  
3910.000000	0.001447  
3909.000000	0.001430  
3908.000000	0.001539  
3907.000000	0.001738  
3906.000000	0.001960  
3905.000000	0.002153  
3904.000000	0.002282  
3903.000000	0.002307  
3902.000000	0.002216  
3901.000000	0.002074  
3900.000000	0.001997  
3899.000000	0.002046  
3898.000000	0.002165  
3897.000000	0.002243  
3896.000000	0.002219  
3895.000000	0.002102  
3894.000000	0.001949  
3893.000000	0.001823  
3892.000000	0.001764  
3891.000000	0.001760  
3890.000000	0.001770  
3889.000000	0.001781  
3888.000000	0.001808  
3887.000000	0.001874  
3886.000000	0.001971  
3885.000000	0.002042  
3884.000000	0.002022  
3883.000000	0.001900  
3882.000000	0.001731  
3881.000000	0.001604  
3880.000000	0.001566  
3879.000000	0.001599  
3878.000000	0.001669  
3877.000000	0.001761  
3876.000000	0.001885  
3875.000000	0.002074  
3874.000000	0.002348  
3873.000000	0.002669  
3872.000000	0.002959  
3871.000000	0.003161  
3870.000000	0.003262  
3869.000000	0.003265  
3868.000000	0.003178  
3867.000000	0.003018  
3866.000000	0.002797  
3865.000000	0.002547  
3864.000000	0.002335  
3863.000000	0.002221  
3862.000000	0.002216  
3861.000000	0.002254  
3860.000000	0.002264  
3859.000000	0.002245  
3858.000000	0.002259  
3857.000000	0.002350  
3856.000000	0.002455  
3855.000000	0.002444  
3854.000000	0.002359  
3853.000000	0.002305  
3852.000000	0.002268  
3851.000000	0.002242  
3850.000000	0.002270  
3849.000000	0.002383  
3848.000000	0.002582  
3847.000000	0.002827  
3846.000000	0.003075  
3845.000000	0.003323  
3844.000000	0.003598  
3843.000000	0.003893  
3842.000000	0.004168  
3841.000000	0.004362  
3840.000000	0.004418  
3839.000000	0.004297  
3838.000000	0.004010  
3837.000000	0.003651  
3836.000000	0.003348  
3835.000000	0.003176  
3834.000000	0.003128  
3833.000000	0.003135  
3832.000000	0.003119  
3831.000000	0.003044  
3830.000000	0.002920  
3829.000000	0.002771  
3828.000000	0.002613  
3827.000000	0.002480  
3826.000000	0.002447  
3825.000000	0.002597  
3824.000000	0.002949  
3823.000000	0.003408  
3822.000000	0.003817  
3821.000000	0.004040  
3820.000000	0.004018  
3819.000000	0.003794  
3818.000000	0.003456  
3817.000000	0.003089  
3816.000000	0.002768  
3815.000000	0.002522  
3814.000000	0.002339  
3813.000000	0.002204  
3812.000000	0.002111  
3811.000000	0.002059  
3810.000000	0.002039  
3809.000000	0.002052  
3808.000000	0.002140  
3807.000000	0.002364  
3806.000000	0.002741  
3805.000000	0.003220  
3804.000000	0.003674  
3803.000000	0.003898  
3802.000000	0.003754  
3801.000000	0.003335  
3800.000000	0.002893  
3799.000000	0.002622  
3798.000000	0.002551  
3797.000000	0.002585  
3796.000000	0.002590  
3795.000000	0.002493  
3794.000000	0.002318  
3793.000000	0.002140  
3792.000000	0.002006  
3791.000000	0.001912  
3790.000000	0.001837  
3789.000000	0.001782  
3788.000000	0.001768  
3787.000000	0.001800  
3786.000000	0.001851  
3785.000000	0.001891  
3784.000000	0.001928  
3783.000000	0.001986  
3782.000000	0.002061  
3781.000000	0.002107  
3780.000000	0.002093  
3779.000000	0.002047  
3778.000000	0.002015  
3777.000000	0.002005  
3776.000000	0.001986  
3775.000000	0.001932  
3774.000000	0.001862  
3773.000000	0.001837  
3772.000000	0.001917  
3771.000000	0.002119  
3770.000000	0.002393  
3769.000000	0.002630  
3768.000000	0.002727  
3767.000000	0.002649  
3766.000000	0.002435  
3765.000000	0.002188  
3764.000000	0.002023  
3763.000000	0.001998  
3762.000000	0.002105  
3761.000000	0.002296  
3760.000000	0.002512  
3759.000000	0.002709  
3758.000000	0.002858  
3757.000000	0.002938  
3756.000000	0.002957  
3755.000000	0.003003  
3754.000000	0.003266  
3753.000000	0.003912  
3752.000000	0.004819  
3751.000000	0.005486  
3750.000000	0.005515  
3749.000000	0.005068  
3748.000000	0.004556  
3747.000000	0.004231  
3746.000000	0.004118  
3745.000000	0.004130  
3744.000000	0.004150  
3743.000000	0.004139  
3742.000000	0.004161  
3741.000000	0.004273  
3740.000000	0.004484  
3739.000000	0.004769  
3738.000000	0.005061  
3737.000000	0.005259  
3736.000000	0.005256  
3735.000000	0.005043  
3734.000000	0.004762  
3733.000000	0.004557  
3732.000000	0.004422  
3731.000000	0.004286  
3730.000000	0.004126  
3729.000000	0.003958  
3728.000000	0.003786  
3727.000000	0.003615  
3726.000000	0.003483  
3725.000000	0.003437  
3724.000000	0.003453  
3723.000000	0.003423  
3722.000000	0.003241  
3721.000000	0.002894  
3720.000000	0.002484  
3719.000000	0.002152  
3718.000000	0.001998  
3717.000000	0.002030  
3716.000000	0.002168  
3715.000000	0.002312  
3714.000000	0.002413  
3713.000000	0.002538  
3712.000000	0.002806  
3711.000000	0.003198  
3710.000000	0.003527  
3709.000000	0.003643  
3708.000000	0.003571  
3707.000000	0.003450  
3706.000000	0.003370  
3705.000000	0.003276  
3704.000000	0.003036  
3703.000000	0.002604  
3702.000000	0.002126  
3701.000000	0.001808  
3700.000000	0.001715  
3699.000000	0.001762  
3698.000000	0.001842  
3697.000000	0.001928  
3696.000000	0.002080  
3695.000000	0.002358  
3694.000000	0.002738  
3693.000000	0.003090  
3692.000000	0.003258  
3691.000000	0.003191  
3690.000000	0.003012  
3689.000000	0.002870  
3688.000000	0.002777  
3687.000000	0.002669  
3686.000000	0.002531  
3685.000000	0.002421  
3684.000000	0.002410  
3683.000000	0.002496  
3682.000000	0.002594  
3681.000000	0.002625  
3680.000000	0.002613  
3679.000000	0.002664  
3678.000000	0.002872  
3677.000000	0.003215  
3676.000000	0.003554  
3675.000000	0.003705  
3674.000000	0.003650  
3673.000000	0.003540  
3672.000000	0.003518  
3671.000000	0.003585  
3670.000000	0.003619  
3669.000000	0.003488  
3668.000000	0.003181  
3667.000000	0.002802  
3666.000000	0.002443  
3665.000000	0.002117  
3664.000000	0.001784  
3663.000000	0.001426  
3662.000000	0.001099  
3661.000000	0.000896  
3660.000000	0.000872  
3659.000000	0.001017  
3658.000000	0.001296  
3657.000000	0.001685  
3656.000000	0.002147  
3655.000000	0.002605  
3654.000000	0.002987  
3653.000000	0.003250  
3652.000000	0.003381  
3651.000000	0.003430  
3650.000000	0.003463  
3649.000000	0.003445  
3648.000000	0.003323  
3647.000000	0.003145  
3646.000000	0.002977  
3645.000000	0.002843  
3644.000000	0.002760  
3643.000000	0.002766  
3642.000000	0.002873  
3641.000000	0.003022  
3640.000000	0.003100  
3639.000000	0.003042  
3638.000000	0.002891  
3637.000000	0.002768  
3636.000000	0.002777  
3635.000000	0.002936  
3634.000000	0.003168  
3633.000000	0.003373  
3632.000000	0.003502  
3631.000000	0.003592  
3630.000000	0.003730  
3629.000000	0.003919  
3628.000000	0.004001  
3627.000000	0.003892  
3626.000000	0.003671  
3625.000000	0.003453  
3624.000000	0.003291  
3623.000000	0.003160  
3622.000000	0.002982  
3621.000000	0.002712  
3620.000000	0.002419  
3619.000000	0.002237  
3618.000000	0.002231  
3617.000000	0.002363  
3616.000000	0.002556  
3615.000000	0.002756  
3614.000000	0.002956  
3613.000000	0.003173  
3612.000000	0.003404  
3611.000000	0.003622  
3610.000000	0.003784  
3609.000000	0.003823  
3608.000000	0.003683  
3607.000000	0.003366  
3606.000000	0.002944  
3605.000000	0.002528  
3604.000000	0.002235  
3603.000000	0.002171  
3602.000000	0.002384  
3601.000000	0.002821  
3600.000000	0.003341  
3599.000000	0.003782  
3598.000000	0.004020  
3597.000000	0.004012  
3596.000000	0.003811  
3595.000000	0.003548  
3594.000000	0.003347  
3593.000000	0.003224  
3592.000000	0.003102  
3591.000000	0.002922  
3590.000000	0.002738  
3589.000000	0.002702  
3588.000000	0.002909  
3587.000000	0.003226  
3586.000000	0.003407  
3585.000000	0.003330  
3584.000000	0.003038  
3583.000000	0.002669  
3582.000000	0.002378  
3581.000000	0.002286  
3580.000000	0.002409  
3579.000000	0.002640  
3578.000000	0.002819  
3577.000000	0.002854  
3576.000000	0.002784  
3575.000000	0.002691  
3574.000000	0.002597  
3573.000000	0.002458  
3572.000000	0.002258  
3571.000000	0.002083  
3570.000000	0.002084  
3569.000000	0.002339  
3568.000000	0.002724  
3567.000000	0.002979  
3566.000000	0.002996  
3565.000000	0.002897  
3564.000000	0.002830  
3563.000000	0.002812  
3562.000000	0.002804  
3561.000000	0.002800  
3560.000000	0.002850  
3559.000000	0.002977  
3558.000000	0.003120  
3557.000000	0.003173  
3556.000000	0.003081  
3555.000000	0.002887  
3554.000000	0.002696  
3553.000000	0.002608  
3552.000000	0.002659  
3551.000000	0.002793  
3550.000000	0.002899  
3549.000000	0.002864  
3548.000000	0.002667  
3547.000000	0.002430  
3546.000000	0.002347  
3545.000000	0.002497  
3544.000000	0.002765  
3543.000000	0.002971  
3542.000000	0.003054  
3541.000000	0.003092  
3540.000000	0.003155  
3539.000000	0.003193  
3538.000000	0.003090  
3537.000000	0.002817  
3536.000000	0.002506  
3535.000000	0.002337  
3534.000000	0.002388  
3533.000000	0.002594  
3532.000000	0.002846  
3531.000000	0.003068  
3530.000000	0.003234  
3529.000000	0.003332  
3528.000000	0.003343  
3527.000000	0.003248  
3526.000000	0.003058  
3525.000000	0.002821  
3524.000000	0.002622  
3523.000000	0.002545  
3522.000000	0.002618  
3521.000000	0.002784  
3520.000000	0.002938  
3519.000000	0.003018  
3518.000000	0.003040  
3517.000000	0.003068  
3516.000000	0.003147  
3515.000000	0.003277  
3514.000000	0.003429  
3513.000000	0.003566  
3512.000000	0.003653  
3511.000000	0.003677  
3510.000000	0.003662  
3509.000000	0.003637  
3508.000000	0.003613  
3507.000000	0.003585  
3506.000000	0.003558  
3505.000000	0.003546  
3504.000000	0.003556  
3503.000000	0.003578  
3502.000000	0.003610  
3501.000000	0.003655  
3500.000000	0.003708  
3499.000000	0.003757  
3498.000000	0.003794  
3497.000000	0.003814  
3496.000000	0.003809  
3495.000000	0.003782  
3494.000000	0.003760  
3493.000000	0.003752  
3492.000000	0.003717  
3491.000000	0.003603  
3490.000000	0.003424  
3489.000000	0.003276  
3488.000000	0.003247  
3487.000000	0.003358  
3486.000000	0.003571  
3485.000000	0.003823  
3484.000000	0.004027  
3483.000000	0.004085  
3482.000000	0.003963  
3481.000000	0.003734  
3480.000000	0.003527  
3479.000000	0.003421  
3478.000000	0.003416  
3477.000000	0.003480  
3476.000000	0.003578  
3475.000000	0.003679  
3474.000000	0.003760  
3473.000000	0.003810  
3472.000000	0.003824  
3471.000000	0.003789  
3470.000000	0.003709  
3469.000000	0.003629  
3468.000000	0.003602  
3467.000000	0.003641  
3466.000000	0.003702  
3465.000000	0.003721  
3464.000000	0.003657  
3463.000000	0.003519  
3462.000000	0.003368  
3461.000000	0.003298  
3460.000000	0.003356  
3459.000000	0.003497  
3458.000000	0.003618  
3457.000000	0.003655  
3456.000000	0.003620  
3455.000000	0.003575  
3454.000000	0.003581  
3453.000000	0.003682  
3452.000000	0.003879  
3451.000000	0.004115  
3450.000000	0.004300  
3449.000000	0.004380  
3448.000000	0.004370  
3447.000000	0.004332  
3446.000000	0.004326  
3445.000000	0.004383  
3444.000000	0.004492  
3443.000000	0.004590  
3442.000000	0.004604  
3441.000000	0.004526  
3440.000000	0.004446  
3439.000000	0.004462  
3438.000000	0.004568  
3437.000000	0.004651  
3436.000000	0.004594  
3435.000000	0.004403  
3434.000000	0.004212  
3433.000000	0.004171  
3432.000000	0.004308  
3431.000000	0.004503  
3430.000000	0.004604  
3429.000000	0.004541  
3428.000000	0.004341  
3427.000000	0.004070  
3426.000000	0.003807  
3425.000000	0.003659  
3424.000000	0.003713  
3423.000000	0.003960  
3422.000000	0.004280  
3421.000000	0.004526  
3420.000000	0.004620  
3419.000000	0.004581  
3418.000000	0.004480  
3417.000000	0.004404  
3416.000000	0.004402  
3415.000000	0.004456  
3414.000000	0.004505  
3413.000000	0.004529  
3412.000000	0.004578  
3411.000000	0.004703  
3410.000000	0.004861  
3409.000000	0.004930  
3408.000000	0.004818  
3407.000000	0.004563  
3406.000000	0.004312  
3405.000000	0.004206  
3404.000000	0.004274  
3403.000000	0.004441  
3402.000000	0.004617  
3401.000000	0.004771  
3400.000000	0.004884  
3399.000000	0.004905  
3398.000000	0.004803  
3397.000000	0.004665  
3396.000000	0.004670  
3395.000000	0.004903  
3394.000000	0.005257  
3393.000000	0.005529  
3392.000000	0.005595  
3391.000000	0.005485  
3390.000000	0.005299  
3389.000000	0.005132  
3388.000000	0.005030  
3387.000000	0.004979  
3386.000000	0.004923  
3385.000000	0.004830  
3384.000000	0.004740  
3383.000000	0.004726  
3382.000000	0.004807  
3381.000000	0.004926  
3380.000000	0.005018  
3379.000000	0.005053  
3378.000000	0.005021  
3377.000000	0.004915  
3376.000000	0.004759  
3375.000000	0.004634  
3374.000000	0.004623  
3373.000000	0.004736  
3372.000000	0.004899  
3371.000000	0.005037  
3370.000000	0.005143  
3369.000000	0.005265  
3368.000000	0.005421  
3367.000000	0.005563  
3366.000000	0.005626  
3365.000000	0.005599  
3364.000000	0.005517  
3363.000000	0.005415  
3362.000000	0.005320  
3361.000000	0.005275  
3360.000000	0.005321  
3359.000000	0.005426  
3358.000000	0.005486  
3357.000000	0.005437  
3356.000000	0.005342  
3355.000000	0.005306  
3354.000000	0.005343  
3353.000000	0.005370  
3352.000000	0.005322  
3351.000000	0.005220  
3350.000000	0.005112  
3349.000000	0.005016  
3348.000000	0.004954  
3347.000000	0.004976  
3346.000000	0.005112  
3345.000000	0.005296  
3344.000000	0.005413  
3343.000000	0.005402  
3342.000000	0.005300  
3341.000000	0.005184  
3340.000000	0.005097  
3339.000000	0.005044  
3338.000000	0.005033  
3337.000000	0.005080  
3336.000000	0.005175  
3335.000000	0.005263  
3334.000000	0.005277  
3333.000000	0.005209  
3332.000000	0.005120  
3331.000000	0.005079  
3330.000000	0.005119  
3329.000000	0.005223  
3328.000000	0.005352  
3327.000000	0.005449  
3326.000000	0.005454  
3325.000000	0.005354  
3324.000000	0.005219  
3323.000000	0.005158  
3322.000000	0.005212  
3321.000000	0.005325  
3320.000000	0.005420  
3319.000000	0.005485  
3318.000000	0.005563  
3317.000000	0.005679  
3316.000000	0.005788  
3315.000000	0.005810  
3314.000000	0.005703  
3313.000000	0.005510  
3312.000000	0.005340  
3311.000000	0.005302  
3310.000000	0.005427  
3309.000000	0.005634  
3308.000000	0.005774  
3307.000000	0.005742  
3306.000000	0.005572  
3305.000000	0.005421  
3304.000000	0.005422  
3303.000000	0.005567  
3302.000000	0.005728  
3301.000000	0.005798  
3300.000000	0.005772  
3299.000000	0.005682  
3298.000000	0.005540  
3297.000000	0.005370  
3296.000000	0.005249  
3295.000000	0.005247  
3294.000000	0.005339  
3293.000000	0.005443  
3292.000000	0.005525  
3291.000000	0.005615  
3290.000000	0.005702  
3289.000000	0.005716  
3288.000000	0.005612  
3287.000000	0.005440  
3286.000000	0.005287  
3285.000000	0.005183  
3284.000000	0.005108  
3283.000000	0.005047  
3282.000000	0.005015  
3281.000000	0.005014  
3280.000000	0.005036  
3279.000000	0.005082  
3278.000000	0.005165  
3277.000000	0.005293  
3276.000000	0.005471  
3275.000000	0.005701  
3274.000000	0.005966  
3273.000000	0.006194  
3272.000000	0.006286  
3271.000000	0.006186  
3270.000000	0.005933  
3269.000000	0.005627  
3268.000000	0.005355  
3267.000000	0.005143  
3266.000000	0.004990  
3265.000000	0.004919  
3264.000000	0.004967  
3263.000000	0.005127  
3262.000000	0.005323  
3261.000000	0.005482  
3260.000000	0.005605  
3259.000000	0.005743  
3258.000000	0.005903  
3257.000000	0.006009  
3256.000000	0.005983  
3255.000000	0.005839  
3254.000000	0.005688  
3253.000000	0.005664  
3252.000000	0.005807  
3251.000000	0.006019  
3250.000000	0.006129  
3249.000000	0.006050  
3248.000000	0.005863  
3247.000000	0.005725  
3246.000000	0.005691  
3245.000000	0.005690  
3244.000000	0.005668  
3243.000000	0.005664  
3242.000000	0.005728  
3241.000000	0.005814  
3240.000000	0.005826  
3239.000000	0.005725  
3238.000000	0.005541  
3237.000000	0.005325  
3236.000000	0.005124  
3235.000000	0.004998  
3234.000000	0.004978  
3233.000000	0.005035  
3232.000000	0.005121  
3231.000000	0.005218  
3230.000000	0.005329  
3229.000000	0.005417  
3228.000000	0.005438  
3227.000000	0.005411  
3226.000000	0.005411  
3225.000000	0.005486  
3224.000000	0.005600  
3223.000000	0.005676  
3222.000000	0.005648  
3221.000000	0.005493  
3220.000000	0.005253  
3219.000000	0.005044  
3218.000000	0.004989  
3217.000000	0.005119  
3216.000000	0.005349  
3215.000000	0.005556  
3214.000000	0.005675  
3213.000000	0.005711  
3212.000000	0.005705  
3211.000000	0.005689  
3210.000000	0.005664  
3209.000000	0.005619  
3208.000000	0.005573  
3207.000000	0.005582  
3206.000000	0.005679  
3205.000000	0.005814  
3204.000000	0.005907  
3203.000000	0.005943  
3202.000000	0.005970  
3201.000000	0.006000  
3200.000000	0.005957  
3199.000000	0.005773  
3198.000000	0.005474  
3197.000000	0.005147  
3196.000000	0.004849  
3195.000000	0.004603  
3194.000000	0.004450  
3193.000000	0.004440  
3192.000000	0.004569  
3191.000000	0.004771  
3190.000000	0.004986  
3189.000000	0.005206  
3188.000000	0.005431  
3187.000000	0.005612  
3186.000000	0.005691  
3185.000000	0.005667  
3184.000000	0.005590  
3183.000000	0.005492  
3182.000000	0.005357  
3181.000000	0.005179  
3180.000000	0.005005  
3179.000000	0.004884  
3178.000000	0.004820  
3177.000000	0.004792  
3176.000000	0.004814  
3175.000000	0.004909  
3174.000000	0.005040  
3173.000000	0.005119  
3172.000000	0.005094  
3171.000000	0.005010  
3170.000000	0.004945  
3169.000000	0.004928  
3168.000000	0.004936  
3167.000000	0.004944  
3166.000000	0.004946  
3165.000000	0.004952  
3164.000000	0.004978  
3163.000000	0.005027  
3162.000000	0.005078  
3161.000000	0.005096  
3160.000000	0.005083  
3159.000000	0.005085  
3158.000000	0.005136  
3157.000000	0.005209  
3156.000000	0.005248  
3155.000000	0.005235  
3154.000000	0.005206  
3153.000000	0.005202  
3152.000000	0.005215  
3151.000000	0.005189  
3150.000000	0.005059  
3149.000000	0.004826  
3148.000000	0.004579  
3147.000000	0.004430  
3146.000000	0.004406  
3145.000000	0.004443  
3144.000000	0.004486  
3143.000000	0.004548  
3142.000000	0.004644  
3141.000000	0.004727  
3140.000000	0.004752  
3139.000000	0.004754  
3138.000000	0.004814  
3137.000000	0.004944  
3136.000000	0.005052  
3135.000000	0.005045  
3134.000000	0.004923  
3133.000000	0.004774  
3132.000000	0.004714  
3131.000000	0.004800  
3130.000000	0.004982  
3129.000000	0.005120  
3128.000000	0.005111  
3127.000000	0.004972  
3126.000000	0.004814  
3125.000000	0.004721  
3124.000000	0.004711  
3123.000000	0.004780  
3122.000000	0.004918  
3121.000000	0.005070  
3120.000000	0.005137  
3119.000000	0.005058  
3118.000000	0.004870  
3117.000000	0.004679  
3116.000000	0.004589  
3115.000000	0.004646  
3114.000000	0.004811  
3113.000000	0.004982  
3112.000000	0.005070  
3111.000000	0.005078  
3110.000000	0.005070  
3109.000000	0.005076  
3108.000000	0.005051  
3107.000000	0.004948  
3106.000000	0.004783  
3105.000000	0.004627  
3104.000000	0.004551  
3103.000000	0.004589  
3102.000000	0.004719  
3101.000000	0.004856  
3100.000000	0.004900  
3099.000000	0.004822  
3098.000000	0.004691  
3097.000000	0.004606  
3096.000000	0.004614  
3095.000000	0.004694  
3094.000000	0.004787  
3093.000000	0.004836  
3092.000000	0.004830  
3091.000000	0.004816  
3090.000000	0.004847  
3089.000000	0.004911  
3088.000000	0.004948  
3087.000000	0.004945  
3086.000000	0.004962  
3085.000000	0.005036  
3084.000000	0.005112  
3083.000000	0.005112  
3082.000000	0.005046  
3081.000000	0.005004  
3080.000000	0.005059  
3079.000000	0.005211  
3078.000000	0.005416  
3077.000000	0.005612  
3076.000000	0.005721  
3075.000000	0.005682  
3074.000000	0.005517  
3073.000000	0.005326  
3072.000000	0.005229  
3071.000000	0.005282  
3070.000000	0.005458  
3069.000000	0.005661  
3068.000000	0.005779  
3067.000000	0.005763  
3066.000000	0.005661  
3065.000000	0.005585  
3064.000000	0.005614  
3063.000000	0.005734  
3062.000000	0.005866  
3061.000000	0.005937  
3060.000000	0.005934  
3059.000000	0.005896  
3058.000000	0.005862  
3057.000000	0.005829  
3056.000000	0.005775  
3055.000000	0.005718  
3054.000000	0.005710  
3053.000000	0.005751  
3052.000000	0.005755  
3051.000000	0.005656  
3050.000000	0.005509  
3049.000000	0.005458  
3048.000000	0.005577  
3047.000000	0.005802  
3046.000000	0.006002  
3045.000000	0.006097  
3044.000000	0.006086  
3043.000000	0.006011  
3042.000000	0.005931  
3041.000000	0.005898  
3040.000000	0.005942  
3039.000000	0.006060  
3038.000000	0.006212  
3037.000000	0.006339  
3036.000000	0.006393  
3035.000000	0.006369  
3034.000000	0.006313  
3033.000000	0.006295  
3032.000000	0.006361  
3031.000000	0.006518  
3030.000000	0.006741  
3029.000000	0.006985  
3028.000000	0.007201  
3027.000000	0.007383  
3026.000000	0.007582  
3025.000000	0.007860  
3024.000000	0.008226  
3023.000000	0.008628  
3022.000000	0.009001  
3021.000000	0.009294  
3020.000000	0.009495  
3019.000000	0.009660  
3018.000000	0.009918  
3017.000000	0.010377  
3016.000000	0.011009  
3015.000000	0.011654  
3014.000000	0.012157  
3013.000000	0.012482  
3012.000000	0.012679  
3011.000000	0.012797  
3010.000000	0.012855  
3009.000000	0.012871  
3008.000000	0.012874  
3007.000000	0.012884  
3006.000000	0.012890  
3005.000000	0.012844  
3004.000000	0.012684  
3003.000000	0.012386  
3002.000000	0.012023  
3001.000000	0.011747  
3000.000000	0.011678  
2999.000000	0.011801  
2998.000000	0.011991  
2997.000000	0.012128  
2996.000000	0.012180  
2995.000000	0.012203  
2994.000000	0.012280  
2993.000000	0.012487  
2992.000000	0.012862  
2991.000000	0.013386  
2990.000000	0.013990  
2989.000000	0.014612  
2988.000000	0.015240  
2987.000000	0.015909  
2986.000000	0.016663  
2985.000000	0.017513  
2984.000000	0.018451  
2983.000000	0.019482  
2982.000000	0.020630  
2981.000000	0.021919  
2980.000000	0.023350  
2979.000000	0.024913  
2978.000000	0.026640  
2977.000000	0.028613  
2976.000000	0.030920  
2975.000000	0.033599  
2974.000000	0.036630  
2973.000000	0.039970  
2972.000000	0.043591  
2971.000000	0.047488  
2970.000000	0.051694  
2969.000000	0.056263  
2968.000000	0.061216  
2967.000000	0.066460  
2966.000000	0.071794  
2965.000000	0.077028  
2964.000000	0.082087  
2963.000000	0.086981  
2962.000000	0.091691  
2961.000000	0.096114  
2960.000000	0.100122  
2959.000000	0.103599  
2958.000000	0.106430  
2957.000000	0.108516  
2956.000000	0.109827  
2955.000000	0.110420  
2954.000000	0.110367  
2953.000000	0.109695  
2952.000000	0.108435  
2951.000000	0.106711  
2950.000000	0.104747  
2949.000000	0.102790  
2948.000000	0.101035  
2947.000000	0.099621  
2946.000000	0.098681  
2945.000000	0.098371  
2944.000000	0.098837  
2943.000000	0.100162  
2942.000000	0.102338  
2941.000000	0.105310  
2940.000000	0.109021  
2939.000000	0.113426  
2938.000000	0.118479  
2937.000000	0.124118  
2936.000000	0.130257  
2935.000000	0.136759  
2934.000000	0.143464  
2933.000000	0.150273  
2932.000000	0.157216  
2931.000000	0.164367  
2930.000000	0.171663  
2929.000000	0.178849  
2928.000000	0.185592  
2927.000000	0.191622  
2926.000000	0.196768  
2925.000000	0.200914  
2924.000000	0.203959  
2923.000000	0.205756  
2922.000000	0.206101  
2921.000000	0.204887  
2920.000000	0.202277  
2919.000000	0.198650  
2918.000000	0.194351  
2917.000000	0.189538  
2916.000000	0.184285  
2915.000000	0.178737  
2914.000000	0.173098  
2913.000000	0.167535  
2912.000000	0.162160  
2911.000000	0.157076  
2910.000000	0.152377  
2909.000000	0.148051  
2908.000000	0.143945  
2907.000000	0.139866  
2906.000000	0.135726  
2905.000000	0.131597  
2904.000000	0.127619  
2903.000000	0.123883  
2902.000000	0.120374  
2901.000000	0.117012  
2900.000000	0.113704  
2899.000000	0.110383  
2898.000000	0.107043  
2897.000000	0.103733  
2896.000000	0.100522  
2895.000000	0.097440  
2894.000000	0.094475  
2893.000000	0.091582  
2892.000000	0.088714  
2891.000000	0.085835  
2890.000000	0.082965  
2889.000000	0.080209  
2888.000000	0.077717  
2887.000000	0.075596  
2886.000000	0.073862  
2885.000000	0.072491  
2884.000000	0.071493  
2883.000000	0.070921  
2882.000000	0.070826  
2881.000000	0.071234  
2880.000000	0.072173  
2879.000000	0.073703  
2878.000000	0.075872  
2877.000000	0.078624  
2876.000000	0.081742  
2875.000000	0.084898  
2874.000000	0.087759  
2873.000000	0.090092  
2872.000000	0.091785  
2871.000000	0.092825  
2870.000000	0.093302  
2869.000000	0.093430  
2868.000000	0.093521  
2867.000000	0.093878  
2866.000000	0.094709  
2865.000000	0.096138  
2864.000000	0.098252  
2863.000000	0.101085  
2862.000000	0.104568  
2861.000000	0.108564  
2860.000000	0.112953  
2859.000000	0.117626  
2858.000000	0.122367  
2857.000000	0.126775  
2856.000000	0.130353  
2855.000000	0.132658  
2854.000000	0.133384  
2853.000000	0.132383  
2852.000000	0.129701  
2851.000000	0.125552  
2850.000000	0.120234  
2849.000000	0.114052  
2848.000000	0.107302  
2847.000000	0.100288  
2846.000000	0.093299  
2845.000000	0.086538  
2844.000000	0.080085  
2843.000000	0.073933  
2842.000000	0.068074  
2841.000000	0.062539  
2840.000000	0.057386  
2839.000000	0.052672  
2838.000000	0.048442  
2837.000000	0.044709  
2836.000000	0.041424  
2835.000000	0.038475  
2834.000000	0.035755  
2833.000000	0.033228  
2832.000000	0.030939  
2831.000000	0.028952  
2830.000000	0.027291  
2829.000000	0.025926  
2828.000000	0.024776  
2827.000000	0.023740  
2826.000000	0.022732  
2825.000000	0.021722  
2824.000000	0.020741  
2823.000000	0.019843  
2822.000000	0.019069  
2821.000000	0.018421  
2820.000000	0.017864  
2819.000000	0.017344  
2818.000000	0.016824  
2817.000000	0.016301  
2816.000000	0.015790  
2815.000000	0.015296  
2814.000000	0.014808  
2813.000000	0.014322  
2812.000000	0.013850  
2811.000000	0.013415  
2810.000000	0.013037  
2809.000000	0.012736  
2808.000000	0.012526  
2807.000000	0.012398  
2806.000000	0.012305  
2805.000000	0.012187  
2804.000000	0.012004  
2803.000000	0.011758  
2802.000000	0.011483  
2801.000000	0.011218  
2800.000000	0.010993  
2799.000000	0.010815  
2798.000000	0.010677  
2797.000000	0.010569  
2796.000000	0.010488  
2795.000000	0.010414  
2794.000000	0.010300  
2793.000000	0.010089  
2792.000000	0.009769  
2791.000000	0.009410  
2790.000000	0.009130  
2789.000000	0.009011  
2788.000000	0.009037  
2787.000000	0.009107  
2786.000000	0.009119  
2785.000000	0.009035  
2784.000000	0.008890  
2783.000000	0.008745  
2782.000000	0.008651  
2781.000000	0.008632  
2780.000000	0.008679  
2779.000000	0.008744  
2778.000000	0.008745  
2777.000000	0.008609  
2776.000000	0.008339  
2775.000000	0.008015  
2774.000000	0.007752  
2773.000000	0.007621  
2772.000000	0.007612  
2771.000000	0.007654  
2770.000000	0.007669  
2769.000000	0.007616  
2768.000000	0.007491  
2767.000000	0.007311  
2766.000000	0.007107  
2765.000000	0.006935  
2764.000000	0.006851  
2763.000000	0.006869  
2762.000000	0.006931  
2761.000000	0.006950  
2760.000000	0.006884  
2759.000000	0.006757  
2758.000000	0.006612  
2757.000000	0.006475  
2756.000000	0.006367  
2755.000000	0.006310  
2754.000000	0.006308  
2753.000000	0.006321  
2752.000000	0.006301  
2751.000000	0.006250  
2750.000000	0.006215  
2749.000000	0.006227  
2748.000000	0.006250  
2747.000000	0.006222  
2746.000000	0.006120  
2745.000000	0.005990  
2744.000000	0.005903  
2743.000000	0.005895  
2742.000000	0.005950  
2741.000000	0.006033  
2740.000000	0.006120  
2739.000000	0.006194  
2738.000000	0.006241  
2737.000000	0.006263  
2736.000000	0.006291  
2735.000000	0.006367  
2734.000000	0.006494  
2733.000000	0.006615  
2732.000000	0.006664  
2731.000000	0.006626  
2730.000000	0.006547  
2729.000000	0.006486  
2728.000000	0.006478  
2727.000000	0.006504  
2726.000000	0.006508  
2725.000000	0.006436  
2724.000000	0.006290  
2723.000000	0.006130  
2722.000000	0.006029  
2721.000000	0.006018  
2720.000000	0.006078  
2719.000000	0.006161  
2718.000000	0.006218  
2717.000000	0.006213  
2716.000000	0.006155  
2715.000000	0.006076  
2714.000000	0.005988  
2713.000000	0.005860  
2712.000000	0.005673  
2711.000000	0.005476  
2710.000000	0.005346  
2709.000000	0.005311  
2708.000000	0.005333  
2707.000000	0.005368  
2706.000000	0.005401  
2705.000000	0.005411  
2704.000000	0.005353  
2703.000000	0.005209  
2702.000000	0.005026  
2701.000000	0.004876  
2700.000000	0.004788  
2699.000000	0.004743  
2698.000000	0.004727  
2697.000000	0.004751  
2696.000000	0.004824  
2695.000000	0.004931  
2694.000000	0.005041  
2693.000000	0.005123  
2692.000000	0.005166  
2691.000000	0.005180  
2690.000000	0.005211  
2689.000000	0.005303  
2688.000000	0.005451  
2687.000000	0.005594  
2686.000000	0.005665  
2685.000000	0.005652  
2684.000000	0.005603  
2683.000000	0.005567  
2682.000000	0.005556  
2681.000000	0.005540  
2680.000000	0.005498  
2679.000000	0.005436  
2678.000000	0.005387  
2677.000000	0.005397  
2676.000000	0.005489  
2675.000000	0.005643  
2674.000000	0.005791  
2673.000000	0.005862  
2672.000000	0.005836  
2671.000000	0.005753  
2670.000000	0.005666  
2669.000000	0.005610  
2668.000000	0.005602  
2667.000000	0.005650  
2666.000000	0.005736  
2665.000000	0.005816  
2664.000000	0.005834  
2663.000000	0.005760  
2662.000000	0.005585  
2661.000000	0.005334  
2660.000000	0.005074  
2659.000000	0.004892  
2658.000000	0.004819  
2657.000000	0.004809  
2656.000000	0.004808  
2655.000000	0.004817  
2654.000000	0.004850  
2653.000000	0.004867  
2652.000000	0.004805  
2651.000000	0.004689  
2650.000000	0.004631  
2649.000000	0.004697  
2648.000000	0.004817  
2647.000000	0.004877  
2646.000000	0.004836  
2645.000000	0.004740  
2644.000000	0.004661  
2643.000000	0.004652  
2642.000000	0.004737  
2641.000000	0.004883  
2640.000000	0.004996  
2639.000000	0.004986  
2638.000000	0.004833  
2637.000000	0.004598  
2636.000000	0.004370  
2635.000000	0.004233  
2634.000000	0.004240  
2633.000000	0.004380  
2632.000000	0.004565  
2631.000000	0.004680  
2630.000000	0.004665  
2629.000000	0.004543  
2628.000000	0.004403  
2627.000000	0.004348  
2626.000000	0.004422  
2625.000000	0.004555  
2624.000000	0.004608  
2623.000000	0.004509  
2622.000000	0.004314  
2621.000000	0.004136  
2620.000000	0.004021  
2619.000000	0.003955  
2618.000000	0.003937  
2617.000000	0.003981  
2616.000000	0.004064  
2615.000000	0.004119  
2614.000000	0.004111  
2613.000000	0.004062  
2612.000000	0.004019  
2611.000000	0.004008  
2610.000000	0.004045  
2609.000000	0.004132  
2608.000000	0.004243  
2607.000000	0.004345  
2606.000000	0.004422  
2605.000000	0.004463  
2604.000000	0.004434  
2603.000000	0.004305  
2602.000000	0.004124  
2601.000000	0.004008  
2600.000000	0.004021  
2599.000000	0.004085  
2598.000000	0.004062  
2597.000000	0.003905  
2596.000000	0.003714  
2595.000000	0.003628  
2594.000000	0.003674  
2593.000000	0.003747  
2592.000000	0.003731  
2591.000000	0.003621  
2590.000000	0.003510  
2589.000000	0.003461  
2588.000000	0.003446  
2587.000000	0.003418  
2586.000000	0.003400  
2585.000000	0.003436  
2584.000000	0.003503  
2583.000000	0.003525  
2582.000000	0.003472  
2581.000000	0.003389  
2580.000000	0.003329  
2579.000000	0.003317  
2578.000000	0.003365  
2577.000000	0.003471  
2576.000000	0.003568  
2575.000000	0.003549  
2574.000000	0.003390  
2573.000000	0.003209  
2572.000000	0.003147  
2571.000000	0.003217  
2570.000000	0.003299  
2569.000000	0.003277  
2568.000000	0.003146  
2567.000000	0.002983  
2566.000000	0.002866  
2565.000000	0.002826  
2564.000000	0.002850  
2563.000000	0.002896  
2562.000000	0.002920  
2561.000000	0.002897  
2560.000000	0.002831  
2559.000000	0.002754  
2558.000000	0.002722  
2557.000000	0.002791  
2556.000000	0.002967  
2555.000000	0.003168  
2554.000000	0.003272  
2553.000000	0.003239  
2552.000000	0.003165  
2551.000000	0.003195  
2550.000000	0.003356  
2549.000000	0.003532  
2548.000000	0.003594  
2547.000000	0.003525  
2546.000000	0.003367  
2545.000000	0.003141  
2544.000000	0.002869  
2543.000000	0.002637  
2542.000000	0.002541  
2541.000000	0.002552  
2540.000000	0.002548  
2539.000000	0.002499  
2538.000000	0.002534  
2537.000000	0.002750  
2536.000000	0.003026  
2535.000000	0.003131  
2534.000000	0.002982  
2533.000000	0.002706  
2532.000000	0.002475  
2531.000000	0.002342  
2530.000000	0.002256  
2529.000000	0.002171  
2528.000000	0.002110  
2527.000000	0.002139  
2526.000000	0.002310  
2525.000000	0.002600  
2524.000000	0.002916  
2523.000000	0.003166  
2522.000000	0.003296  
2521.000000	0.003273  
2520.000000	0.003080  
2519.000000	0.002787  
2518.000000	0.002579  
2517.000000	0.002613  
2516.000000	0.002854  
2515.000000	0.003107  
2514.000000	0.003218  
2513.000000	0.003191  
2512.000000	0.003103  
2511.000000	0.002996  
2510.000000	0.002875  
2509.000000	0.002764  
2508.000000	0.002703  
2507.000000	0.002712  
2506.000000	0.002780  
2505.000000	0.002862  
2504.000000	0.002882  
2503.000000	0.002784  
2502.000000	0.002602  
2501.000000	0.002456  
2500.000000	0.002436  
2499.000000	0.002505  
2498.000000	0.002523  
2497.000000	0.002369  
2496.000000	0.002044  
2495.000000	0.001686  
2494.000000	0.001485  
2493.000000	0.001554  
2492.000000	0.001848  
2491.000000	0.002218  
2490.000000	0.002533  
2489.000000	0.002734  
2488.000000	0.002800  
2487.000000	0.002719  
2486.000000	0.002517  
2485.000000	0.002266  
2484.000000	0.002049  
2483.000000	0.001925  
2482.000000	0.001935  
2481.000000	0.002099  
2480.000000	0.002381  
2479.000000	0.002682  
2478.000000	0.002896  
2477.000000	0.002968  
2476.000000	0.002909  
2475.000000	0.002766  
2474.000000	0.002591  
2473.000000	0.002432  
2472.000000	0.002313  
2471.000000	0.002237  
2470.000000	0.002183  
2469.000000	0.002134  
2468.000000	0.002113  
2467.000000	0.002190  
2466.000000	0.002409  
2465.000000	0.002689  
2464.000000	0.002837  
2463.000000	0.002726  
2462.000000	0.002430  
2461.000000	0.002145  
2460.000000	0.002008  
2459.000000	0.002031  
2458.000000	0.002170  
2457.000000	0.002356  
2456.000000	0.002479  
2455.000000	0.002436  
2454.000000	0.002253  
2453.000000	0.002070  
2452.000000	0.001978  
2451.000000	0.001928  
2450.000000	0.001851  
2449.000000	0.001787  
2448.000000	0.001837  
2447.000000	0.002016  
2446.000000	0.002224  
2445.000000	0.002352  
2444.000000	0.002376  
2443.000000	0.002351  
2442.000000	0.002368  
2441.000000	0.002465  
2440.000000	0.002575  
2439.000000	0.002577  
2438.000000	0.002441  
2437.000000	0.002283  
2436.000000	0.002232  
2435.000000	0.002260  
2434.000000	0.002231  
2433.000000	0.002078  
2432.000000	0.001892  
2431.000000	0.001811  
2430.000000	0.001879  
2429.000000	0.002034  
2428.000000	0.002194  
2427.000000	0.002316  
2426.000000	0.002388  
2425.000000	0.002399  
2424.000000	0.002339  
2423.000000	0.002217  
2422.000000	0.002088  
2421.000000	0.002023  
2420.000000	0.002058  
2419.000000	0.002157  
2418.000000	0.002251  
2417.000000	0.002289  
2416.000000	0.002271  
2415.000000	0.002240  
2414.000000	0.002250  
2413.000000	0.002330  
2412.000000	0.002453  
2411.000000	0.002559  
2410.000000	0.002616  
2409.000000	0.002653  
2408.000000	0.002702  
2407.000000	0.002745  
2406.000000	0.002713  
2405.000000	0.002561  
2404.000000	0.002316  
2403.000000	0.002068  
2402.000000	0.001896  
2401.000000	0.001826  
2400.000000	0.001837  
2399.000000	0.001905  
2398.000000	0.002027  
2397.000000	0.002188  
2396.000000	0.002335  
2395.000000	0.002413  
2394.000000	0.002428  
2393.000000	0.002461  
2392.000000	0.002588  
2391.000000	0.002814  
2390.000000	0.003078  
2389.000000	0.003325  
2388.000000	0.003576  
2387.000000	0.003937  
2386.000000	0.004513  
2385.000000	0.005257  
2384.000000	0.005883  
2383.000000	0.005998  
2382.000000	0.005365  
2381.000000	0.004085  
2380.000000	0.002544  
2379.000000	0.001168  
2378.000000	0.000214  
2377.000000	-0.000272 
2376.000000	-0.000354 
2375.000000	-0.000082 
2374.000000	0.000512  
2373.000000	0.001345  
2372.000000	0.002268  
2371.000000	0.003116  
2370.000000	0.003716  
2369.000000	0.003887  
2368.000000	0.003589  
2367.000000	0.003069  
2366.000000	0.002704  
2365.000000	0.002635  
2364.000000	0.002696  
2363.000000	0.002706  
2362.000000	0.002661  
2361.000000	0.002690  
2360.000000	0.002983  
2359.000000	0.003459  
2358.000000	0.003628  
2357.000000	0.003095  
2356.000000	0.002147  
2355.000000	0.001363  
2354.000000	0.000793  
2353.000000	0.000392  
2352.000000	0.000568  
2351.000000	0.001587  
2350.000000	0.002935  
2349.000000	0.003679  
2348.000000	0.003376  
2347.000000	0.002428  
2346.000000	0.001971  
2345.000000	0.002781  
2344.000000	0.004290  
2343.000000	0.005196  
2342.000000	0.004635  
2341.000000	0.003089  
2340.000000	0.001795  
2339.000000	0.001357  
2338.000000	0.001259  
2337.000000	0.000837  
2336.000000	0.000153  
2335.000000	-0.000341 
2334.000000	-0.000569 
2333.000000	-0.000629 
2332.000000	-0.000350 
2331.000000	0.000530  
2330.000000	0.001920  
2329.000000	0.003359  
2328.000000	0.004595  
2327.000000	0.005498  
2326.000000	0.005912  
2325.000000	0.005701  
2324.000000	0.004937  
2323.000000	0.003978  
2322.000000	0.003176  
2321.000000	0.002872  
2320.000000	0.003245  
2319.000000	0.004163  
2318.000000	0.005094  
2317.000000	0.005435  
2316.000000	0.004989  
2315.000000	0.004114  
2314.000000	0.003472  
2313.000000	0.003514  
2312.000000	0.004202  
2311.000000	0.005085  
2310.000000	0.005733  
2309.000000	0.006025  
2308.000000	0.006106  
2307.000000	0.006110  
2306.000000	0.006041  
2305.000000	0.005894  
2304.000000	0.005741  
2303.000000	0.005675  
2302.000000	0.005677  
2301.000000	0.005649  
2300.000000	0.005545  
2299.000000	0.005453  
2298.000000	0.005511  
2297.000000	0.005725  
2296.000000	0.005934  
2295.000000	0.005947  
2294.000000	0.005738  
2293.000000	0.005440  
2292.000000	0.005172  
2291.000000	0.004909  
2290.000000	0.004572  
2289.000000	0.004171  
2288.000000	0.003772  
2287.000000	0.003381  
2286.000000	0.002950  
2285.000000	0.002518  
2284.000000	0.002218  
2283.000000	0.002129  
2282.000000	0.002177  
2281.000000	0.002245  
2280.000000	0.002324  
2279.000000	0.002467  
2278.000000	0.002637  
2277.000000	0.002706  
2276.000000	0.002655  
2275.000000	0.002668  
2274.000000	0.002943  
2273.000000	0.003438  
2272.000000	0.003884  
2271.000000	0.004062  
2270.000000	0.003986  
2269.000000	0.003792  
2268.000000	0.003517  
2267.000000	0.003103  
2266.000000	0.002599  
2265.000000	0.002228  
2264.000000	0.002179  
2263.000000	0.002393  
2262.000000	0.002655  
2261.000000	0.002835  
2260.000000	0.002948  
2259.000000	0.003021  
2258.000000	0.003047  
2257.000000	0.003077  
2256.000000	0.003210  
2255.000000	0.003429  
2254.000000	0.003540  
2253.000000	0.003377  
2252.000000	0.003013  
2251.000000	0.002683  
2250.000000	0.002545  
2249.000000	0.002581  
2248.000000	0.002663  
2247.000000	0.002655  
2246.000000	0.002473  
2245.000000	0.002143  
2244.000000	0.001822  
2243.000000	0.001695  
2242.000000	0.001821  
2241.000000	0.002102  
2240.000000	0.002375  
2239.000000	0.002519  
2238.000000	0.002476  
2237.000000	0.002266  
2236.000000	0.001987  
2235.000000	0.001770  
2234.000000	0.001706  
2233.000000	0.001794  
2232.000000	0.001949  
2231.000000	0.002038  
2230.000000	0.001954  
2229.000000	0.001710  
2228.000000	0.001454  
2227.000000	0.001358  
2226.000000	0.001469  
2225.000000	0.001672  
2224.000000	0.001774  
2223.000000	0.001662  
2222.000000	0.001410  
2221.000000	0.001262  
2220.000000	0.001423  
2219.000000	0.001808  
2218.000000	0.002091  
2217.000000	0.002070  
2216.000000	0.001940  
2215.000000	0.002047  
2214.000000	0.002418  
2213.000000	0.002718  
2212.000000	0.002693  
2211.000000	0.002476  
2210.000000	0.002332  
2209.000000	0.002270  
2208.000000	0.002075  
2207.000000	0.001679  
2206.000000	0.001300  
2205.000000	0.001208  
2204.000000	0.001473  
2203.000000	0.001980  
2202.000000	0.002570  
2201.000000	0.003092  
2200.000000	0.003424  
2199.000000	0.003538  
2198.000000	0.003521  
2197.000000	0.003471  
2196.000000	0.003385  
2195.000000	0.003205  
2194.000000	0.002936  
2193.000000	0.002651  
2192.000000	0.002379  
2191.000000	0.002066  
2190.000000	0.001698  
2189.000000	0.001390  
2188.000000	0.001288  
2187.000000	0.001383  
2186.000000	0.001490  
2185.000000	0.001444  
2184.000000	0.001294  
2183.000000	0.001273  
2182.000000	0.001597  
2181.000000	0.002291  
2180.000000	0.003158  
2179.000000	0.003889  
2178.000000	0.004230  
2177.000000	0.004149  
2176.000000	0.003845  
2175.000000	0.003517  
2174.000000	0.003131  
2173.000000	0.002543  
2172.000000	0.001851  
2171.000000	0.001460  
2170.000000	0.001657  
2169.000000	0.002187  
2168.000000	0.002463  
2167.000000	0.002236  
2166.000000	0.001904  
2165.000000	0.002026  
2164.000000	0.002632  
2163.000000	0.003193  
2162.000000	0.003235  
2161.000000	0.002797  
2160.000000	0.002278  
2159.000000	0.001987  
2158.000000	0.001979  
2157.000000	0.002187  
2156.000000	0.002481  
2155.000000	0.002638  
2154.000000	0.002485  
2153.000000	0.002124  
2152.000000	0.001887  
2151.000000	0.001964  
2150.000000	0.002164  
2149.000000	0.002142  
2148.000000	0.001823  
2147.000000	0.001495  
2146.000000	0.001494  
2145.000000	0.001883  
2144.000000	0.002454  
2143.000000	0.002932  
2142.000000	0.003107  
2141.000000	0.002882  
2140.000000	0.002352  
2139.000000	0.001826  
2138.000000	0.001657  
2137.000000	0.001957  
2136.000000	0.002449  
2135.000000	0.002687  
2134.000000	0.002447  
2133.000000	0.001923  
2132.000000	0.001534  
2131.000000	0.001527  
2130.000000	0.001804  
2129.000000	0.002099  
2128.000000	0.002275  
2127.000000	0.002364  
2126.000000	0.002380  
2125.000000	0.002233  
2124.000000	0.001904  
2123.000000	0.001601  
2122.000000	0.001604  
2121.000000	0.001958  
2120.000000	0.002405  
2119.000000	0.002640  
2118.000000	0.002578  
2117.000000	0.002392  
2116.000000	0.002345  
2115.000000	0.002577  
2114.000000	0.002952  
2113.000000	0.003128  
2112.000000	0.002879  
2111.000000	0.002379  
2110.000000	0.002052  
2109.000000	0.002118  
2108.000000	0.002366  
2107.000000	0.002458  
2106.000000	0.002315  
2105.000000	0.002095  
2104.000000	0.001907  
2103.000000	0.001710  
2102.000000	0.001476  
2101.000000	0.001275  
2100.000000	0.001145  
2099.000000	0.001027  
2098.000000	0.000888  
2097.000000	0.000815  
2096.000000	0.000903  
2095.000000	0.001119  
2094.000000	0.001348  
2093.000000	0.001535  
2092.000000	0.001702  
2091.000000	0.001840  
2090.000000	0.001881  
2089.000000	0.001813  
2088.000000	0.001772  
2087.000000	0.001943  
2086.000000	0.002343  
2085.000000	0.002722  
2084.000000	0.002761  
2083.000000	0.002375  
2082.000000	0.001820  
2081.000000	0.001484  
2080.000000	0.001568  
2079.000000	0.001970  
2078.000000	0.002408  
2077.000000	0.002612  
2076.000000	0.002490  
2075.000000	0.002197  
2074.000000	0.002016  
2073.000000	0.002095  
2072.000000	0.002292  
2071.000000	0.002361  
2070.000000	0.002231  
2069.000000	0.002039  
2068.000000	0.001901  
2067.000000	0.001806  
2066.000000	0.001745  
2065.000000	0.001798  
2064.000000	0.002013  
2063.000000	0.002299  
2062.000000	0.002511  
2061.000000	0.002561  
2060.000000	0.002413  
2059.000000	0.002073  
2058.000000	0.001662  
2057.000000	0.001382  
2056.000000	0.001297  
2055.000000	0.001225  
2054.000000	0.000976  
2053.000000	0.000639  
2052.000000	0.000476  
2051.000000	0.000610  
2050.000000	0.000962  
2049.000000	0.001467  
2048.000000	0.002136  
2047.000000	0.002811  
2046.000000	0.003091  
2045.000000	0.002718  
2044.000000	0.001955  
2043.000000	0.001379  
2042.000000	0.001315  
2041.000000	0.001607  
2040.000000	0.001964  
2039.000000	0.002319  
2038.000000	0.002732  
2037.000000	0.003100  
2036.000000	0.003191  
2035.000000	0.002987  
2034.000000	0.002790  
2033.000000	0.002876  
2032.000000	0.003138  
2031.000000	0.003202  
2030.000000	0.002822  
2029.000000	0.002092  
2028.000000	0.001302  
2027.000000	0.000725  
2026.000000	0.000499  
2025.000000	0.000592  
2024.000000	0.000832  
2023.000000	0.001081  
2022.000000	0.001358  
2021.000000	0.001713  
2020.000000	0.002030  
2019.000000	0.002113  
2018.000000	0.001974  
2017.000000	0.001845  
2016.000000	0.001835  
2015.000000	0.001795  
2014.000000	0.001650  
2013.000000	0.001617  
2012.000000	0.001855  
2011.000000	0.002061  
2010.000000	0.001743  
2009.000000	0.000886  
2008.000000	0.000072  
2007.000000	-0.000169 
2006.000000	0.000114  
2005.000000	0.000540  
2004.000000	0.000906  
2003.000000	0.001293  
2002.000000	0.001822  
2001.000000	0.002475  
2000.000000	0.003065  
1999.000000	0.003283  
1998.000000	0.002887  
1997.000000	0.001995  
1996.000000	0.001116  
1995.000000	0.000743  
1994.000000	0.000958  
1993.000000	0.001451  
1992.000000	0.001852  
1991.000000	0.001988  
1990.000000	0.001873  
1989.000000	0.001660  
1988.000000	0.001608  
1987.000000	0.001911  
1986.000000	0.002468  
1985.000000	0.002963  
1984.000000	0.003203  
1983.000000	0.003239  
1982.000000	0.003144  
1981.000000	0.002879  
1980.000000	0.002492  
1979.000000	0.002249  
1978.000000	0.002312  
1977.000000	0.002413  
1976.000000	0.002150  
1975.000000	0.001551  
1974.000000	0.001026  
1973.000000	0.000813  
1972.000000	0.000781  
1971.000000	0.000768  
1970.000000	0.000825  
1969.000000	0.000994  
1968.000000	0.001130  
1967.000000	0.001125  
1966.000000	0.001139  
1965.000000	0.001374  
1964.000000	0.001768  
1963.000000	0.002086  
1962.000000	0.002211  
1961.000000	0.002200  
1960.000000	0.002145  
1959.000000	0.002112  
1958.000000	0.002150  
1957.000000	0.002217  
1956.000000	0.002145  
1955.000000	0.001807  
1954.000000	0.001316  
1953.000000	0.000945  
1952.000000	0.000883  
1951.000000	0.001144  
1950.000000	0.001628  
1949.000000	0.002155  
1948.000000	0.002490  
1947.000000	0.002518  
1946.000000	0.002376  
1945.000000	0.002299  
1944.000000	0.002339  
1943.000000	0.002349  
1942.000000	0.002255  
1941.000000	0.002163  
1940.000000	0.002135  
1939.000000	0.002095  
1938.000000	0.002029  
1937.000000	0.002076  
1936.000000	0.002321  
1935.000000	0.002636  
1934.000000	0.002840  
1933.000000	0.002927  
1932.000000	0.003017  
1931.000000	0.003134  
1930.000000	0.003151  
1929.000000	0.002992  
1928.000000	0.002735  
1927.000000	0.002493  
1926.000000	0.002279  
1925.000000	0.002055  
1924.000000	0.001842  
1923.000000	0.001740  
1922.000000	0.001834  
1921.000000	0.002115  
1920.000000	0.002478  
1919.000000	0.002757  
1918.000000	0.002829  
1917.000000	0.002756  
1916.000000	0.002704  
1915.000000	0.002691  
1914.000000	0.002574  
1913.000000	0.002277  
1912.000000	0.001939  
1911.000000	0.001769  
1910.000000	0.001801  
1909.000000	0.001891  
1908.000000	0.001941  
1907.000000	0.001990  
1906.000000	0.002066  
1905.000000	0.002111  
1904.000000	0.002074  
1903.000000	0.002012  
1902.000000	0.002047  
1901.000000	0.002225  
1900.000000	0.002466  
1899.000000	0.002623  
1898.000000	0.002608  
1897.000000	0.002450  
1896.000000	0.002270  
1895.000000	0.002185  
1894.000000	0.002224  
1893.000000	0.002343  
1892.000000	0.002495  
1891.000000	0.002655  
1890.000000	0.002786  
1889.000000	0.002839  
1888.000000	0.002791  
1887.000000	0.002649  
1886.000000	0.002446  
1885.000000	0.002268  
1884.000000	0.002174  
1883.000000	0.002120  
1882.000000	0.002013  
1881.000000	0.001864  
1880.000000	0.001793  
1879.000000	0.001863  
1878.000000	0.001993  
1877.000000	0.002081  
1876.000000	0.002161  
1875.000000	0.002352  
1874.000000	0.002659  
1873.000000	0.002935  
1872.000000	0.003043  
1871.000000	0.002967  
1870.000000	0.002755  
1869.000000	0.002466  
1868.000000	0.002224  
1867.000000	0.002168  
1866.000000	0.002285  
1865.000000	0.002445  
1864.000000	0.002544  
1863.000000	0.002569  
1862.000000	0.002560  
1861.000000	0.002533  
1860.000000	0.002489  
1859.000000	0.002450  
1858.000000	0.002459  
1857.000000	0.002533  
1856.000000	0.002618  
1855.000000	0.002611  
1854.000000	0.002463  
1853.000000	0.002263  
1852.000000	0.002168  
1851.000000	0.002236  
1850.000000	0.002346  
1849.000000	0.002329  
1848.000000	0.002159  
1847.000000	0.001997  
1846.000000	0.002027  
1845.000000	0.002274  
1844.000000	0.002561  
1843.000000	0.002677  
1842.000000	0.002582  
1841.000000	0.002387  
1840.000000	0.002224  
1839.000000	0.002184  
1838.000000	0.002276  
1837.000000	0.002422  
1836.000000	0.002523  
1835.000000	0.002540  
1834.000000	0.002495  
1833.000000	0.002393  
1832.000000	0.002191  
1831.000000	0.001916  
1830.000000	0.001742  
1829.000000	0.001825  
1828.000000	0.002085  
1827.000000	0.002321  
1826.000000	0.002431  
1825.000000	0.002439  
1824.000000	0.002435  
1823.000000	0.002496  
1822.000000	0.002615  
1821.000000	0.002691  
1820.000000	0.002609  
1819.000000	0.002384  
1818.000000	0.002187  
1817.000000	0.002180  
1816.000000	0.002344  
1815.000000	0.002523  
1814.000000	0.002592  
1813.000000	0.002539  
1812.000000	0.002433  
1811.000000	0.002373  
1810.000000	0.002415  
1809.000000	0.002530  
1808.000000	0.002672  
1807.000000	0.002800  
1806.000000	0.002867  
1805.000000	0.002846  
1804.000000	0.002778  
1803.000000	0.002752  
1802.000000	0.002824  
1801.000000	0.002958  
1800.000000	0.003099  
1799.000000	0.003226  
1798.000000	0.003294  
1797.000000	0.003270  
1796.000000	0.003198  
1795.000000	0.003152  
1794.000000	0.003160  
1793.000000	0.003174  
1792.000000	0.003145  
1791.000000	0.003115  
1790.000000	0.003131  
1789.000000	0.003171  
1788.000000	0.003208  
1787.000000	0.003251  
1786.000000	0.003308  
1785.000000	0.003360  
1784.000000	0.003379  
1783.000000	0.003364  
1782.000000	0.003371  
1781.000000	0.003485  
1780.000000	0.003731  
1779.000000	0.004012  
1778.000000	0.004196  
1777.000000	0.004229  
1776.000000	0.004168  
1775.000000	0.004090  
1774.000000	0.004048  
1773.000000	0.004053  
1772.000000	0.004055  
1771.000000	0.004025  
1770.000000	0.004032  
1769.000000	0.004157  
1768.000000	0.004385  
1767.000000	0.004612  
1766.000000	0.004780  
1765.000000	0.004940  
1764.000000	0.005172  
1763.000000	0.005505  
1762.000000	0.005917  
1761.000000	0.006371  
1760.000000	0.006819  
1759.000000	0.007231  
1758.000000	0.007675  
1757.000000	0.008285  
1756.000000	0.009084  
1755.000000	0.009968  
1754.000000	0.010975  
1753.000000	0.012401  
1752.000000	0.014568  
1751.000000	0.017495  
1750.000000	0.021065  
1749.000000	0.025401  
1748.000000	0.030563  
1747.000000	0.036251  
1746.000000	0.042204  
1745.000000	0.048347  
1744.000000	0.054263  
1743.000000	0.059054  
1742.000000	0.062032  
1741.000000	0.062948  
1740.000000	0.061643  
1739.000000	0.058452  
1738.000000	0.054464  
1737.000000	0.050334  
1736.000000	0.045659  
1735.000000	0.039583  
1734.000000	0.032789  
1733.000000	0.027384  
1732.000000	0.023779  
1731.000000	0.021019  
1730.000000	0.018657  
1729.000000	0.016733  
1728.000000	0.015274  
1727.000000	0.014135  
1726.000000	0.013168  
1725.000000	0.012293  
1724.000000	0.011459  
1723.000000	0.010674  
1722.000000	0.009995  
1721.000000	0.009434  
1720.000000	0.008932  
1719.000000	0.008479  
1718.000000	0.008109  
1717.000000	0.007728  
1716.000000	0.007292  
1715.000000	0.006940  
1714.000000	0.006735  
1713.000000	0.006613  
1712.000000	0.006474  
1711.000000	0.006280  
1710.000000	0.006072  
1709.000000	0.005875  
1708.000000	0.005681  
1707.000000	0.005527  
1706.000000	0.005470  
1705.000000	0.005473  
1704.000000	0.005513  
1703.000000	0.005638  
1702.000000	0.005891  
1701.000000	0.006120  
1700.000000	0.006147  
1699.000000	0.006084  
1698.000000	0.006034  
1697.000000	0.005874  
1696.000000	0.005565  
1695.000000	0.005344  
1694.000000	0.005280  
1693.000000	0.005224  
1692.000000	0.005141  
1691.000000	0.005085  
1690.000000	0.005108  
1689.000000	0.005166  
1688.000000	0.005189  
1687.000000	0.005148  
1686.000000	0.005062  
1685.000000	0.004944  
1684.000000	0.004844  
1683.000000	0.004880  
1682.000000	0.005004  
1681.000000	0.005090  
1680.000000	0.005074  
1679.000000	0.004993  
1678.000000	0.004888  
1677.000000	0.004789  
1676.000000	0.004702  
1675.000000	0.004697  
1674.000000	0.004843  
1673.000000	0.005083  
1672.000000	0.005313  
1671.000000	0.005464  
1670.000000	0.005520  
1669.000000	0.005555  
1668.000000	0.005627  
1667.000000	0.005697  
1666.000000	0.005766  
1665.000000	0.005886  
1664.000000	0.006081  
1663.000000	0.006333  
1662.000000	0.006590  
1661.000000	0.006829  
1660.000000	0.007031  
1659.000000	0.007167  
1658.000000	0.007177  
1657.000000	0.007097  
1656.000000	0.006977  
1655.000000	0.006924  
1654.000000	0.007025  
1653.000000	0.007407  
1652.000000	0.007922  
1651.000000	0.008118  
1650.000000	0.008101  
1649.000000	0.008155  
1648.000000	0.008359  
1647.000000	0.008483  
1646.000000	0.008409  
1645.000000	0.008252  
1644.000000	0.008083  
1643.000000	0.007939  
1642.000000	0.007907  
1641.000000	0.007971  
1640.000000	0.008052  
1639.000000	0.008084  
1638.000000	0.008092  
1637.000000	0.008121  
1636.000000	0.008136  
1635.000000	0.008086  
1634.000000	0.008004  
1633.000000	0.007926  
1632.000000	0.007864  
1631.000000	0.007814  
1630.000000	0.007736  
1629.000000	0.007657  
1628.000000	0.007617  
1627.000000	0.007612  
1626.000000	0.007610  
1625.000000	0.007604  
1624.000000	0.007581  
1623.000000	0.007492  
1622.000000	0.007350  
1621.000000	0.007249  
1620.000000	0.007232  
1619.000000	0.007263  
1618.000000	0.007252  
1617.000000	0.007153  
1616.000000	0.007039  
1615.000000	0.006939  
1614.000000	0.006841  
1613.000000	0.006781  
1612.000000	0.006781  
1611.000000	0.006810  
1610.000000	0.006825  
1609.000000	0.006829  
1608.000000	0.006824  
1607.000000	0.006770  
1606.000000	0.006665  
1605.000000	0.006567  
1604.000000	0.006502  
1603.000000	0.006427  
1602.000000	0.006318  
1601.000000	0.006224  
1600.000000	0.006167  
1599.000000	0.006099  
1598.000000	0.005995  
1597.000000	0.005919  
1596.000000	0.005941  
1595.000000	0.006044  
1594.000000	0.006162  
1593.000000	0.006276  
1592.000000	0.006411  
1591.000000	0.006550  
1590.000000	0.006654  
1589.000000	0.006725  
1588.000000	0.006785  
1587.000000	0.006824  
1586.000000	0.006827  
1585.000000	0.006831  
1584.000000	0.006884  
1583.000000	0.006992  
1582.000000	0.007131  
1581.000000	0.007296  
1580.000000	0.007497  
1579.000000	0.007716  
1578.000000	0.007896  
1577.000000	0.007966  
1576.000000	0.007931  
1575.000000	0.007872  
1574.000000	0.007872  
1573.000000	0.007975  
1572.000000	0.008137  
1571.000000	0.008236  
1570.000000	0.008189  
1569.000000	0.008118  
1568.000000	0.008124  
1567.000000	0.008122  
1566.000000	0.008000  
1565.000000	0.007797  
1564.000000	0.007543  
1563.000000	0.007276  
1562.000000	0.006985  
1561.000000	0.006743  
1560.000000	0.006733  
1559.000000	0.006769  
1558.000000	0.006646  
1557.000000	0.006693  
1556.000000	0.006908  
1555.000000	0.007039  
1554.000000	0.007131  
1553.000000	0.007065  
1552.000000	0.006863  
1551.000000	0.006548  
1550.000000	0.006281  
1549.000000	0.006175  
1548.000000	0.006205  
1547.000000	0.006248  
1546.000000	0.006268  
1545.000000	0.006262  
1544.000000	0.006206  
1543.000000	0.006125  
1542.000000	0.006147  
1541.000000	0.006246  
1540.000000	0.006228  
1539.000000	0.006178  
1538.000000	0.006231  
1537.000000	0.006303  
1536.000000	0.006330  
1535.000000	0.006297  
1534.000000	0.006156  
1533.000000	0.005953  
1532.000000	0.005816  
1531.000000	0.005786  
1530.000000	0.005767  
1529.000000	0.005710  
1528.000000	0.005668  
1527.000000	0.005739  
1526.000000	0.005954  
1525.000000	0.006197  
1524.000000	0.006326  
1523.000000	0.006341  
1522.000000	0.006333  
1521.000000	0.006348  
1520.000000	0.006367  
1519.000000	0.006354  
1518.000000	0.006350  
1517.000000	0.006396  
1516.000000	0.006474  
1515.000000	0.006598  
1514.000000	0.006799  
1513.000000	0.007048  
1512.000000	0.007216  
1511.000000	0.007242  
1510.000000	0.007240  
1509.000000	0.007430  
1508.000000	0.007841  
1507.000000	0.008201  
1506.000000	0.008562  
1505.000000	0.008989  
1504.000000	0.009177  
1503.000000	0.009111  
1502.000000	0.009024  
1501.000000	0.008981  
1500.000000	0.008967  
1499.000000	0.009005  
1498.000000	0.009325  
1497.000000	0.009953  
1496.000000	0.010496  
1495.000000	0.010732  
1494.000000	0.010868  
1493.000000	0.011066  
1492.000000	0.011234  
1491.000000	0.011262  
1490.000000	0.011302  
1489.000000	0.011549  
1488.000000	0.011949  
1487.000000	0.012375  
1486.000000	0.012817  
1485.000000	0.013337  
1484.000000	0.013945  
1483.000000	0.014668  
1482.000000	0.015615  
1481.000000	0.016778  
1480.000000	0.017967  
1479.000000	0.019119  
1478.000000	0.020463  
1477.000000	0.022216  
1476.000000	0.024320  
1475.000000	0.026835  
1474.000000	0.030466  
1473.000000	0.035962  
1472.000000	0.042768  
1471.000000	0.049616  
1470.000000	0.056040  
1469.000000	0.061996  
1468.000000	0.067219  
1467.000000	0.071491  
1466.000000	0.074934  
1465.000000	0.077682  
1464.000000	0.079613  
1463.000000	0.080789  
1462.000000	0.081550  
1461.000000	0.082135  
1460.000000	0.082624  
1459.000000	0.083140  
1458.000000	0.083751  
1457.000000	0.083756  
1456.000000	0.082424  
1455.000000	0.080230  
1454.000000	0.077793  
1453.000000	0.075152  
1452.000000	0.072319  
1451.000000	0.069523  
1450.000000	0.066954  
1449.000000	0.064411  
1448.000000	0.061666  
1447.000000	0.058895  
1446.000000	0.056327  
1445.000000	0.053815  
1444.000000	0.051117  
1443.000000	0.048235  
1442.000000	0.045358  
1441.000000	0.042668  
1440.000000	0.040233  
1439.000000	0.037973  
1438.000000	0.035696  
1437.000000	0.033329  
1436.000000	0.031193  
1435.000000	0.029583  
1434.000000	0.028255  
1433.000000	0.026808  
1432.000000	0.025135  
1431.000000	0.023409  
1430.000000	0.021866  
1429.000000	0.020624  
1428.000000	0.019700  
1427.000000	0.019026  
1426.000000	0.018472  
1425.000000	0.017963  
1424.000000	0.017524  
1423.000000	0.017198  
1422.000000	0.016950  
1421.000000	0.016693  
1420.000000	0.016390  
1419.000000	0.016065  
1418.000000	0.015751  
1417.000000	0.015439  
1416.000000	0.015123  
1415.000000	0.014814  
1414.000000	0.014512  
1413.000000	0.014200  
1412.000000	0.013883  
1411.000000	0.013585  
1410.000000	0.013350  
1409.000000	0.013210  
1408.000000	0.013183  
1407.000000	0.013268  
1406.000000	0.013444  
1405.000000	0.013684  
1404.000000	0.013980  
1403.000000	0.014310  
1402.000000	0.014617  
1401.000000	0.014872  
1400.000000	0.015129  
1399.000000	0.015432  
1398.000000	0.015755  
1397.000000	0.016055  
1396.000000	0.016338  
1395.000000	0.016636  
1394.000000	0.017005  
1393.000000	0.017478  
1392.000000	0.018023  
1391.000000	0.018618  
1390.000000	0.019309  
1389.000000	0.020247  
1388.000000	0.021640  
1387.000000	0.023521  
1386.000000	0.025659  
1385.000000	0.027870  
1384.000000	0.030221  
1383.000000	0.032901  
1382.000000	0.036018  
1381.000000	0.039474  
1380.000000	0.042908  
1379.000000	0.045664  
1378.000000	0.047081  
1377.000000	0.046898  
1376.000000	0.045257  
1375.000000	0.042478  
1374.000000	0.039122  
1373.000000	0.035941  
1372.000000	0.033406  
1371.000000	0.031535  
1370.000000	0.030218  
1369.000000	0.029423  
1368.000000	0.029050  
1367.000000	0.028812  
1366.000000	0.028366  
1365.000000	0.027513  
1364.000000	0.026271  
1363.000000	0.024855  
1362.000000	0.023576  
1361.000000	0.022644  
1360.000000	0.022049  
1359.000000	0.021646  
1358.000000	0.021314  
1357.000000	0.021034  
1356.000000	0.020852  
1355.000000	0.020797  
1354.000000	0.020820  
1353.000000	0.020829  
1352.000000	0.020785  
1351.000000	0.020702  
1350.000000	0.020574  
1349.000000	0.020385  
1348.000000	0.020127  
1347.000000	0.019801  
1346.000000	0.019436  
1345.000000	0.019105  
1344.000000	0.018885  
1343.000000	0.018765  
1342.000000	0.018647  
1341.000000	0.018439  
1340.000000	0.018118  
1339.000000	0.017706  
1338.000000	0.017249  
1337.000000	0.016797  
1336.000000	0.016399  
1335.000000	0.016085  
1334.000000	0.015832  
1333.000000	0.015606  
1332.000000	0.015414  
1331.000000	0.015286  
1330.000000	0.015212  
1329.000000	0.015155  
1328.000000	0.015121  
1327.000000	0.015141  
1326.000000	0.015211  
1325.000000	0.015304  
1324.000000	0.015404  
1323.000000	0.015522  
1322.000000	0.015668  
1321.000000	0.015828  
1320.000000	0.015973  
1319.000000	0.016079  
1318.000000	0.016152  
1317.000000	0.016224  
1316.000000	0.016317  
1315.000000	0.016437  
1314.000000	0.016582  
1313.000000	0.016755  
1312.000000	0.016948  
1311.000000	0.017136  
1310.000000	0.017291  
1309.000000	0.017411  
1308.000000	0.017521  
1307.000000	0.017644  
1306.000000	0.017773  
1305.000000	0.017877  
1304.000000	0.017925  
1303.000000	0.017904  
1302.000000	0.017832  
1301.000000	0.017750  
1300.000000	0.017678  
1299.000000	0.017598  
1298.000000	0.017473  
1297.000000	0.017294  
1296.000000	0.017080  
1295.000000	0.016844  
1294.000000	0.016589  
1293.000000	0.016326  
1292.000000	0.016093  
1291.000000	0.015936  
1290.000000	0.015878  
1289.000000	0.015913  
1288.000000	0.016015  
1287.000000	0.016158  
1286.000000	0.016326  
1285.000000	0.016515  
1284.000000	0.016717  
1283.000000	0.016922  
1282.000000	0.017127  
1281.000000	0.017343  
1280.000000	0.017575  
1279.000000	0.017812  
1278.000000	0.018037  
1277.000000	0.018252  
1276.000000	0.018469  
1275.000000	0.018684  
1274.000000	0.018885  
1273.000000	0.019075  
1272.000000	0.019264  
1271.000000	0.019439  
1270.000000	0.019583  
1269.000000	0.019697  
1268.000000	0.019791  
1267.000000	0.019855  
1266.000000	0.019866  
1265.000000	0.019832  
1264.000000	0.019802  
1263.000000	0.019830  
1262.000000	0.019942  
1261.000000	0.020129  
1260.000000	0.020341  
1259.000000	0.020504  
1258.000000	0.020575  
1257.000000	0.020572  
1256.000000	0.020547  
1255.000000	0.020549  
1254.000000	0.020624  
1253.000000	0.020831  
1252.000000	0.021195  
1251.000000	0.021653  
1250.000000	0.022089  
1249.000000	0.022442  
1248.000000	0.022747  
1247.000000	0.023063  
1246.000000	0.023401  
1245.000000	0.023721  
1244.000000	0.023962  
1243.000000	0.024078  
1242.000000	0.024054  
1241.000000	0.023921  
1240.000000	0.023732  
1239.000000	0.023514  
1238.000000	0.023249  
1237.000000	0.022916  
1236.000000	0.022542  
1235.000000	0.022177  
1234.000000	0.021839  
1233.000000	0.021501  
1232.000000	0.021139  
1231.000000	0.020764  
1230.000000	0.020399  
1229.000000	0.020047  
1228.000000	0.019713  
1227.000000	0.019428  
1226.000000	0.019224  
1225.000000	0.019089  
1224.000000	0.018975  
1223.000000	0.018858  
1222.000000	0.018755  
1221.000000	0.018679  
1220.000000	0.018606  
1219.000000	0.018525  
1218.000000	0.018484  
1217.000000	0.018541  
1216.000000	0.018685  
1215.000000	0.018837  
1214.000000	0.018934  
1213.000000	0.018981  
1212.000000	0.019034  
1211.000000	0.019149  
1210.000000	0.019355  
1209.000000	0.019614  
1208.000000	0.019840  
1207.000000	0.019976  
1206.000000	0.020076  
1205.000000	0.020261  
1204.000000	0.020576  
1203.000000	0.020948  
1202.000000	0.021298  
1201.000000	0.021640  
1200.000000	0.022033  
1199.000000	0.022496  
1198.000000	0.023008  
1197.000000	0.023563  
1196.000000	0.024170  
1195.000000	0.024827  
1194.000000	0.025539  
1193.000000	0.026325  
1192.000000	0.027163  
1191.000000	0.027967  
1190.000000	0.028667  
1189.000000	0.029304  
1188.000000	0.029974  
1187.000000	0.030725  
1186.000000	0.031533  
1185.000000	0.032371  
1184.000000	0.033239  
1183.000000	0.034125  
1182.000000	0.035001  
1181.000000	0.035848  
1180.000000	0.036642  
1179.000000	0.037328  
1178.000000	0.037851  
1177.000000	0.038217  
1176.000000	0.038476  
1175.000000	0.038662  
1174.000000	0.038766  
1173.000000	0.038781  
1172.000000	0.038700  
1171.000000	0.038501  
1170.000000	0.038151  
1169.000000	0.037663  
1168.000000	0.037092  
1167.000000	0.036489  
1166.000000	0.035863  
1165.000000	0.035185  
1164.000000	0.034414  
1163.000000	0.033527  
1162.000000	0.032559  
1161.000000	0.031606  
1160.000000	0.030744  
1159.000000	0.029953  
1158.000000	0.029153  
1157.000000	0.028313  
1156.000000	0.027481  
1155.000000	0.026700  
1154.000000	0.025957  
1153.000000	0.025229  
1152.000000	0.024544  
1151.000000	0.023955  
1150.000000	0.023475  
1149.000000	0.023081  
1148.000000	0.022744  
1147.000000	0.022425  
1146.000000	0.022065  
1145.000000	0.021611  
1144.000000	0.021059  
1143.000000	0.020452  
1142.000000	0.019855  
1141.000000	0.019322  
1140.000000	0.018862  
1139.000000	0.018436  
1138.000000	0.018006  
1137.000000	0.017591  
1136.000000	0.017244  
1135.000000	0.016959  
1134.000000	0.016676  
1133.000000	0.016389  
1132.000000	0.016181  
1131.000000	0.016130  
1130.000000	0.016211  
1129.000000	0.016351  
1128.000000	0.016528  
1127.000000	0.016755  
1126.000000	0.017015  
1125.000000	0.017281  
1124.000000	0.017566  
1123.000000	0.017898  
1122.000000	0.018244  
1121.000000	0.018533  
1120.000000	0.018721  
1119.000000	0.018810  
1118.000000	0.018800  
1117.000000	0.018694  
1116.000000	0.018529  
1115.000000	0.018342  
1114.000000	0.018108  
1113.000000	0.017776  
1112.000000	0.017362  
1111.000000	0.016949  
1110.000000	0.016600  
1109.000000	0.016317  
1108.000000	0.016109  
1107.000000	0.016029  
1106.000000	0.016104  
1105.000000	0.016267  
1104.000000	0.016411  
1103.000000	0.016483  
1102.000000	0.016524  
1101.000000	0.016605  
1100.000000	0.016755  
1099.000000	0.016937  
1098.000000	0.017067  
1097.000000	0.017107  
1096.000000	0.017107  
1095.000000	0.017146  
1094.000000	0.017227  
1093.000000	0.017271  
1092.000000	0.017222  
1091.000000	0.017104  
1090.000000	0.016956  
1089.000000	0.016768  
1088.000000	0.016521  
1087.000000	0.016261  
1086.000000	0.016075  
1085.000000	0.016004  
1084.000000	0.016005  
1083.000000	0.015989  
1082.000000	0.015903  
1081.000000	0.015764  
1080.000000	0.015661  
1079.000000	0.015693  
1078.000000	0.015885  
1077.000000	0.016184  
1076.000000	0.016528  
1075.000000	0.016913  
1074.000000	0.017355  
1073.000000	0.017820  
1072.000000	0.018214  
1071.000000	0.018469  
1070.000000	0.018611  
1069.000000	0.018726  
1068.000000	0.018867  
1067.000000	0.019017  
1066.000000	0.019122  
1065.000000	0.019165  
1064.000000	0.019172  
1063.000000	0.019152  
1062.000000	0.019055  
1061.000000	0.018817  
1060.000000	0.018438  
1059.000000	0.018003  
1058.000000	0.017611  
1057.000000	0.017310  
1056.000000	0.017116  
1055.000000	0.017023  
1054.000000	0.016975  
1053.000000	0.016838  
1052.000000	0.016499  
1051.000000	0.016025  
1050.000000	0.015657  
1049.000000	0.015585  
1048.000000	0.015764  
1047.000000	0.015989  
1046.000000	0.016099  
1045.000000	0.016075  
1044.000000	0.015999  
1043.000000	0.015983  
1042.000000	0.016110  
1041.000000	0.016375  
1040.000000	0.016665  
1039.000000	0.016823  
1038.000000	0.016777  
1037.000000	0.016592  
1036.000000	0.016400  
1035.000000	0.016303  
1034.000000	0.016331  
1033.000000	0.016449  
1032.000000	0.016580  
1031.000000	0.016644  
1030.000000	0.016628  
1029.000000	0.016587  
1028.000000	0.016570  
1027.000000	0.016562  
1026.000000	0.016518  
1025.000000	0.016433  
1024.000000	0.016325  
1023.000000	0.016189  
1022.000000	0.016000  
1021.000000	0.015768  
1020.000000	0.015526  
1019.000000	0.015274  
1018.000000	0.014987  
1017.000000	0.014686  
1016.000000	0.014457  
1015.000000	0.014351  
1014.000000	0.014322  
1013.000000	0.014273  
1012.000000	0.014149  
1011.000000	0.013962  
1010.000000	0.013757  
1009.000000	0.013588  
1008.000000	0.013497  
1007.000000	0.013475  
1006.000000	0.013459  
1005.000000	0.013387  
1004.000000	0.013265  
1003.000000	0.013160  
1002.000000	0.013133  
1001.000000	0.013180  
1000.000000	0.013223  
999.000000	 0.013154  
998.000000	 0.012919  
997.000000	 0.012599  
996.000000	 0.012363  
995.000000	 0.012320  
994.000000	 0.012411  
993.000000	 0.012487  
992.000000	 0.012458  
991.000000	 0.012357  
990.000000	 0.012275  
989.000000	 0.012277  
988.000000	 0.012360  
987.000000	 0.012458  
986.000000	 0.012490  
985.000000	 0.012438  
984.000000	 0.012375  
983.000000	 0.012390  
982.000000	 0.012500  
981.000000	 0.012657  
980.000000	 0.012822  
979.000000	 0.012997  
978.000000	 0.013191  
977.000000	 0.013400  
976.000000	 0.013610  
975.000000	 0.013803  
974.000000	 0.013959  
973.000000	 0.014085  
972.000000	 0.014224  
971.000000	 0.014419  
970.000000	 0.014647  
969.000000	 0.014841  
968.000000	 0.014960  
967.000000	 0.015014  
966.000000	 0.015013  
965.000000	 0.014935  
964.000000	 0.014768  
963.000000	 0.014547  
962.000000	 0.014340  
961.000000	 0.014185  
960.000000	 0.014075  
959.000000	 0.013967  
958.000000	 0.013831  
957.000000	 0.013687  
956.000000	 0.013602  
955.000000	 0.013618  
954.000000	 0.013688  
953.000000	 0.013723  
952.000000	 0.013692  
951.000000	 0.013640  
950.000000	 0.013608  
949.000000	 0.013574  
948.000000	 0.013504  
947.000000	 0.013419  
946.000000	 0.013379  
945.000000	 0.013415  
944.000000	 0.013493  
943.000000	 0.013537  
942.000000	 0.013478  
941.000000	 0.013280  
940.000000	 0.012962  
939.000000	 0.012596  
938.000000	 0.012256  
937.000000	 0.011981  
936.000000	 0.011772  
935.000000	 0.011620  
934.000000	 0.011532  
933.000000	 0.011521  
932.000000	 0.011585  
931.000000	 0.011676  
930.000000	 0.011713  
929.000000	 0.011652  
928.000000	 0.011550  
927.000000	 0.011528  
926.000000	 0.011649  
925.000000	 0.011848  
924.000000	 0.011996  
923.000000	 0.012029  
922.000000	 0.011986  
921.000000	 0.011935  
920.000000	 0.011894  
919.000000	 0.011846  
918.000000	 0.011807  
917.000000	 0.011827  
916.000000	 0.011925  
915.000000	 0.012047  
914.000000	 0.012099  
913.000000	 0.012025  
912.000000	 0.011841  
911.000000	 0.011613  
910.000000	 0.011426  
909.000000	 0.011355  
908.000000	 0.011407  
907.000000	 0.011478  
906.000000	 0.011428  
905.000000	 0.011221  
904.000000	 0.010986  
903.000000	 0.010882  
902.000000	 0.010930  
901.000000	 0.011017  
900.000000	 0.011047  
899.000000	 0.011033  
898.000000	 0.011036  
897.000000	 0.011071  
896.000000	 0.011107  
895.000000	 0.011119  
894.000000	 0.011113  
893.000000	 0.011108  
892.000000	 0.011132  
891.000000	 0.011209  
890.000000	 0.011341  
889.000000	 0.011495  
888.000000	 0.011619  
887.000000	 0.011687  
886.000000	 0.011701  
885.000000	 0.011678  
884.000000	 0.011629  
883.000000	 0.011555  
882.000000	 0.011476  
881.000000	 0.011430  
880.000000	 0.011459  
879.000000	 0.011555  
878.000000	 0.011665  
877.000000	 0.011739  
876.000000	 0.011775  
875.000000	 0.011792  
874.000000	 0.011774  
873.000000	 0.011669  
872.000000	 0.011456  
871.000000	 0.011208  
870.000000	 0.011066  
869.000000	 0.011135  
868.000000	 0.011371  
867.000000	 0.011582  
866.000000	 0.011575  
865.000000	 0.011332  
864.000000	 0.011011  
863.000000	 0.010774  
862.000000	 0.010658  
861.000000	 0.010630  
860.000000	 0.010707  
859.000000	 0.010925  
858.000000	 0.011215  
857.000000	 0.011419  
856.000000	 0.011474  
855.000000	 0.011512  
854.000000	 0.011708  
853.000000	 0.012072  
852.000000	 0.012451  
851.000000	 0.012719  
850.000000	 0.012883  
849.000000	 0.013014  
848.000000	 0.013127  
847.000000	 0.013188  
846.000000	 0.013203  
845.000000	 0.013230  
844.000000	 0.013290  
843.000000	 0.013328  
842.000000	 0.013278  
841.000000	 0.013154  
840.000000	 0.013033  
839.000000	 0.012970  
838.000000	 0.012953  
837.000000	 0.012915  
836.000000	 0.012767  
835.000000	 0.012435  
834.000000	 0.011927  
833.000000	 0.011381  
832.000000	 0.010988  
831.000000	 0.010836  
830.000000	 0.010845  
829.000000	 0.010898  
828.000000	 0.010983  
827.000000	 0.011162  
826.000000	 0.011423  
825.000000	 0.011648  
824.000000	 0.011731  
823.000000	 0.011678  
822.000000	 0.011584  
821.000000	 0.011577  
820.000000	 0.011748  
819.000000	 0.012087  
818.000000	 0.012478  
817.000000	 0.012787  
816.000000	 0.012962  
815.000000	 0.013001  
814.000000	 0.012895  
813.000000	 0.012642  
812.000000	 0.012340  
811.000000	 0.012181  
810.000000	 0.012309  
809.000000	 0.012691  
808.000000	 0.013150  
807.000000	 0.013488  
806.000000	 0.013585  
805.000000	 0.013427  
804.000000	 0.013082  
803.000000	 0.012664  
802.000000	 0.012287  
801.000000	 0.012026  
800.000000	 0.011885  
799.000000	 0.011797  
798.000000	 0.011674  
797.000000	 0.011500  
796.000000	 0.011334  
795.000000	 0.011215  
794.000000	 0.011109  
793.000000	 0.010994  
792.000000	 0.010947  
791.000000	 0.011069  
790.000000	 0.011327  
789.000000	 0.011550  
788.000000	 0.011608  
787.000000	 0.011562  
786.000000	 0.011583  
785.000000	 0.011769  
784.000000	 0.012071  
783.000000	 0.012383  
782.000000	 0.012674  
781.000000	 0.013007  
780.000000	 0.013435  
779.000000	 0.013904  
778.000000	 0.014306  
777.000000	 0.014619  
776.000000	 0.014948  
775.000000	 0.015389  
774.000000	 0.015891  
773.000000	 0.016321  
772.000000	 0.016627  
771.000000	 0.016874  
770.000000	 0.017113  
769.000000	 0.017295  
768.000000	 0.017343  
767.000000	 0.017242  
766.000000	 0.017037  
765.000000	 0.016790  
764.000000	 0.016569  
763.000000	 0.016467  
762.000000	 0.016552  
761.000000	 0.016809  
760.000000	 0.017136  
759.000000	 0.017411  
758.000000	 0.017580  
757.000000	 0.017689  
756.000000	 0.017840  
755.000000	 0.018079  
754.000000	 0.018345  
753.000000	 0.018543  
752.000000	 0.018660  
751.000000	 0.018783  
750.000000	 0.019002  
749.000000	 0.019355  
748.000000	 0.019858  
747.000000	 0.020550  
746.000000	 0.021480  
745.000000	 0.022675  
744.000000	 0.024101  
743.000000	 0.025632  
742.000000	 0.027043  
741.000000	 0.028100  
740.000000	 0.028725  
739.000000	 0.029035  
738.000000	 0.029216  
737.000000	 0.029365  
736.000000	 0.029486  
735.000000	 0.029579  
734.000000	 0.029694  
733.000000	 0.029911  
732.000000	 0.030276  
731.000000	 0.030759  
730.000000	 0.031279  
729.000000	 0.031855  
728.000000	 0.032647  
727.000000	 0.033783  
726.000000	 0.035195  
725.000000	 0.036635  
724.000000	 0.037874  
723.000000	 0.038831  
722.000000	 0.039433  
721.000000	 0.039401  
720.000000	 0.038355  
719.000000	 0.036327  
718.000000	 0.033906  
717.000000	 0.031756  
716.000000	 0.030184  
715.000000	 0.029087  
714.000000	 0.028166  
713.000000	 0.027210  
712.000000	 0.026218  
711.000000	 0.025318  
710.000000	 0.024632  
709.000000	 0.024206  
708.000000	 0.023985  
707.000000	 0.023839  
706.000000	 0.023738  
705.000000	 0.023803  
704.000000	 0.024102  
703.000000	 0.024482  
702.000000	 0.024694  
701.000000	 0.024652  
700.000000	 0.024499  
699.000000	 0.024319  
698.000000	 0.023978  
697.000000	 0.023311  
696.000000	 0.022396  
695.000000	 0.021589  
694.000000	 0.021142  
693.000000	 0.020876  
692.000000	 0.020348  
691.000000	 0.019287  
690.000000	 0.017927  
689.000000	 0.016799  
688.000000	 0.016153  
687.000000	 0.015748  
686.000000	 0.015224  
685.000000	 0.014550  
684.000000	 0.013985  
683.000000	 0.013669  
682.000000	 0.013514  
681.000000	 0.013409  
680.000000	 0.013330  
679.000000	 0.013214  
678.000000	 0.013018  
677.000000	 0.012945  
676.000000	 0.013036  
675.000000	 0.013103  
674.000000	 0.012998  
673.000000	 0.012584  
672.000000	 0.011320  
671.000000	 0.007914  
670.000000	 0.001189  
669.000000	 -0.008846 
668.000000	 -0.015877 
667.000000	 -0.010816 
666.000000	 -0.000300 
665.000000	 0.006934  
664.000000	 0.010604  
663.000000	 0.012232  
662.000000	 0.012687  
661.000000	 0.012241  
660.000000	 0.011374  
659.000000	 0.010774  
658.000000	 0.010653  
657.000000	 0.010593  
656.000000	 0.009998  
655.000000	 0.008958  
654.000000	 0.008202  
653.000000	 0.008203  
652.000000	 0.008681  
651.000000	 0.009089  
650.000000	 0.009249  

