PE IR                   SPECTRUM    ASCII       PEDS        1.60        
  -1
NB4-02~1.ASC
17/04/10
13:17:28.00
17/04/10
13:17:28.00
Admin

650.000000
6









SPECTRUM ONE,CPU32 MAIN 00.02.5000 17-APRIL-2002 13:00:00
MIR TGS
MIR
OPTKBR
68128
0.200000

4.000000
STRONG
RATIO
SPECTRUM
MAGNITUDE

DOUBLE

COMBINED


0


#HDR
-1
-1
#GR
CM-1
A
0.00000011920928955078
0.0
4000.000000
-1.000000
3351
8
0.219315
-0.007213
#DATA
4000.000000	0.001321  
3999.000000	0.001351  
3998.000000	0.001455  
3997.000000	0.001625  
3996.000000	0.001805  
3995.000000	0.001936  
3994.000000	0.001837  
3993.000000	0.001809  
3992.000000	0.001745  
3991.000000	0.001678  
3990.000000	0.001627  
3989.000000	0.001590  
3988.000000	0.001544  
3987.000000	0.001475  
3986.000000	0.001401  
3985.000000	0.001368  
3984.000000	0.001387  
3983.000000	0.001405  
3982.000000	0.001339  
3981.000000	0.001173  
3980.000000	0.000985  
3979.000000	0.000889  
3978.000000	0.000937  
3977.000000	0.001102  
3976.000000	0.001321  
3975.000000	0.001537  
3974.000000	0.001704  
3973.000000	0.001771  
3972.000000	0.001714  
3971.000000	0.001570  
3970.000000	0.001422  
3969.000000	0.001328  
3968.000000	0.001268  
3967.000000	0.001185  
3966.000000	0.001060  
3965.000000	0.000951  
3964.000000	0.000934  
3963.000000	0.001026  
3962.000000	0.001169  
3961.000000	0.001298  
3960.000000	0.001395  
3959.000000	0.001474  
3958.000000	0.001532  
3957.000000	0.001531  
3956.000000	0.001448  
3955.000000	0.001306  
3954.000000	0.001161  
3953.000000	0.001054  
3952.000000	0.000992  
3951.000000	0.000965  
3950.000000	0.000978  
3949.000000	0.001051  
3948.000000	0.001190  
3947.000000	0.001351  
3946.000000	0.001459  
3945.000000	0.001451  
3944.000000	0.001327  
3943.000000	0.001160  
3942.000000	0.001039  
3941.000000	0.001013  
3940.000000	0.001082  
3939.000000	0.001227  
3938.000000	0.001407  
3937.000000	0.001566  
3936.000000	0.001644  
3935.000000	0.001627  
3934.000000	0.001560  
3933.000000	0.001515  
3932.000000	0.001520  
3931.000000	0.001535  
3930.000000	0.001503  
3929.000000	0.001418  
3928.000000	0.001331  
3927.000000	0.001307  
3926.000000	0.001370  
3925.000000	0.001493  
3924.000000	0.001628  
3923.000000	0.001740  
3922.000000	0.001816  
3921.000000	0.001852  
3920.000000	0.001846  
3919.000000	0.001796  
3918.000000	0.001703  
3917.000000	0.001590  
3916.000000	0.001513  
3915.000000	0.001528  
3914.000000	0.001629  
3913.000000	0.001737  
3912.000000	0.001751  
3911.000000	0.001637  
3910.000000	0.001459  
3909.000000	0.001317  
3908.000000	0.001268  
3907.000000	0.001290  
3906.000000	0.001317  
3905.000000	0.001304  
3904.000000	0.001261  
3903.000000	0.001217  
3902.000000	0.001191  
3901.000000	0.001197  
3900.000000	0.001257  
3899.000000	0.001376  
3898.000000	0.001503  
3897.000000	0.001562  
3896.000000	0.001515  
3895.000000	0.001393  
3894.000000	0.001278  
3893.000000	0.001237  
3892.000000	0.001254  
3891.000000	0.001256  
3890.000000	0.001209  
3889.000000	0.001152  
3888.000000	0.001134  
3887.000000	0.001148  
3886.000000	0.001146  
3885.000000	0.001105  
3884.000000	0.001052  
3883.000000	0.001026  
3882.000000	0.001043  
3881.000000	0.001097  
3880.000000	0.001159  
3879.000000	0.001219  
3878.000000	0.001306  
3877.000000	0.001453  
3876.000000	0.001646  
3875.000000	0.001826  
3874.000000	0.001945  
3873.000000	0.002003  
3872.000000	0.002017  
3871.000000	0.001980  
3870.000000	0.001882  
3869.000000	0.001767  
3868.000000	0.001710  
3867.000000	0.001745  
3866.000000	0.001821  
3865.000000	0.001853  
3864.000000	0.001818  
3863.000000	0.001759  
3862.000000	0.001718  
3861.000000	0.001678  
3860.000000	0.001589  
3859.000000	0.001431  
3858.000000	0.001239  
3857.000000	0.001088  
3856.000000	0.001029  
3855.000000	0.001001  
3854.000000	0.000941  
3853.000000	0.000912  
3852.000000	0.000984  
3851.000000	0.001142  
3850.000000	0.001338  
3849.000000	0.001545  
3848.000000	0.001767  
3847.000000	0.002004  
3846.000000	0.002231  
3845.000000	0.002425  
3844.000000	0.002579  
3843.000000	0.002683  
3842.000000	0.002729  
3841.000000	0.002709  
3840.000000	0.002624  
3839.000000	0.002477  
3838.000000	0.002283  
3837.000000	0.002098  
3836.000000	0.002014  
3835.000000	0.002085  
3834.000000	0.002274  
3833.000000	0.002448  
3832.000000	0.002479  
3831.000000	0.002356  
3830.000000	0.002187  
3829.000000	0.002079  
3828.000000	0.002029  
3827.000000	0.001964  
3826.000000	0.001870  
3825.000000	0.001858  
3824.000000	0.002068  
3823.000000	0.002488  
3822.000000	0.002870  
3821.000000	0.002917  
3820.000000	0.002583  
3819.000000	0.002076  
3818.000000	0.001640  
3817.000000	0.001392  
3816.000000	0.001312  
3815.000000	0.001318  
3814.000000	0.001355  
3813.000000	0.001382  
3812.000000	0.001361  
3811.000000	0.001287  
3810.000000	0.001194  
3809.000000	0.001145  
3808.000000	0.001187  
3807.000000	0.001330  
3806.000000	0.001551  
3805.000000	0.001814  
3804.000000	0.002050  
3803.000000	0.002138  
3802.000000	0.001995  
3801.000000	0.001709  
3800.000000	0.001484  
3799.000000	0.001445  
3798.000000	0.001577  
3797.000000	0.001792  
3796.000000	0.002000  
3795.000000	0.002144  
3794.000000	0.002209  
3793.000000	0.002204  
3792.000000	0.002151  
3791.000000	0.002069  
3790.000000	0.001970  
3789.000000	0.001849  
3788.000000	0.001715  
3787.000000	0.001595  
3786.000000	0.001521  
3785.000000	0.001496  
3784.000000	0.001499  
3783.000000	0.001511  
3782.000000	0.001524  
3781.000000	0.001529  
3780.000000	0.001520  
3779.000000	0.001503  
3778.000000	0.001493  
3777.000000	0.001499  
3776.000000	0.001508  
3775.000000	0.001489  
3774.000000	0.001431  
3773.000000	0.001373  
3772.000000	0.001381  
3771.000000	0.001512  
3770.000000	0.001770  
3769.000000	0.002080  
3768.000000	0.002318  
3767.000000	0.002359  
3766.000000	0.002155  
3765.000000	0.001792  
3764.000000	0.001465  
3763.000000	0.001343  
3762.000000	0.001460  
3761.000000	0.001716  
3760.000000	0.001963  
3759.000000	0.002112  
3758.000000	0.002145  
3757.000000	0.002069  
3756.000000	0.001903  
3755.000000	0.001719  
3754.000000	0.001668  
3753.000000	0.001894  
3752.000000	0.002344  
3751.000000	0.002679  
3750.000000	0.002583  
3749.000000	0.002130  
3748.000000	0.001663  
3747.000000	0.001484  
3746.000000	0.001683  
3745.000000	0.002042  
3744.000000	0.002238  
3743.000000	0.002219  
3742.000000	0.002143  
3741.000000	0.002125  
3740.000000	0.002217  
3739.000000	0.002423  
3738.000000	0.002661  
3737.000000	0.002795  
3736.000000	0.002778  
3735.000000	0.002724  
3734.000000	0.002752  
3733.000000	0.002816  
3732.000000	0.002780  
3731.000000	0.002597  
3730.000000	0.002346  
3729.000000	0.002129  
3728.000000	0.001987  
3727.000000	0.001904  
3726.000000	0.001853  
3725.000000	0.001822  
3724.000000	0.001794  
3723.000000	0.001736  
3722.000000	0.001627  
3721.000000	0.001482  
3720.000000	0.001349  
3719.000000	0.001265  
3718.000000	0.001232  
3717.000000	0.001213  
3716.000000	0.001159  
3715.000000	0.001051  
3714.000000	0.000920  
3713.000000	0.000869  
3712.000000	0.000998  
3711.000000	0.001262  
3710.000000	0.001494  
3709.000000	0.001604  
3708.000000	0.001662  
3707.000000	0.001766  
3706.000000	0.001924  
3705.000000	0.002025  
3704.000000	0.001944  
3703.000000	0.001673  
3702.000000	0.001361  
3701.000000	0.001183  
3700.000000	0.001190  
3699.000000	0.001312  
3698.000000	0.001432  
3697.000000	0.001470  
3696.000000	0.001429  
3695.000000	0.001376  
3694.000000	0.001364  
3693.000000	0.001382  
3692.000000	0.001381  
3691.000000	0.001340  
3690.000000	0.001296  
3689.000000	0.001275  
3688.000000	0.001260  
3687.000000	0.001255  
3686.000000	0.001297  
3685.000000	0.001410  
3684.000000	0.001588  
3683.000000	0.001759  
3682.000000	0.001812  
3681.000000	0.001667  
3680.000000	0.001373  
3679.000000	0.001103  
3678.000000	0.001042  
3677.000000	0.001233  
3676.000000	0.001528  
3675.000000	0.001728  
3674.000000	0.001802  
3673.000000	0.001876  
3672.000000	0.002046  
3671.000000	0.002269  
3670.000000	0.002415  
3669.000000	0.002414  
3668.000000	0.002297  
3667.000000	0.002135  
3666.000000	0.001951  
3665.000000	0.001718  
3664.000000	0.001409  
3663.000000	0.001040  
3662.000000	0.000680  
3661.000000	0.000398  
3660.000000	0.000237  
3659.000000	0.000222  
3658.000000	0.000378  
3657.000000	0.000697  
3656.000000	0.001102  
3655.000000	0.001480  
3654.000000	0.001750  
3653.000000	0.001866  
3652.000000	0.001809  
3651.000000	0.001612  
3650.000000	0.001399  
3649.000000	0.001284  
3648.000000	0.001269  
3647.000000	0.001305  
3646.000000	0.001360  
3645.000000	0.001423  
3644.000000	0.001505  
3643.000000	0.001625  
3642.000000	0.001786  
3641.000000	0.001959  
3640.000000	0.002088  
3639.000000	0.002129  
3638.000000	0.002090  
3637.000000	0.002026  
3636.000000	0.001995  
3635.000000	0.002015  
3634.000000	0.002062  
3633.000000	0.002105  
3632.000000	0.002128  
3631.000000	0.002127  
3630.000000	0.002094  
3629.000000	0.002024  
3628.000000	0.001905  
3627.000000	0.001749  
3626.000000	0.001612  
3625.000000	0.001546  
3624.000000	0.001565  
3623.000000	0.001620  
3622.000000	0.001620  
3621.000000	0.001502  
3620.000000	0.001313  
3619.000000	0.001195  
3618.000000	0.001236  
3617.000000	0.001401  
3616.000000	0.001587  
3615.000000	0.001701  
3614.000000	0.001721  
3613.000000	0.001702  
3612.000000	0.001722  
3611.000000	0.001817  
3610.000000	0.001955  
3609.000000	0.002053  
3608.000000	0.002028  
3607.000000	0.001856  
3606.000000	0.001574  
3605.000000	0.001263  
3604.000000	0.001018  
3603.000000	0.000922  
3602.000000	0.001016  
3601.000000	0.001283  
3600.000000	0.001641  
3599.000000	0.001973  
3598.000000	0.002156  
3597.000000	0.002120  
3596.000000	0.001894  
3595.000000	0.001607  
3594.000000	0.001390  
3593.000000	0.001260  
3592.000000	0.001143  
3591.000000	0.000987  
3590.000000	0.000837  
3589.000000	0.000820  
3588.000000	0.001021  
3587.000000	0.001356  
3586.000000	0.001633  
3585.000000	0.001713  
3584.000000	0.001578  
3583.000000	0.001303  
3582.000000	0.001045  
3581.000000	0.000983  
3580.000000	0.001190  
3579.000000	0.001538  
3578.000000	0.001776  
3577.000000	0.001736  
3576.000000	0.001465  
3575.000000	0.001143  
3574.000000	0.000898  
3573.000000	0.000722  
3572.000000	0.000557  
3571.000000	0.000416  
3570.000000	0.000390  
3569.000000	0.000532  
3568.000000	0.000758  
3567.000000	0.000910  
3566.000000	0.000948  
3565.000000	0.000987  
3564.000000	0.001124  
3563.000000	0.001331  
3562.000000	0.001511  
3561.000000	0.001611  
3560.000000	0.001665  
3559.000000	0.001730  
3558.000000	0.001809  
3557.000000	0.001841  
3556.000000	0.001761  
3555.000000	0.001558  
3554.000000	0.001283  
3553.000000	0.001034  
3552.000000	0.000894  
3551.000000	0.000872  
3550.000000	0.000896  
3549.000000	0.000870  
3548.000000	0.000761  
3547.000000	0.000638  
3546.000000	0.000632  
3545.000000	0.000797  
3544.000000	0.001057  
3543.000000	0.001283  
3542.000000	0.001417  
3541.000000	0.001505  
3540.000000	0.001611  
3539.000000	0.001717  
3538.000000	0.001732  
3537.000000	0.001594  
3536.000000	0.001353  
3535.000000	0.001142  
3534.000000	0.001064  
3533.000000	0.001136  
3532.000000	0.001314  
3531.000000	0.001535  
3530.000000	0.001725  
3529.000000	0.001813  
3528.000000	0.001754  
3527.000000	0.001569  
3526.000000	0.001327  
3525.000000	0.001109  
3524.000000	0.000982  
3523.000000	0.000979  
3522.000000	0.001082  
3521.000000	0.001226  
3520.000000	0.001342  
3519.000000	0.001411  
3518.000000	0.001467  
3517.000000	0.001547  
3516.000000	0.001652  
3515.000000	0.001747  
3514.000000	0.001806  
3513.000000	0.001822  
3512.000000	0.001796  
3511.000000	0.001735  
3510.000000	0.001656  
3509.000000	0.001570  
3508.000000	0.001475  
3507.000000	0.001368  
3506.000000	0.001271  
3505.000000	0.001228  
3504.000000	0.001263  
3503.000000	0.001346  
3502.000000	0.001406  
3501.000000	0.001396  
3500.000000	0.001330  
3499.000000	0.001279  
3498.000000	0.001314  
3497.000000	0.001435  
3496.000000	0.001570  
3495.000000	0.001640  
3494.000000	0.001614  
3493.000000	0.001497  
3492.000000	0.001295  
3491.000000	0.001044  
3490.000000	0.000843  
3489.000000	0.000813  
3488.000000	0.000990  
3487.000000	0.001299  
3486.000000	0.001634  
3485.000000	0.001937  
3484.000000	0.002159  
3483.000000	0.002227  
3482.000000	0.002098  
3481.000000	0.001831  
3480.000000	0.001559  
3479.000000	0.001376  
3478.000000	0.001287  
3477.000000	0.001250  
3476.000000	0.001242  
3475.000000	0.001263  
3474.000000	0.001311  
3473.000000	0.001359  
3472.000000	0.001359  
3471.000000	0.001272  
3470.000000	0.001120  
3469.000000	0.000987  
3468.000000	0.000959  
3467.000000	0.001050  
3466.000000	0.001191  
3465.000000	0.001281  
3464.000000	0.001247  
3463.000000	0.001086  
3462.000000	0.000883  
3461.000000	0.000767  
3460.000000	0.000806  
3459.000000	0.000945  
3458.000000	0.001067  
3457.000000	0.001110  
3456.000000	0.001116  
3455.000000	0.001154  
3454.000000	0.001251  
3453.000000	0.001393  
3452.000000	0.001545  
3451.000000	0.001666  
3450.000000	0.001715  
3449.000000	0.001693  
3448.000000	0.001656  
3447.000000	0.001661  
3446.000000	0.001710  
3445.000000	0.001751  
3444.000000	0.001738  
3443.000000	0.001650  
3442.000000	0.001510  
3441.000000	0.001385  
3440.000000	0.001362  
3439.000000	0.001474  
3438.000000	0.001641  
3437.000000	0.001710  
3436.000000	0.001577  
3435.000000	0.001297  
3434.000000	0.001057  
3433.000000	0.001032  
3432.000000	0.001230  
3431.000000	0.001486  
3430.000000	0.001602  
3429.000000	0.001503  
3428.000000	0.001257  
3427.000000	0.000983  
3426.000000	0.000765  
3425.000000	0.000643  
3424.000000	0.000631  
3423.000000	0.000727  
3422.000000	0.000902  
3421.000000	0.001108  
3420.000000	0.001291  
3419.000000	0.001398  
3418.000000	0.001408  
3417.000000	0.001357  
3416.000000	0.001321  
3415.000000	0.001346  
3414.000000	0.001424  
3413.000000	0.001531  
3412.000000	0.001666  
3411.000000	0.001814  
3410.000000	0.001893  
3409.000000	0.001796  
3408.000000	0.001493  
3407.000000	0.001089  
3406.000000	0.000751  
3405.000000	0.000597  
3404.000000	0.000633  
3403.000000	0.000799  
3402.000000	0.001030  
3401.000000	0.001282  
3400.000000	0.001499  
3399.000000	0.001603  
3398.000000	0.001564  
3397.000000	0.001468  
3396.000000	0.001465  
3395.000000	0.001627  
3394.000000	0.001877  
3393.000000	0.002061  
3392.000000	0.002089  
3391.000000	0.001981  
3390.000000	0.001812  
3389.000000	0.001649  
3388.000000	0.001524  
3387.000000	0.001425  
3386.000000	0.001324  
3385.000000	0.001227  
3384.000000	0.001192  
3383.000000	0.001272  
3382.000000	0.001441  
3381.000000	0.001605  
3380.000000	0.001681  
3379.000000	0.001650  
3378.000000	0.001525  
3377.000000	0.001326  
3376.000000	0.001095  
3375.000000	0.000915  
3374.000000	0.000863  
3373.000000	0.000947  
3372.000000	0.001103  
3371.000000	0.001265  
3370.000000	0.001420  
3369.000000	0.001580  
3368.000000	0.001726  
3367.000000	0.001808  
3366.000000	0.001812  
3365.000000	0.001785  
3364.000000	0.001778  
3363.000000	0.001771  
3362.000000	0.001716  
3361.000000	0.001633  
3360.000000	0.001609  
3359.000000	0.001682  
3358.000000	0.001781  
3357.000000	0.001821  
3356.000000	0.001807  
3355.000000	0.001793  
3354.000000	0.001768  
3353.000000	0.001662  
3352.000000	0.001458  
3351.000000	0.001236  
3350.000000	0.001080  
3349.000000	0.001014  
3348.000000	0.001036  
3347.000000	0.001160  
3346.000000	0.001381  
3345.000000	0.001613  
3344.000000	0.001741  
3343.000000	0.001731  
3342.000000	0.001651  
3341.000000	0.001595  
3340.000000	0.001584  
3339.000000	0.001571  
3338.000000	0.001518  
3337.000000	0.001449  
3336.000000	0.001426  
3335.000000	0.001470  
3334.000000	0.001536  
3333.000000	0.001566  
3332.000000	0.001558  
3331.000000	0.001559  
3330.000000	0.001607  
3329.000000	0.001700  
3328.000000	0.001818  
3327.000000	0.001930  
3326.000000	0.001984  
3325.000000	0.001930  
3324.000000	0.001781  
3323.000000	0.001615  
3322.000000	0.001509  
3321.000000	0.001476  
3320.000000	0.001494  
3319.000000	0.001559  
3318.000000	0.001674  
3317.000000	0.001802  
3316.000000	0.001864  
3315.000000	0.001805  
3314.000000	0.001653  
3313.000000	0.001497  
3312.000000	0.001419  
3311.000000	0.001452  
3310.000000	0.001569  
3309.000000	0.001683  
3308.000000	0.001688  
3307.000000	0.001529  
3306.000000	0.001279  
3305.000000	0.001107  
3304.000000	0.001143  
3303.000000	0.001368  
3302.000000	0.001640  
3301.000000	0.001833  
3300.000000	0.001908  
3299.000000	0.001883  
3298.000000	0.001771  
3297.000000	0.001605  
3296.000000	0.001459  
3295.000000	0.001399  
3294.000000	0.001409  
3293.000000	0.001435  
3292.000000	0.001478  
3291.000000	0.001587  
3290.000000	0.001752  
3289.000000	0.001870  
3288.000000	0.001849  
3287.000000	0.001710  
3286.000000	0.001546  
3285.000000	0.001407  
3284.000000	0.001282  
3283.000000	0.001156  
3282.000000	0.001054  
3281.000000	0.001014  
3280.000000	0.001049  
3279.000000	0.001153  
3278.000000	0.001303  
3277.000000	0.001467  
3276.000000	0.001625  
3275.000000	0.001789  
3274.000000	0.001968  
3273.000000	0.002130  
3272.000000	0.002199  
3271.000000	0.002128  
3270.000000	0.001944  
3269.000000	0.001718  
3268.000000	0.001493  
3267.000000	0.001271  
3266.000000	0.001082  
3265.000000	0.001015  
3264.000000	0.001149  
3263.000000	0.001444  
3262.000000	0.001736  
3261.000000	0.001883  
3260.000000	0.001889  
3259.000000	0.001873  
3258.000000	0.001914  
3257.000000	0.001968  
3256.000000	0.001947  
3255.000000	0.001836  
3254.000000	0.001724  
3253.000000	0.001720  
3252.000000	0.001851  
3251.000000	0.002037  
3250.000000	0.002155  
3249.000000	0.002147  
3248.000000	0.002062  
3247.000000	0.001978  
3246.000000	0.001914  
3245.000000	0.001840  
3244.000000	0.001771  
3243.000000	0.001777  
3242.000000	0.001883  
3241.000000	0.002003  
3240.000000	0.002020  
3239.000000	0.001895  
3238.000000	0.001686  
3237.000000	0.001478  
3236.000000	0.001330  
3235.000000	0.001265  
3234.000000	0.001273  
3233.000000	0.001313  
3232.000000	0.001359  
3231.000000	0.001416  
3230.000000	0.001488  
3229.000000	0.001546  
3228.000000	0.001573  
3227.000000	0.001607  
3226.000000	0.001707  
3225.000000	0.001874  
3224.000000	0.002030  
3223.000000	0.002098  
3222.000000	0.002050  
3221.000000	0.001908  
3220.000000	0.001722  
3219.000000	0.001574  
3218.000000	0.001540  
3217.000000	0.001634  
3216.000000	0.001804  
3215.000000	0.001982  
3214.000000	0.002130  
3213.000000	0.002227  
3212.000000	0.002255  
3211.000000	0.002212  
3210.000000	0.002133  
3209.000000	0.002072  
3208.000000	0.002067  
3207.000000	0.002135  
3206.000000	0.002272  
3205.000000	0.002448  
3204.000000	0.002621  
3203.000000	0.002758  
3202.000000	0.002835  
3201.000000	0.002809  
3200.000000	0.002635  
3199.000000	0.002330  
3198.000000	0.001984  
3197.000000	0.001697  
3196.000000	0.001505  
3195.000000	0.001398  
3194.000000	0.001379  
3193.000000	0.001469  
3192.000000	0.001657  
3191.000000	0.001886  
3190.000000	0.002107  
3189.000000	0.002306  
3188.000000	0.002471  
3187.000000	0.002573  
3186.000000	0.002594  
3185.000000	0.002560  
3184.000000	0.002507  
3183.000000	0.002430  
3182.000000	0.002302  
3181.000000	0.002138  
3180.000000	0.002003  
3179.000000	0.001946  
3178.000000	0.001960  
3177.000000	0.002015  
3176.000000	0.002121  
3175.000000	0.002287  
3174.000000	0.002466  
3173.000000	0.002566  
3172.000000	0.002541  
3171.000000	0.002444  
3170.000000	0.002366  
3169.000000	0.002347  
3168.000000	0.002361  
3167.000000	0.002354  
3166.000000	0.002301  
3165.000000	0.002212  
3164.000000	0.002128  
3163.000000	0.002088  
3162.000000	0.002092  
3161.000000	0.002105  
3160.000000	0.002102  
3159.000000	0.002101  
3158.000000	0.002147  
3157.000000	0.002247  
3156.000000	0.002361  
3155.000000	0.002438  
3154.000000	0.002472  
3153.000000	0.002503  
3152.000000	0.002560  
3151.000000	0.002609  
3150.000000	0.002574  
3149.000000	0.002421  
3148.000000	0.002218  
3147.000000	0.002062  
3146.000000	0.001987  
3145.000000	0.001947  
3144.000000	0.001912  
3143.000000	0.001910  
3142.000000	0.001969  
3141.000000	0.002063  
3140.000000	0.002150  
3139.000000	0.002237  
3138.000000	0.002355  
3137.000000	0.002482  
3136.000000	0.002537  
3135.000000	0.002449  
3134.000000	0.002231  
3133.000000	0.001986  
3132.000000	0.001856  
3131.000000	0.001922  
3130.000000	0.002124  
3129.000000	0.002290  
3128.000000	0.002284  
3127.000000	0.002129  
3126.000000	0.001958  
3125.000000	0.001877  
3124.000000	0.001896  
3123.000000	0.001994  
3122.000000	0.002150  
3121.000000	0.002325  
3120.000000	0.002437  
3119.000000	0.002423  
3118.000000	0.002291  
3117.000000	0.002126  
3116.000000	0.002030  
3115.000000	0.002064  
3114.000000	0.002205  
3113.000000	0.002362  
3112.000000	0.002453  
3111.000000	0.002476  
3110.000000	0.002495  
3109.000000	0.002543  
3108.000000	0.002579  
3107.000000	0.002541  
3106.000000	0.002418  
3105.000000	0.002269  
3104.000000	0.002182  
3103.000000	0.002220  
3102.000000	0.002367  
3101.000000	0.002521  
3100.000000	0.002554  
3099.000000	0.002424  
3098.000000	0.002209  
3097.000000	0.002041  
3096.000000	0.002012  
3095.000000	0.002126  
3094.000000	0.002313  
3093.000000	0.002477  
3092.000000	0.002561  
3091.000000	0.002572  
3090.000000	0.002550  
3089.000000	0.002510  
3088.000000	0.002455  
3087.000000	0.002422  
3086.000000	0.002468  
3085.000000	0.002583  
3084.000000	0.002673  
3083.000000	0.002657  
3082.000000	0.002573  
3081.000000	0.002535  
3080.000000	0.002610  
3079.000000	0.002774  
3078.000000	0.002965  
3077.000000	0.003127  
3076.000000	0.003218  
3075.000000	0.003207  
3074.000000	0.003108  
3073.000000	0.002990  
3072.000000	0.002942  
3071.000000	0.003019  
3070.000000	0.003200  
3069.000000	0.003389  
3068.000000	0.003470  
3067.000000	0.003406  
3066.000000	0.003287  
3065.000000	0.003257  
3064.000000	0.003381  
3063.000000	0.003592  
3062.000000	0.003756  
3061.000000	0.003790  
3060.000000	0.003714  
3059.000000	0.003622  
3058.000000	0.003587  
3057.000000	0.003612  
3056.000000	0.003646  
3055.000000	0.003668  
3054.000000	0.003707  
3053.000000	0.003779  
3052.000000	0.003841  
3051.000000	0.003835  
3050.000000	0.003775  
3049.000000	0.003746  
3048.000000	0.003813  
3047.000000	0.003961  
3046.000000	0.004116  
3045.000000	0.004210  
3044.000000	0.004214  
3043.000000	0.004141  
3042.000000	0.004042  
3041.000000	0.003991  
3040.000000	0.004038  
3039.000000	0.004169  
3038.000000	0.004324  
3037.000000	0.004444  
3036.000000	0.004501  
3035.000000	0.004499  
3034.000000	0.004464  
3033.000000	0.004439  
3032.000000	0.004480  
3031.000000	0.004626  
3030.000000	0.004860  
3029.000000	0.005100  
3028.000000	0.005258  
3027.000000	0.005307  
3026.000000	0.005316  
3025.000000	0.005389  
3024.000000	0.005585  
3023.000000	0.005876  
3022.000000	0.006157  
3021.000000	0.006315  
3020.000000	0.006298  
3019.000000	0.006169  
3018.000000	0.006077  
3017.000000	0.006137  
3016.000000	0.006340  
3015.000000	0.006595  
3014.000000	0.006823  
3013.000000	0.007006  
3012.000000	0.007144  
3011.000000	0.007238  
3010.000000	0.007317  
3009.000000	0.007447  
3008.000000	0.007669  
3007.000000	0.007937  
3006.000000	0.008148  
3005.000000	0.008225  
3004.000000	0.008164  
3003.000000	0.008026  
3002.000000	0.007917  
3001.000000	0.007950  
3000.000000	0.008184  
2999.000000	0.008571  
2998.000000	0.008973  
2997.000000	0.009260  
2996.000000	0.009401  
2995.000000	0.009470  
2994.000000	0.009593  
2993.000000	0.009870  
2992.000000	0.010331  
2991.000000	0.010918  
2990.000000	0.011527  
2989.000000	0.012077  
2988.000000	0.012579  
2987.000000	0.013131  
2986.000000	0.013843  
2985.000000	0.014753  
2984.000000	0.015809  
2983.000000	0.016940  
2982.000000	0.018130  
2981.000000	0.019431  
2980.000000	0.020909  
2979.000000	0.022588  
2978.000000	0.024466  
2977.000000	0.026572  
2976.000000	0.028992  
2975.000000	0.031830  
2974.000000	0.035133  
2973.000000	0.038854  
2972.000000	0.042877  
2971.000000	0.047103  
2970.000000	0.051549  
2969.000000	0.056353  
2968.000000	0.061645  
2967.000000	0.067374  
2966.000000	0.073281  
2965.000000	0.079067  
2964.000000	0.084598  
2963.000000	0.089908  
2962.000000	0.095061  
2961.000000	0.100036  
2960.000000	0.104739  
2959.000000	0.109038  
2958.000000	0.112751  
2957.000000	0.115685  
2956.000000	0.117720  
2955.000000	0.118847  
2954.000000	0.119097  
2953.000000	0.118487  
2952.000000	0.117058  
2951.000000	0.114954  
2950.000000	0.112423  
2949.000000	0.109750  
2948.000000	0.107193  
2947.000000	0.104962  
2946.000000	0.103230  
2945.000000	0.102155  
2944.000000	0.101883  
2943.000000	0.102522  
2942.000000	0.104106  
2941.000000	0.106603  
2940.000000	0.109963  
2939.000000	0.114153  
2938.000000	0.119153  
2937.000000	0.124906  
2936.000000	0.131287  
2935.000000	0.138110  
2934.000000	0.145198  
2933.000000	0.152486  
2932.000000	0.160041  
2931.000000	0.167933  
2930.000000	0.176076  
2929.000000	0.184215  
2928.000000	0.192050  
2927.000000	0.199316  
2926.000000	0.205769  
2925.000000	0.211182  
2924.000000	0.215365  
2923.000000	0.218139  
2922.000000	0.219315  
2921.000000	0.218821  
2920.000000	0.216846  
2919.000000	0.213749  
2918.000000	0.209823  
2917.000000	0.205207  
2916.000000	0.200036  
2915.000000	0.194528  
2914.000000	0.188904  
2913.000000	0.183295  
2912.000000	0.177795  
2911.000000	0.172532  
2910.000000	0.167612  
2909.000000	0.163012  
2908.000000	0.158582  
2907.000000	0.154173  
2906.000000	0.149729  
2905.000000	0.145303  
2904.000000	0.140984  
2903.000000	0.136837  
2902.000000	0.132861  
2901.000000	0.129008  
2900.000000	0.125228  
2899.000000	0.121496  
2898.000000	0.117812  
2897.000000	0.114191  
2896.000000	0.110651  
2895.000000	0.107197  
2894.000000	0.103804  
2893.000000	0.100418  
2892.000000	0.097005  
2891.000000	0.093589  
2890.000000	0.090258  
2889.000000	0.087133  
2888.000000	0.084321  
2887.000000	0.081888  
2886.000000	0.079855  
2885.000000	0.078223  
2884.000000	0.076998  
2883.000000	0.076208  
2882.000000	0.075895  
2881.000000	0.076116  
2880.000000	0.076962  
2879.000000	0.078541  
2878.000000	0.080908  
2877.000000	0.083976  
2876.000000	0.087493  
2875.000000	0.091102  
2874.000000	0.094430  
2873.000000	0.097166  
2872.000000	0.099104  
2871.000000	0.100195  
2870.000000	0.100586  
2869.000000	0.100588  
2868.000000	0.100553  
2867.000000	0.100750  
2866.000000	0.101344  
2865.000000	0.102485  
2864.000000	0.104340  
2863.000000	0.106993  
2862.000000	0.110352  
2861.000000	0.114218  
2860.000000	0.118450  
2859.000000	0.122991  
2858.000000	0.127719  
2857.000000	0.132314  
2856.000000	0.136299  
2855.000000	0.139171  
2854.000000	0.140497  
2853.000000	0.140001  
2852.000000	0.137652  
2851.000000	0.133660  
2850.000000	0.128362  
2849.000000	0.122112  
2848.000000	0.115254  
2847.000000	0.108122  
2846.000000	0.100998  
2845.000000	0.094038  
2844.000000	0.087251  
2843.000000	0.080576  
2842.000000	0.073989  
2841.000000	0.067570  
2840.000000	0.061478  
2839.000000	0.055866  
2838.000000	0.050815  
2837.000000	0.046320  
2836.000000	0.042312  
2835.000000	0.038701  
2834.000000	0.035418  
2833.000000	0.032438  
2832.000000	0.029784  
2831.000000	0.027490  
2830.000000	0.025561  
2829.000000	0.023949  
2828.000000	0.022564  
2827.000000	0.021313  
2826.000000	0.020133  
2825.000000	0.019014  
2824.000000	0.017991  
2823.000000	0.017114  
2822.000000	0.016404  
2821.000000	0.015822  
2820.000000	0.015290  
2819.000000	0.014750  
2818.000000	0.014195  
2817.000000	0.013659  
2816.000000	0.013175  
2815.000000	0.012740  
2814.000000	0.012316  
2813.000000	0.011852  
2812.000000	0.011325  
2811.000000	0.010786  
2810.000000	0.010342  
2809.000000	0.010080  
2808.000000	0.009978  
2807.000000	0.009934  
2806.000000	0.009845  
2805.000000	0.009677  
2804.000000	0.009439  
2803.000000	0.009147  
2802.000000	0.008829  
2801.000000	0.008538  
2800.000000	0.008323  
2799.000000	0.008182  
2798.000000	0.008072  
2797.000000	0.007970  
2796.000000	0.007899  
2795.000000	0.007867  
2794.000000	0.007806  
2793.000000	0.007600  
2792.000000	0.007206  
2791.000000	0.006723  
2790.000000	0.006329  
2789.000000	0.006134  
2788.000000	0.006102  
2787.000000	0.006114  
2786.000000	0.006082  
2785.000000	0.005994  
2784.000000	0.005885  
2783.000000	0.005784  
2782.000000	0.005710  
2781.000000	0.005686  
2780.000000	0.005724  
2779.000000	0.005791  
2778.000000	0.005812  
2777.000000	0.005711  
2776.000000	0.005481  
2775.000000	0.005201  
2774.000000	0.004985  
2773.000000	0.004902  
2772.000000	0.004926  
2771.000000	0.004973  
2770.000000	0.004972  
2769.000000	0.004911  
2768.000000	0.004808  
2767.000000	0.004674  
2766.000000	0.004525  
2765.000000	0.004412  
2764.000000	0.004394  
2763.000000	0.004471  
2762.000000	0.004564  
2761.000000	0.004589  
2760.000000	0.004541  
2759.000000	0.004482  
2758.000000	0.004450  
2757.000000	0.004428  
2756.000000	0.004390  
2755.000000	0.004353  
2754.000000	0.004358  
2753.000000	0.004402  
2752.000000	0.004436  
2751.000000	0.004425  
2750.000000	0.004392  
2749.000000	0.004387  
2748.000000	0.004416  
2747.000000	0.004429  
2746.000000	0.004383  
2745.000000	0.004298  
2744.000000	0.004244  
2743.000000	0.004272  
2742.000000	0.004366  
2741.000000	0.004473  
2740.000000	0.004556  
2739.000000	0.004607  
2738.000000	0.004635  
2737.000000	0.004657  
2736.000000	0.004706  
2735.000000	0.004815  
2734.000000	0.004976  
2733.000000	0.005129  
2732.000000	0.005205  
2731.000000	0.005184  
2730.000000	0.005112  
2729.000000	0.005073  
2728.000000	0.005116  
2727.000000	0.005209  
2726.000000	0.005260  
2725.000000	0.005204  
2724.000000	0.005069  
2723.000000	0.004942  
2722.000000	0.004876  
2721.000000	0.004859  
2720.000000	0.004868  
2719.000000	0.004893  
2718.000000	0.004917  
2717.000000	0.004900  
2716.000000	0.004827  
2715.000000	0.004736  
2714.000000	0.004660  
2713.000000	0.004578  
2712.000000	0.004456  
2711.000000	0.004326  
2710.000000	0.004249  
2709.000000	0.004233  
2708.000000	0.004228  
2707.000000	0.004204  
2706.000000	0.004189  
2705.000000	0.004196  
2704.000000	0.004178  
2703.000000	0.004079  
2702.000000	0.003920  
2701.000000	0.003780  
2700.000000	0.003704  
2699.000000	0.003678  
2698.000000	0.003670  
2697.000000	0.003673  
2696.000000	0.003703  
2695.000000	0.003775  
2694.000000	0.003883  
2693.000000	0.003990  
2692.000000	0.004045  
2691.000000	0.004038  
2690.000000	0.004023  
2689.000000	0.004083  
2688.000000	0.004240  
2687.000000	0.004424  
2686.000000	0.004538  
2685.000000	0.004555  
2684.000000	0.004531  
2683.000000	0.004529  
2682.000000	0.004558  
2681.000000	0.004578  
2680.000000	0.004558  
2679.000000	0.004506  
2678.000000	0.004460  
2677.000000	0.004466  
2676.000000	0.004551  
2675.000000	0.004695  
2674.000000	0.004832  
2673.000000	0.004887  
2672.000000	0.004841  
2671.000000	0.004739  
2670.000000	0.004641  
2669.000000	0.004584  
2668.000000	0.004581  
2667.000000	0.004628  
2666.000000	0.004697  
2665.000000	0.004747  
2664.000000	0.004751  
2663.000000	0.004701  
2662.000000	0.004586  
2661.000000	0.004405  
2660.000000	0.004207  
2659.000000	0.004078  
2658.000000	0.004060  
2657.000000	0.004096  
2656.000000	0.004105  
2655.000000	0.004076  
2654.000000	0.004048  
2653.000000	0.004025  
2652.000000	0.003982  
2651.000000	0.003935  
2650.000000	0.003945  
2649.000000	0.004034  
2648.000000	0.004140  
2647.000000	0.004186  
2646.000000	0.004151  
2645.000000	0.004061  
2644.000000	0.003963  
2643.000000	0.003915  
2642.000000	0.003955  
2641.000000	0.004054  
2640.000000	0.004118  
2639.000000	0.004070  
2638.000000	0.003915  
2637.000000	0.003708  
2636.000000	0.003516  
2635.000000	0.003414  
2634.000000	0.003466  
2633.000000	0.003659  
2632.000000	0.003879  
2631.000000	0.004001  
2630.000000	0.003983  
2629.000000	0.003878  
2628.000000	0.003776  
2627.000000	0.003764  
2626.000000	0.003874  
2625.000000	0.004028  
2624.000000	0.004074  
2623.000000	0.003932  
2622.000000	0.003677  
2621.000000	0.003454  
2620.000000	0.003329  
2619.000000	0.003274  
2618.000000	0.003263  
2617.000000	0.003300  
2616.000000	0.003375  
2615.000000	0.003453  
2614.000000	0.003517  
2613.000000	0.003577  
2612.000000	0.003629  
2611.000000	0.003656  
2610.000000	0.003670  
2609.000000	0.003713  
2608.000000	0.003794  
2607.000000	0.003878  
2606.000000	0.003926  
2605.000000	0.003911  
2604.000000	0.003810  
2603.000000	0.003627  
2602.000000	0.003443  
2601.000000	0.003382  
2600.000000	0.003480  
2599.000000	0.003623  
2598.000000	0.003653  
2597.000000	0.003523  
2596.000000	0.003331  
2595.000000	0.003197  
2594.000000	0.003143  
2593.000000	0.003083  
2592.000000	0.002937  
2591.000000	0.002733  
2590.000000	0.002585  
2589.000000	0.002559  
2588.000000	0.002602  
2587.000000	0.002629  
2586.000000	0.002640  
2585.000000	0.002685  
2584.000000	0.002753  
2583.000000	0.002761  
2582.000000	0.002671  
2581.000000	0.002550  
2580.000000	0.002501  
2579.000000	0.002570  
2578.000000	0.002741  
2577.000000	0.002961  
2576.000000	0.003128  
2575.000000	0.003130  
2574.000000	0.002950  
2573.000000	0.002710  
2572.000000	0.002570  
2571.000000	0.002579  
2570.000000	0.002663  
2569.000000	0.002731  
2568.000000	0.002741  
2567.000000	0.002685  
2566.000000	0.002565  
2565.000000	0.002415  
2564.000000	0.002292  
2563.000000	0.002235  
2562.000000	0.002234  
2561.000000	0.002264  
2560.000000	0.002311  
2559.000000	0.002369  
2558.000000	0.002426  
2557.000000	0.002482  
2556.000000	0.002538  
2555.000000	0.002572  
2554.000000	0.002532  
2553.000000	0.002416  
2552.000000	0.002319  
2551.000000	0.002370  
2550.000000	0.002596  
2549.000000	0.002886  
2548.000000	0.003085  
2547.000000	0.003107  
2546.000000	0.002942  
2545.000000	0.002631  
2544.000000	0.002267  
2543.000000	0.001984  
2542.000000	0.001867  
2541.000000	0.001879  
2540.000000	0.001915  
2539.000000	0.001943  
2538.000000	0.002031  
2537.000000	0.002220  
2536.000000	0.002426  
2535.000000	0.002508  
2534.000000	0.002409  
2533.000000	0.002209  
2532.000000	0.002027  
2531.000000	0.001905  
2530.000000	0.001792  
2529.000000	0.001636  
2528.000000	0.001493  
2527.000000	0.001503  
2526.000000	0.001742  
2525.000000	0.002113  
2524.000000	0.002431  
2523.000000	0.002595  
2522.000000	0.002628  
2521.000000	0.002568  
2520.000000	0.002399  
2519.000000	0.002144  
2518.000000	0.001932  
2517.000000	0.001893  
2516.000000	0.002025  
2515.000000	0.002212  
2514.000000	0.002346  
2513.000000	0.002400  
2512.000000	0.002385  
2511.000000	0.002325  
2510.000000	0.002249  
2509.000000	0.002190  
2508.000000	0.002166  
2507.000000	0.002190  
2506.000000	0.002270  
2505.000000	0.002370  
2504.000000	0.002403  
2503.000000	0.002317  
2502.000000	0.002183  
2501.000000	0.002136  
2500.000000	0.002221  
2499.000000	0.002333  
2498.000000	0.002316  
2497.000000	0.002086  
2496.000000	0.001694  
2495.000000	0.001293  
2494.000000	0.001076  
2493.000000	0.001162  
2492.000000	0.001516  
2491.000000	0.001973  
2490.000000	0.002351  
2489.000000	0.002544  
2488.000000	0.002538  
2487.000000	0.002381  
2486.000000	0.002142  
2485.000000	0.001879  
2484.000000	0.001629  
2483.000000	0.001453  
2482.000000	0.001445  
2481.000000	0.001659  
2480.000000	0.002015  
2479.000000	0.002331  
2478.000000	0.002465  
2477.000000	0.002403  
2476.000000	0.002223  
2475.000000	0.002016  
2474.000000	0.001847  
2473.000000	0.001752  
2472.000000	0.001723  
2471.000000	0.001711  
2470.000000	0.001668  
2469.000000	0.001587  
2468.000000	0.001521  
2467.000000	0.001563  
2466.000000	0.001756  
2465.000000	0.002021  
2464.000000	0.002196  
2463.000000	0.002181  
2462.000000	0.002033  
2461.000000	0.001888  
2460.000000	0.001832  
2459.000000	0.001890  
2458.000000	0.002070  
2457.000000	0.002332  
2456.000000	0.002531  
2455.000000	0.002508  
2454.000000	0.002270  
2453.000000	0.001988  
2452.000000	0.001794  
2451.000000	0.001650  
2450.000000	0.001483  
2449.000000	0.001345  
2448.000000	0.001364  
2447.000000	0.001563  
2446.000000	0.001813  
2445.000000	0.001962  
2444.000000	0.001962  
2443.000000	0.001876  
2442.000000	0.001814  
2441.000000	0.001846  
2440.000000	0.001935  
2439.000000	0.001973  
2438.000000	0.001901  
2437.000000	0.001772  
2436.000000	0.001681  
2435.000000	0.001640  
2434.000000	0.001593  
2433.000000	0.001524  
2432.000000	0.001494  
2431.000000	0.001556  
2430.000000	0.001683  
2429.000000	0.001807  
2428.000000	0.001890  
2427.000000	0.001940  
2426.000000	0.001983  
2425.000000	0.002025  
2424.000000	0.002053  
2423.000000	0.002049  
2422.000000	0.002020  
2421.000000	0.002001  
2420.000000	0.002023  
2419.000000	0.002077  
2418.000000	0.002111  
2417.000000	0.002086  
2416.000000	0.002013  
2415.000000	0.001940  
2414.000000	0.001914  
2413.000000	0.001954  
2412.000000	0.002044  
2411.000000	0.002134  
2410.000000	0.002178  
2409.000000	0.002181  
2408.000000	0.002189  
2407.000000	0.002228  
2406.000000	0.002240  
2405.000000	0.002135  
2404.000000	0.001903  
2403.000000	0.001645  
2402.000000	0.001474  
2401.000000	0.001413  
2400.000000	0.001411  
2399.000000	0.001448  
2398.000000	0.001569  
2397.000000	0.001796  
2396.000000	0.002054  
2395.000000	0.002215  
2394.000000	0.002229  
2393.000000	0.002171  
2392.000000	0.002157  
2391.000000	0.002221  
2390.000000	0.002300  
2389.000000	0.002328  
2388.000000	0.002335  
2387.000000	0.002450  
2386.000000	0.002778  
2385.000000	0.003287  
2384.000000	0.003796  
2383.000000	0.004091  
2382.000000	0.004055  
2381.000000	0.003718  
2380.000000	0.003224  
2379.000000	0.002723  
2378.000000	0.002275  
2377.000000	0.001830  
2376.000000	0.001365  
2375.000000	0.001022  
2374.000000	0.001035  
2373.000000	0.001462  
2372.000000	0.002073  
2371.000000	0.002568  
2370.000000	0.002830  
2369.000000	0.002862  
2368.000000	0.002629  
2367.000000	0.002164  
2366.000000	0.001713  
2365.000000	0.001506  
2364.000000	0.001443  
2363.000000	0.001274  
2362.000000	0.001015  
2361.000000	0.000932  
2360.000000	0.001270  
2359.000000	0.001981  
2358.000000	0.002754  
2357.000000	0.003159  
2356.000000	0.002850  
2355.000000	0.001918  
2354.000000	0.000849  
2353.000000	0.000241  
2352.000000	0.000391  
2351.000000	0.001083  
2350.000000	0.001888  
2349.000000	0.002399  
2348.000000	0.002477  
2347.000000	0.002249  
2346.000000	0.002067  
2345.000000	0.002272  
2344.000000	0.002712  
2343.000000	0.002945  
2342.000000	0.002686  
2341.000000	0.002228  
2340.000000	0.002081  
2339.000000	0.002287  
2338.000000	0.002461  
2337.000000	0.002338  
2336.000000	0.002080  
2335.000000	0.001954  
2334.000000	0.002006  
2333.000000	0.002166  
2332.000000	0.002455  
2331.000000	0.002866  
2330.000000	0.003328  
2329.000000	0.003666  
2328.000000	0.003873  
2327.000000	0.003999  
2326.000000	0.004026  
2325.000000	0.003915  
2324.000000	0.003584  
2323.000000	0.003069  
2322.000000	0.002439  
2321.000000	0.001910  
2320.000000	0.001736  
2319.000000	0.002013  
2318.000000	0.002550  
2317.000000	0.002939  
2316.000000	0.002910  
2315.000000	0.002508  
2314.000000	0.002097  
2313.000000	0.002012  
2312.000000	0.002312  
2311.000000	0.002768  
2310.000000	0.003150  
2309.000000	0.003417  
2308.000000	0.003635  
2307.000000	0.003800  
2306.000000	0.003810  
2305.000000	0.003620  
2304.000000	0.003319  
2303.000000	0.003065  
2302.000000	0.002923  
2301.000000	0.002808  
2300.000000	0.002616  
2299.000000	0.002385  
2298.000000	0.002314  
2297.000000	0.002534  
2296.000000	0.002935  
2295.000000	0.003243  
2294.000000	0.003293  
2293.000000	0.003161  
2292.000000	0.003007  
2291.000000	0.002894  
2290.000000	0.002780  
2289.000000	0.002630  
2288.000000	0.002438  
2287.000000	0.002186  
2286.000000	0.001873  
2285.000000	0.001586  
2284.000000	0.001433  
2283.000000	0.001416  
2282.000000	0.001415  
2281.000000	0.001373  
2280.000000	0.001391  
2279.000000	0.001596  
2278.000000	0.001933  
2277.000000	0.002182  
2276.000000	0.002235  
2275.000000	0.002270  
2274.000000	0.002578  
2273.000000	0.003190  
2272.000000	0.003768  
2271.000000	0.003925  
2270.000000	0.003619  
2269.000000	0.003125  
2268.000000	0.002664  
2267.000000	0.002213  
2266.000000	0.001719  
2265.000000	0.001339  
2264.000000	0.001300  
2263.000000	0.001592  
2262.000000	0.001964  
2261.000000	0.002198  
2260.000000	0.002262  
2259.000000	0.002221  
2258.000000	0.002154  
2257.000000	0.002179  
2256.000000	0.002385  
2255.000000	0.002669  
2254.000000	0.002765  
2253.000000	0.002544  
2252.000000	0.002188  
2251.000000	0.001981  
2250.000000	0.001982  
2249.000000	0.002010  
2248.000000	0.001869  
2247.000000	0.001528  
2246.000000	0.001097  
2245.000000	0.000749  
2244.000000	0.000646  
2243.000000	0.000847  
2242.000000	0.001243  
2241.000000	0.001638  
2240.000000	0.001898  
2239.000000	0.002015  
2238.000000	0.002024  
2237.000000	0.001941  
2236.000000	0.001771  
2235.000000	0.001557  
2234.000000	0.001392  
2233.000000	0.001368  
2232.000000	0.001499  
2231.000000	0.001680  
2230.000000	0.001746  
2229.000000	0.001620  
2228.000000	0.001376  
2227.000000	0.001157  
2226.000000	0.001027  
2225.000000	0.000939  
2224.000000	0.000793  
2223.000000	0.000526  
2222.000000	0.000181  
2221.000000	-0.000059 
2220.000000	-0.000002 
2219.000000	0.000339  
2218.000000	0.000709  
2217.000000	0.000899  
2216.000000	0.001011  
2215.000000	0.001309  
2214.000000	0.001827  
2213.000000	0.002297  
2212.000000	0.002487  
2211.000000	0.002456  
2210.000000	0.002365  
2209.000000	0.002199  
2208.000000	0.001852  
2207.000000	0.001412  
2206.000000	0.001189  
2205.000000	0.001416  
2204.000000	0.002015  
2203.000000	0.002696  
2202.000000	0.003200  
2201.000000	0.003413  
2200.000000	0.003363  
2199.000000	0.003191  
2198.000000	0.003071  
2197.000000	0.003085  
2196.000000	0.003150  
2195.000000	0.003103  
2194.000000	0.002865  
2193.000000	0.002496  
2192.000000	0.002100  
2191.000000	0.001727  
2190.000000	0.001412  
2189.000000	0.001254  
2188.000000	0.001366  
2187.000000	0.001716  
2186.000000	0.002076  
2185.000000	0.002190  
2184.000000	0.002017  
2183.000000	0.001760  
2182.000000	0.001695  
2181.000000	0.001964  
2180.000000	0.002508  
2179.000000	0.003087  
2178.000000	0.003398  
2177.000000	0.003276  
2176.000000	0.002843  
2175.000000	0.002363  
2174.000000	0.001949  
2173.000000	0.001522  
2172.000000	0.001111  
2171.000000	0.000979  
2170.000000	0.001312  
2169.000000	0.001850  
2168.000000	0.002087  
2167.000000	0.001872  
2166.000000	0.001620  
2165.000000	0.001807  
2164.000000	0.002392  
2163.000000	0.002905  
2162.000000	0.003009  
2161.000000	0.002801  
2160.000000	0.002596  
2159.000000	0.002555  
2158.000000	0.002619  
2157.000000	0.002690  
2156.000000	0.002741  
2155.000000	0.002763  
2154.000000	0.002740  
2153.000000	0.002683  
2152.000000	0.002641  
2151.000000	0.002617  
2150.000000	0.002513  
2149.000000	0.002211  
2148.000000	0.001743  
2147.000000	0.001352  
2146.000000	0.001318  
2145.000000	0.001706  
2144.000000	0.002288  
2143.000000	0.002705  
2142.000000	0.002689  
2141.000000	0.002203  
2140.000000	0.001474  
2139.000000	0.000898  
2138.000000	0.000821  
2137.000000	0.001282  
2136.000000	0.001938  
2135.000000	0.002319  
2134.000000	0.002212  
2133.000000	0.001814  
2132.000000	0.001525  
2131.000000	0.001591  
2130.000000	0.001931  
2129.000000	0.002270  
2128.000000	0.002406  
2127.000000	0.002324  
2126.000000	0.002088  
2125.000000	0.001739  
2124.000000	0.001340  
2123.000000	0.001080  
2122.000000	0.001183  
2121.000000	0.001671  
2120.000000	0.002268  
2119.000000	0.002607  
2118.000000	0.002539  
2117.000000	0.002226  
2116.000000	0.001985  
2115.000000	0.002017  
2114.000000	0.002252  
2113.000000	0.002427  
2112.000000	0.002357  
2111.000000	0.002129  
2110.000000	0.002010  
2109.000000	0.002131  
2108.000000	0.002331  
2107.000000	0.002361  
2106.000000	0.002151  
2105.000000	0.001828  
2104.000000	0.001526  
2103.000000	0.001289  
2102.000000	0.001125  
2101.000000	0.001039  
2100.000000	0.000977  
2099.000000	0.000855  
2098.000000	0.000674  
2097.000000	0.000546  
2096.000000	0.000545  
2095.000000	0.000606  
2094.000000	0.000628  
2093.000000	0.000628  
2092.000000	0.000710  
2091.000000	0.000905  
2090.000000	0.001121  
2089.000000	0.001270  
2088.000000	0.001389  
2087.000000	0.001593  
2086.000000	0.001906  
2085.000000	0.002174  
2084.000000	0.002185  
2083.000000	0.001881  
2082.000000	0.001438  
2081.000000	0.001142  
2080.000000	0.001168  
2079.000000	0.001462  
2078.000000	0.001799  
2077.000000	0.001941  
2076.000000	0.001795  
2075.000000	0.001502  
2074.000000	0.001345  
2073.000000	0.001498  
2072.000000	0.001848  
2071.000000	0.002109  
2070.000000	0.002109  
2069.000000	0.001909  
2068.000000	0.001665  
2067.000000	0.001474  
2066.000000	0.001398  
2065.000000	0.001508  
2064.000000	0.001807  
2063.000000	0.002168  
2062.000000	0.002413  
2061.000000	0.002452  
2060.000000	0.002289  
2059.000000	0.001987  
2058.000000	0.001677  
2057.000000	0.001528  
2056.000000	0.001586  
2055.000000	0.001665  
2054.000000	0.001549  
2053.000000	0.001267  
2052.000000	0.001049  
2051.000000	0.001032  
2050.000000	0.001161  
2049.000000	0.001415  
2048.000000	0.001881  
2047.000000	0.002465  
2046.000000	0.002747  
2045.000000	0.002387  
2044.000000	0.001601  
2043.000000	0.000962  
2042.000000	0.000782  
2041.000000	0.000923  
2040.000000	0.001182  
2039.000000	0.001573  
2038.000000	0.002074  
2037.000000	0.002394  
2036.000000	0.002266  
2035.000000	0.001846  
2034.000000	0.001579  
2033.000000	0.001686  
2032.000000	0.001972  
2031.000000	0.002126  
2030.000000	0.001971  
2029.000000	0.001475  
2028.000000	0.000747  
2027.000000	0.000059  
2026.000000	-0.000303 
2025.000000	-0.000315 
2024.000000	-0.000180 
2023.000000	0.000008  
2022.000000	0.000424  
2021.000000	0.001177  
2020.000000	0.001989  
2019.000000	0.002390  
2018.000000	0.002176  
2017.000000	0.001554  
2016.000000	0.000862  
2015.000000	0.000315  
2014.000000	0.000052  
2013.000000	0.000194  
2012.000000	0.000656  
2011.000000	0.001027  
2010.000000	0.000859  
2009.000000	0.000128  
2008.000000	-0.000687 
2007.000000	-0.001055 
2006.000000	-0.000858 
2005.000000	-0.000365 
2004.000000	0.000161  
2003.000000	0.000692  
2002.000000	0.001320  
2001.000000	0.002014  
2000.000000	0.002555  
1999.000000	0.002677  
1998.000000	0.002295  
1997.000000	0.001627  
1996.000000	0.001064  
1995.000000	0.000867  
1994.000000	0.000988  
1993.000000	0.001176  
1992.000000	0.001247  
1991.000000	0.001208  
1990.000000	0.001159  
1989.000000	0.001178  
1988.000000	0.001326  
1987.000000	0.001626  
1986.000000	0.001973  
1985.000000	0.002188  
1984.000000	0.002230  
1983.000000	0.002252  
1982.000000	0.002358  
1981.000000	0.002418  
1980.000000	0.002247  
1979.000000	0.001901  
1978.000000	0.001591  
1977.000000	0.001339  
1976.000000	0.000978  
1975.000000	0.000497  
1974.000000	0.000119  
1973.000000	-0.000026 
1972.000000	-0.000059 
1971.000000	-0.000067 
1970.000000	0.000066  
1969.000000	0.000427  
1968.000000	0.000838  
1967.000000	0.001065  
1966.000000	0.001138  
1965.000000	0.001248  
1964.000000	0.001431  
1963.000000	0.001570  
1962.000000	0.001615  
1961.000000	0.001637  
1960.000000	0.001689  
1959.000000	0.001757  
1958.000000	0.001837  
1957.000000	0.001888  
1956.000000	0.001743  
1955.000000	0.001247  
1954.000000	0.000544  
1953.000000	0.000075  
1952.000000	0.000185  
1951.000000	0.000799  
1950.000000	0.001514  
1949.000000	0.001977  
1948.000000	0.002113  
1947.000000	0.002077  
1946.000000	0.002034  
1945.000000	0.002014  
1944.000000	0.001933  
1943.000000	0.001750  
1942.000000	0.001557  
1941.000000	0.001461  
1940.000000	0.001408  
1939.000000	0.001277  
1938.000000	0.001109  
1937.000000	0.001135  
1936.000000	0.001511  
1935.000000	0.002096  
1934.000000	0.002580  
1933.000000	0.002789  
1932.000000	0.002792  
1931.000000	0.002727  
1930.000000	0.002627  
1929.000000	0.002451  
1928.000000	0.002199  
1927.000000	0.001924  
1926.000000	0.001682  
1925.000000	0.001510  
1924.000000	0.001444  
1923.000000	0.001499  
1922.000000	0.001651  
1921.000000	0.001858  
1920.000000	0.002075  
1919.000000	0.002248  
1918.000000	0.002321  
1917.000000	0.002313  
1916.000000	0.002297  
1915.000000	0.002270  
1914.000000	0.002143  
1913.000000	0.001888  
1912.000000	0.001630  
1911.000000	0.001516  
1910.000000	0.001524  
1909.000000	0.001516  
1908.000000	0.001459  
1907.000000	0.001458  
1906.000000	0.001558  
1905.000000	0.001651  
1904.000000	0.001642  
1903.000000	0.001600  
1902.000000	0.001656  
1901.000000	0.001813  
1900.000000	0.001953  
1899.000000	0.001996  
1898.000000	0.001971  
1897.000000	0.001944  
1896.000000	0.001948  
1895.000000	0.001988  
1894.000000	0.002063  
1893.000000	0.002158  
1892.000000	0.002247  
1891.000000	0.002316  
1890.000000	0.002358  
1889.000000	0.002349  
1888.000000	0.002262  
1887.000000	0.002099  
1886.000000	0.001915  
1885.000000	0.001793  
1884.000000	0.001774  
1883.000000	0.001808  
1882.000000	0.001809  
1881.000000	0.001754  
1880.000000	0.001701  
1879.000000	0.001699  
1878.000000	0.001717  
1877.000000	0.001713  
1876.000000	0.001733  
1875.000000	0.001876  
1874.000000	0.002142  
1873.000000	0.002387  
1872.000000	0.002467  
1871.000000	0.002358  
1870.000000	0.002131  
1869.000000	0.001866  
1868.000000	0.001653  
1867.000000	0.001576  
1866.000000	0.001637  
1865.000000	0.001754  
1864.000000	0.001841  
1863.000000	0.001885  
1862.000000	0.001921  
1861.000000	0.001947  
1860.000000	0.001935  
1859.000000	0.001902  
1858.000000	0.001912  
1857.000000	0.001992  
1856.000000	0.002078  
1855.000000	0.002074  
1854.000000	0.001952  
1853.000000	0.001792  
1852.000000	0.001726  
1851.000000	0.001810  
1850.000000	0.001956  
1849.000000	0.001994  
1848.000000	0.001856  
1847.000000	0.001665  
1846.000000	0.001616  
1845.000000	0.001775  
1844.000000	0.001988  
1843.000000	0.002070  
1842.000000	0.002004  
1841.000000	0.001877  
1840.000000	0.001770  
1839.000000	0.001741  
1838.000000	0.001806  
1837.000000	0.001914  
1836.000000	0.001983  
1835.000000	0.001996  
1834.000000	0.001993  
1833.000000	0.001968  
1832.000000	0.001854  
1831.000000	0.001646  
1830.000000	0.001497  
1829.000000	0.001558  
1828.000000	0.001767  
1827.000000	0.001957  
1826.000000	0.002040  
1825.000000	0.002040  
1824.000000	0.002038  
1823.000000	0.002099  
1822.000000	0.002210  
1821.000000	0.002271  
1820.000000	0.002170  
1819.000000	0.001919  
1818.000000	0.001691  
1817.000000	0.001639  
1816.000000	0.001730  
1815.000000	0.001811  
1814.000000	0.001796  
1813.000000	0.001717  
1812.000000	0.001657  
1811.000000	0.001674  
1810.000000	0.001786  
1809.000000	0.001955  
1808.000000	0.002109  
1807.000000	0.002187  
1806.000000	0.002179  
1805.000000	0.002129  
1804.000000	0.002091  
1803.000000	0.002100  
1802.000000	0.002152  
1801.000000	0.002218  
1800.000000	0.002277  
1799.000000	0.002327  
1798.000000	0.002358  
1797.000000	0.002356  
1796.000000	0.002330  
1795.000000	0.002295  
1794.000000	0.002245  
1793.000000	0.002151  
1792.000000	0.002014  
1791.000000	0.001903  
1790.000000	0.001869  
1789.000000	0.001892  
1788.000000	0.001928  
1787.000000	0.001971  
1786.000000	0.002034  
1785.000000	0.002095  
1784.000000	0.002096  
1783.000000	0.002017  
1782.000000	0.001917  
1781.000000	0.001892  
1780.000000	0.001980  
1779.000000	0.002129  
1778.000000	0.002259  
1777.000000	0.002328  
1776.000000	0.002336  
1775.000000	0.002292  
1774.000000	0.002209  
1773.000000	0.002110  
1772.000000	0.002013  
1771.000000	0.001933  
1770.000000	0.001887  
1769.000000	0.001887  
1768.000000	0.001914  
1767.000000	0.001938  
1766.000000	0.001957  
1765.000000	0.001998  
1764.000000	0.002081  
1763.000000	0.002204  
1762.000000	0.002347  
1761.000000	0.002484  
1760.000000	0.002587  
1759.000000	0.002626  
1758.000000	0.002603  
1757.000000	0.002565  
1756.000000	0.002565  
1755.000000	0.002608  
1754.000000	0.002682  
1753.000000	0.002807  
1752.000000	0.003021  
1751.000000	0.003300  
1750.000000	0.003587  
1749.000000	0.003899  
1748.000000	0.004300  
1747.000000	0.004815  
1746.000000	0.005402  
1745.000000	0.005985  
1744.000000	0.006461  
1743.000000	0.006746  
1742.000000	0.006818  
1741.000000	0.006668  
1740.000000	0.006274  
1739.000000	0.005722  
1738.000000	0.005186  
1737.000000	0.004725  
1736.000000	0.004261  
1735.000000	0.003713  
1734.000000	0.003201  
1733.000000	0.002911  
1732.000000	0.002805  
1731.000000	0.002760  
1730.000000	0.002749  
1729.000000	0.002788  
1728.000000	0.002853  
1727.000000	0.002892  
1726.000000	0.002874  
1725.000000	0.002804  
1724.000000	0.002701  
1723.000000	0.002593  
1722.000000	0.002520  
1721.000000	0.002497  
1720.000000	0.002495  
1719.000000	0.002471  
1718.000000	0.002396  
1717.000000	0.002280  
1716.000000	0.002211  
1715.000000	0.002267  
1714.000000	0.002409  
1713.000000	0.002530  
1712.000000	0.002549  
1711.000000	0.002472  
1710.000000	0.002367  
1709.000000	0.002298  
1708.000000	0.002279  
1707.000000	0.002310  
1706.000000	0.002401  
1705.000000	0.002544  
1704.000000	0.002730  
1703.000000	0.002942  
1702.000000	0.003119  
1701.000000	0.003098  
1700.000000	0.002840  
1699.000000	0.002607  
1698.000000	0.002558  
1697.000000	0.002601  
1696.000000	0.002621  
1695.000000	0.002613  
1694.000000	0.002599  
1693.000000	0.002568  
1692.000000	0.002514  
1691.000000	0.002455  
1690.000000	0.002427  
1689.000000	0.002441  
1688.000000	0.002474  
1687.000000	0.002491  
1686.000000	0.002471  
1685.000000	0.002430  
1684.000000	0.002428  
1683.000000	0.002496  
1682.000000	0.002589  
1681.000000	0.002653  
1680.000000	0.002666  
1679.000000	0.002634  
1678.000000	0.002554  
1677.000000	0.002418  
1676.000000	0.002257  
1675.000000	0.002183  
1674.000000	0.002264  
1673.000000	0.002435  
1672.000000	0.002598  
1671.000000	0.002705  
1670.000000	0.002756  
1669.000000	0.002776  
1668.000000	0.002777  
1667.000000	0.002752  
1666.000000	0.002717  
1665.000000	0.002690  
1664.000000	0.002672  
1663.000000	0.002664  
1662.000000	0.002678  
1661.000000	0.002720  
1660.000000	0.002776  
1659.000000	0.002818  
1658.000000	0.002819  
1657.000000	0.002796  
1656.000000	0.002768  
1655.000000	0.002762  
1654.000000	0.002768  
1653.000000	0.002789  
1652.000000	0.002827  
1651.000000	0.002832  
1650.000000	0.002842  
1649.000000	0.002901  
1648.000000	0.002977  
1647.000000	0.002952  
1646.000000	0.002810  
1645.000000	0.002645  
1644.000000	0.002510  
1643.000000	0.002422  
1642.000000	0.002415  
1641.000000	0.002465  
1640.000000	0.002510  
1639.000000	0.002517  
1638.000000	0.002521  
1637.000000	0.002567  
1636.000000	0.002619  
1635.000000	0.002601  
1634.000000	0.002546  
1633.000000	0.002523  
1632.000000	0.002537  
1631.000000	0.002554  
1630.000000	0.002548  
1629.000000	0.002528  
1628.000000	0.002527  
1627.000000	0.002571  
1626.000000	0.002676  
1625.000000	0.002834  
1624.000000	0.002995  
1623.000000	0.003088  
1622.000000	0.003123  
1621.000000	0.003176  
1620.000000	0.003271  
1619.000000	0.003372  
1618.000000	0.003446  
1617.000000	0.003521  
1616.000000	0.003639  
1615.000000	0.003763  
1614.000000	0.003853  
1613.000000	0.003930  
1612.000000	0.004025  
1611.000000	0.004148  
1610.000000	0.004285  
1609.000000	0.004398  
1608.000000	0.004435  
1607.000000	0.004365  
1606.000000	0.004230  
1605.000000	0.004115  
1604.000000	0.004053  
1603.000000	0.004012  
1602.000000	0.003960  
1601.000000	0.003895  
1600.000000	0.003804  
1599.000000	0.003660  
1598.000000	0.003483  
1597.000000	0.003354  
1596.000000	0.003329  
1595.000000	0.003379  
1594.000000	0.003432  
1593.000000	0.003463  
1592.000000	0.003498  
1591.000000	0.003553  
1590.000000	0.003608  
1589.000000	0.003628  
1588.000000	0.003603  
1587.000000	0.003540  
1586.000000	0.003464  
1585.000000	0.003402  
1584.000000	0.003365  
1583.000000	0.003353  
1582.000000	0.003364  
1581.000000	0.003399  
1580.000000	0.003460  
1579.000000	0.003526  
1578.000000	0.003539  
1577.000000	0.003420  
1576.000000	0.003194  
1575.000000	0.003038  
1574.000000	0.003068  
1573.000000	0.003239  
1572.000000	0.003417  
1571.000000	0.003467  
1570.000000	0.003368  
1569.000000	0.003259  
1568.000000	0.003239  
1567.000000	0.003250  
1566.000000	0.003212  
1565.000000	0.003125  
1564.000000	0.003012  
1563.000000	0.002909  
1562.000000	0.002835  
1561.000000	0.002811  
1560.000000	0.002860  
1559.000000	0.002882  
1558.000000	0.002859  
1557.000000	0.002967  
1556.000000	0.003189  
1555.000000	0.003397  
1554.000000	0.003564  
1553.000000	0.003613  
1552.000000	0.003528  
1551.000000	0.003327  
1550.000000	0.003138  
1549.000000	0.003077  
1548.000000	0.003134  
1547.000000	0.003222  
1546.000000	0.003299  
1545.000000	0.003356  
1544.000000	0.003372  
1543.000000	0.003356  
1542.000000	0.003388  
1541.000000	0.003473  
1540.000000	0.003493  
1539.000000	0.003468  
1538.000000	0.003532  
1537.000000	0.003690  
1536.000000	0.003850  
1535.000000	0.003935  
1534.000000	0.003902  
1533.000000	0.003802  
1532.000000	0.003715  
1531.000000	0.003655  
1530.000000	0.003591  
1529.000000	0.003520  
1528.000000	0.003476  
1527.000000	0.003522  
1526.000000	0.003708  
1525.000000	0.003981  
1524.000000	0.004214  
1523.000000	0.004341  
1522.000000	0.004416  
1521.000000	0.004503  
1520.000000	0.004561  
1519.000000	0.004533  
1518.000000	0.004470  
1517.000000	0.004483  
1516.000000	0.004621  
1515.000000	0.004842  
1514.000000	0.005100  
1513.000000	0.005358  
1512.000000	0.005544  
1511.000000	0.005626  
1510.000000	0.005678  
1509.000000	0.005834  
1508.000000	0.006166  
1507.000000	0.006623  
1506.000000	0.007116  
1505.000000	0.007506  
1504.000000	0.007665  
1503.000000	0.007640  
1502.000000	0.007576  
1501.000000	0.007536  
1500.000000	0.007508  
1499.000000	0.007504  
1498.000000	0.007706  
1497.000000	0.008205  
1496.000000	0.008723  
1495.000000	0.009000  
1494.000000	0.009147  
1493.000000	0.009317  
1492.000000	0.009454  
1491.000000	0.009474  
1490.000000	0.009533  
1489.000000	0.009831  
1488.000000	0.010275  
1487.000000	0.010691  
1486.000000	0.011090  
1485.000000	0.011549  
1484.000000	0.012071  
1483.000000	0.012663  
1482.000000	0.013423  
1481.000000	0.014385  
1480.000000	0.015419  
1479.000000	0.016486  
1478.000000	0.017792  
1477.000000	0.019518  
1476.000000	0.021571  
1475.000000	0.023980  
1474.000000	0.027470  
1473.000000	0.032912  
1472.000000	0.039819  
1471.000000	0.046784  
1470.000000	0.053251  
1469.000000	0.059244  
1468.000000	0.064581  
1467.000000	0.069094  
1466.000000	0.072925  
1465.000000	0.076197  
1464.000000	0.078691  
1463.000000	0.080368  
1462.000000	0.081587  
1461.000000	0.082648  
1460.000000	0.083639  
1459.000000	0.084630  
1458.000000	0.085622  
1457.000000	0.085903  
1456.000000	0.084748  
1455.000000	0.082641  
1454.000000	0.080238  
1453.000000	0.077608  
1452.000000	0.074773  
1451.000000	0.071969  
1450.000000	0.069371  
1449.000000	0.066769  
1448.000000	0.063910  
1447.000000	0.060901  
1446.000000	0.057916  
1445.000000	0.054839  
1444.000000	0.051491  
1443.000000	0.047918  
1442.000000	0.044349  
1441.000000	0.041025  
1440.000000	0.038062  
1439.000000	0.035361  
1438.000000	0.032603  
1437.000000	0.029609  
1436.000000	0.026802  
1435.000000	0.024647  
1434.000000	0.022925  
1433.000000	0.021201  
1432.000000	0.019357  
1431.000000	0.017554  
1430.000000	0.015969  
1429.000000	0.014667  
1428.000000	0.013688  
1427.000000	0.013000  
1426.000000	0.012442  
1425.000000	0.011868  
1424.000000	0.011319  
1423.000000	0.010913  
1422.000000	0.010614  
1421.000000	0.010268  
1420.000000	0.009816  
1419.000000	0.009362  
1418.000000	0.009033  
1417.000000	0.008841  
1416.000000	0.008754  
1415.000000	0.008733  
1414.000000	0.008698  
1413.000000	0.008581  
1412.000000	0.008394  
1411.000000	0.008191  
1410.000000	0.007999  
1409.000000	0.007840  
1408.000000	0.007759  
1407.000000	0.007772  
1406.000000	0.007814  
1405.000000	0.007823  
1404.000000	0.007837  
1403.000000	0.007900  
1402.000000	0.007956  
1401.000000	0.007943  
1400.000000	0.007913  
1399.000000	0.007959  
1398.000000	0.008083  
1397.000000	0.008240  
1396.000000	0.008468  
1395.000000	0.008817  
1394.000000	0.009244  
1393.000000	0.009703  
1392.000000	0.010238  
1391.000000	0.010933  
1390.000000	0.011865  
1389.000000	0.013188  
1388.000000	0.015149  
1387.000000	0.017782  
1386.000000	0.020741  
1385.000000	0.023713  
1384.000000	0.026761  
1383.000000	0.030144  
1382.000000	0.034037  
1381.000000	0.038390  
1380.000000	0.042824  
1379.000000	0.046569  
1378.000000	0.048772  
1377.000000	0.049004  
1376.000000	0.047317  
1375.000000	0.044019  
1374.000000	0.039784  
1373.000000	0.035584  
1372.000000	0.032100  
1371.000000	0.029485  
1370.000000	0.027703  
1369.000000	0.026717  
1368.000000	0.026318  
1367.000000	0.026041  
1366.000000	0.025391  
1365.000000	0.024098  
1364.000000	0.022199  
1363.000000	0.020035  
1362.000000	0.018089  
1361.000000	0.016649  
1360.000000	0.015675  
1359.000000	0.014998  
1358.000000	0.014509  
1357.000000	0.014179  
1356.000000	0.014000  
1355.000000	0.013931  
1354.000000	0.013895  
1353.000000	0.013820  
1352.000000	0.013693  
1351.000000	0.013549  
1350.000000	0.013419  
1349.000000	0.013314  
1348.000000	0.013209  
1347.000000	0.013069  
1346.000000	0.012891  
1345.000000	0.012731  
1344.000000	0.012653  
1343.000000	0.012648  
1342.000000	0.012639  
1341.000000	0.012560  
1340.000000	0.012411  
1339.000000	0.012215  
1338.000000	0.011978  
1337.000000	0.011705  
1336.000000	0.011424  
1335.000000	0.011165  
1334.000000	0.010923  
1333.000000	0.010678  
1332.000000	0.010434  
1331.000000	0.010218  
1330.000000	0.010028  
1329.000000	0.009852  
1328.000000	0.009696  
1327.000000	0.009571  
1326.000000	0.009466  
1325.000000	0.009363  
1324.000000	0.009273  
1323.000000	0.009221  
1322.000000	0.009211  
1321.000000	0.009222  
1320.000000	0.009232  
1319.000000	0.009235  
1318.000000	0.009243  
1317.000000	0.009272  
1316.000000	0.009336  
1315.000000	0.009440  
1314.000000	0.009574  
1313.000000	0.009722  
1312.000000	0.009872  
1311.000000	0.010012  
1310.000000	0.010131  
1309.000000	0.010236  
1308.000000	0.010341  
1307.000000	0.010444  
1306.000000	0.010518  
1305.000000	0.010538  
1304.000000	0.010503  
1303.000000	0.010429  
1302.000000	0.010342  
1301.000000	0.010279  
1300.000000	0.010263  
1299.000000	0.010277  
1298.000000	0.010269  
1297.000000	0.010202  
1296.000000	0.010085  
1295.000000	0.009937  
1294.000000	0.009752  
1293.000000	0.009520  
1292.000000	0.009272  
1291.000000	0.009071  
1290.000000	0.008953  
1289.000000	0.008906  
1288.000000	0.008892  
1287.000000	0.008887  
1286.000000	0.008893  
1285.000000	0.008913  
1284.000000	0.008933  
1283.000000	0.008919  
1282.000000	0.008850  
1281.000000	0.008753  
1280.000000	0.008681  
1279.000000	0.008658  
1278.000000	0.008671  
1277.000000	0.008698  
1276.000000	0.008733  
1275.000000	0.008766  
1274.000000	0.008781  
1273.000000	0.008781  
1272.000000	0.008787  
1271.000000	0.008800  
1270.000000	0.008793  
1269.000000	0.008756  
1268.000000	0.008726  
1267.000000	0.008722  
1266.000000	0.008705  
1265.000000	0.008613  
1264.000000	0.008445  
1263.000000	0.008277  
1262.000000	0.008190  
1261.000000	0.008204  
1260.000000	0.008278  
1259.000000	0.008350  
1258.000000	0.008375  
1257.000000	0.008340  
1256.000000	0.008252  
1255.000000	0.008130  
1254.000000	0.008023  
1253.000000	0.008000  
1252.000000	0.008085  
1251.000000	0.008201  
1250.000000	0.008226  
1249.000000	0.008121  
1248.000000	0.007976  
1247.000000	0.007902  
1246.000000	0.007915  
1245.000000	0.007954  
1244.000000	0.007964  
1243.000000	0.007930  
1242.000000	0.007863  
1241.000000	0.007788  
1240.000000	0.007744  
1239.000000	0.007742  
1238.000000	0.007735  
1237.000000	0.007674  
1236.000000	0.007575  
1235.000000	0.007502  
1234.000000	0.007471  
1233.000000	0.007434  
1232.000000	0.007343  
1231.000000	0.007208  
1230.000000	0.007070  
1229.000000	0.006948  
1228.000000	0.006855  
1227.000000	0.006810  
1226.000000	0.006816  
1225.000000	0.006834  
1224.000000	0.006822  
1223.000000	0.006788  
1222.000000	0.006769  
1221.000000	0.006772  
1220.000000	0.006764  
1219.000000	0.006725  
1218.000000	0.006695  
1217.000000	0.006731  
1216.000000	0.006837  
1215.000000	0.006944  
1214.000000	0.006962  
1213.000000	0.006866  
1212.000000	0.006720  
1211.000000	0.006636  
1210.000000	0.006672  
1209.000000	0.006779  
1208.000000	0.006844  
1207.000000	0.006812  
1206.000000	0.006740  
1205.000000	0.006715  
1204.000000	0.006750  
1203.000000	0.006777  
1202.000000	0.006749  
1201.000000	0.006700  
1200.000000	0.006685  
1199.000000	0.006715  
1198.000000	0.006770  
1197.000000	0.006843  
1196.000000	0.006934  
1195.000000	0.007035  
1194.000000	0.007144  
1193.000000	0.007278  
1192.000000	0.007424  
1191.000000	0.007516  
1190.000000	0.007505  
1189.000000	0.007446  
1188.000000	0.007445  
1187.000000	0.007538  
1186.000000	0.007664  
1185.000000	0.007764  
1184.000000	0.007846  
1183.000000	0.007938  
1182.000000	0.008041  
1181.000000	0.008149  
1180.000000	0.008266  
1179.000000	0.008393  
1178.000000	0.008517  
1177.000000	0.008641  
1176.000000	0.008784  
1175.000000	0.008947  
1174.000000	0.009105  
1173.000000	0.009247  
1172.000000	0.009397  
1171.000000	0.009560  
1170.000000	0.009696  
1169.000000	0.009758  
1168.000000	0.009753  
1167.000000	0.009720  
1166.000000	0.009682  
1165.000000	0.009625  
1164.000000	0.009519  
1163.000000	0.009345  
1162.000000	0.009138  
1161.000000	0.008988  
1160.000000	0.008975  
1159.000000	0.009074  
1158.000000	0.009178  
1157.000000	0.009210  
1156.000000	0.009183  
1155.000000	0.009126  
1154.000000	0.009018  
1153.000000	0.008825  
1152.000000	0.008577  
1151.000000	0.008351  
1150.000000	0.008211  
1149.000000	0.008171  
1148.000000	0.008209  
1147.000000	0.008271  
1146.000000	0.008292  
1145.000000	0.008234  
1144.000000	0.008102  
1143.000000	0.007921  
1142.000000	0.007719  
1141.000000	0.007527  
1140.000000	0.007372  
1139.000000	0.007255  
1138.000000	0.007173  
1137.000000	0.007153  
1136.000000	0.007214  
1135.000000	0.007288  
1134.000000	0.007249  
1133.000000	0.007051  
1132.000000	0.006796  
1131.000000	0.006623  
1130.000000	0.006567  
1129.000000	0.006581  
1128.000000	0.006634  
1127.000000	0.006709  
1126.000000	0.006764  
1125.000000	0.006758  
1124.000000	0.006714  
1123.000000	0.006692  
1122.000000	0.006704  
1121.000000	0.006719  
1120.000000	0.006728  
1119.000000	0.006755  
1118.000000	0.006802  
1117.000000	0.006846  
1116.000000	0.006886  
1115.000000	0.006932  
1114.000000	0.006962  
1113.000000	0.006935  
1112.000000	0.006858  
1111.000000	0.006765  
1110.000000	0.006657  
1109.000000	0.006506  
1108.000000	0.006352  
1107.000000	0.006297  
1106.000000	0.006385  
1105.000000	0.006522  
1104.000000	0.006568  
1103.000000	0.006488  
1102.000000	0.006378  
1101.000000	0.006360  
1100.000000	0.006471  
1099.000000	0.006645  
1098.000000	0.006777  
1097.000000	0.006828  
1096.000000	0.006851  
1095.000000	0.006911  
1094.000000	0.007000  
1093.000000	0.007059  
1092.000000	0.007070  
1091.000000	0.007059  
1090.000000	0.007020  
1089.000000	0.006893  
1088.000000	0.006661  
1087.000000	0.006423  
1086.000000	0.006316  
1085.000000	0.006388  
1084.000000	0.006557  
1083.000000	0.006694  
1082.000000	0.006714  
1081.000000	0.006626  
1080.000000	0.006527  
1079.000000	0.006541  
1078.000000	0.006713  
1077.000000	0.006971  
1076.000000	0.007209  
1075.000000	0.007382  
1074.000000	0.007519  
1073.000000	0.007639  
1072.000000	0.007708  
1071.000000	0.007685  
1070.000000	0.007595  
1069.000000	0.007512  
1068.000000	0.007478  
1067.000000	0.007464  
1066.000000	0.007414  
1065.000000	0.007324  
1064.000000	0.007251  
1063.000000	0.007237  
1062.000000	0.007252  
1061.000000	0.007229  
1060.000000	0.007153  
1059.000000	0.007083  
1058.000000	0.007094  
1057.000000	0.007212  
1056.000000	0.007410  
1055.000000	0.007633  
1054.000000	0.007788  
1053.000000	0.007749  
1052.000000	0.007456  
1051.000000	0.007023  
1050.000000	0.006710  
1049.000000	0.006694  
1048.000000	0.006903  
1047.000000	0.007099  
1046.000000	0.007120  
1045.000000	0.006993  
1044.000000	0.006864  
1043.000000	0.006866  
1042.000000	0.007033  
1041.000000	0.007301  
1040.000000	0.007543  
1039.000000	0.007645  
1038.000000	0.007591  
1037.000000	0.007475  
1036.000000	0.007426  
1035.000000	0.007501  
1034.000000	0.007666  
1033.000000	0.007849  
1032.000000	0.007992  
1031.000000	0.008062  
1030.000000	0.008057  
1029.000000	0.008003  
1028.000000	0.007938  
1027.000000	0.007883  
1026.000000	0.007837  
1025.000000	0.007795  
1024.000000	0.007756  
1023.000000	0.007714  
1022.000000	0.007659  
1021.000000	0.007600  
1020.000000	0.007546  
1019.000000	0.007495  
1018.000000	0.007455  
1017.000000	0.007467  
1016.000000	0.007577  
1015.000000	0.007767  
1014.000000	0.007939  
1013.000000	0.007997  
1012.000000	0.007921  
1011.000000	0.007774  
1010.000000	0.007648  
1009.000000	0.007606  
1008.000000	0.007654  
1007.000000	0.007743  
1006.000000	0.007810  
1005.000000	0.007834  
1004.000000	0.007835  
1003.000000	0.007840  
1002.000000	0.007848  
1001.000000	0.007831  
1000.000000	0.007751  
999.000000	 0.007576  
998.000000	 0.007325  
997.000000	 0.007100  
996.000000	 0.007032  
995.000000	 0.007148  
994.000000	 0.007334  
993.000000	 0.007432  
992.000000	 0.007389  
991.000000	 0.007286  
990.000000	 0.007244  
989.000000	 0.007332  
988.000000	 0.007522  
987.000000	 0.007711  
986.000000	 0.007801  
985.000000	 0.007780  
984.000000	 0.007731  
983.000000	 0.007740  
982.000000	 0.007815  
981.000000	 0.007908  
980.000000	 0.007996  
979.000000	 0.008101  
978.000000	 0.008245  
977.000000	 0.008410  
976.000000	 0.008554  
975.000000	 0.008653  
974.000000	 0.008709  
973.000000	 0.008745  
972.000000	 0.008797  
971.000000	 0.008893  
970.000000	 0.009037  
969.000000	 0.009201  
968.000000	 0.009336  
967.000000	 0.009398  
966.000000	 0.009381  
965.000000	 0.009305  
964.000000	 0.009196  
963.000000	 0.009075  
962.000000	 0.008968  
961.000000	 0.008911  
960.000000	 0.008911  
959.000000	 0.008916  
958.000000	 0.008874  
957.000000	 0.008804  
956.000000	 0.008775  
955.000000	 0.008809  
954.000000	 0.008847  
953.000000	 0.008839  
952.000000	 0.008805  
951.000000	 0.008793  
950.000000	 0.008805  
949.000000	 0.008796  
948.000000	 0.008752  
947.000000	 0.008717  
946.000000	 0.008753  
945.000000	 0.008894  
944.000000	 0.009104  
943.000000	 0.009290  
942.000000	 0.009357  
941.000000	 0.009282  
940.000000	 0.009119  
939.000000	 0.008933  
938.000000	 0.008754  
937.000000	 0.008592  
936.000000	 0.008464  
935.000000	 0.008375  
934.000000	 0.008313  
933.000000	 0.008293  
932.000000	 0.008347  
931.000000	 0.008456  
930.000000	 0.008509  
929.000000	 0.008419  
928.000000	 0.008239  
927.000000	 0.008123  
926.000000	 0.008152  
925.000000	 0.008265  
924.000000	 0.008359  
923.000000	 0.008400  
922.000000	 0.008411  
921.000000	 0.008399  
920.000000	 0.008337  
919.000000	 0.008220  
918.000000	 0.008091  
917.000000	 0.008031  
916.000000	 0.008095  
915.000000	 0.008250  
914.000000	 0.008391  
913.000000	 0.008413  
912.000000	 0.008306  
911.000000	 0.008149  
910.000000	 0.008052  
909.000000	 0.008086  
908.000000	 0.008237  
907.000000	 0.008401  
906.000000	 0.008444  
905.000000	 0.008330  
904.000000	 0.008174  
903.000000	 0.008134  
902.000000	 0.008250  
901.000000	 0.008415  
900.000000	 0.008521  
899.000000	 0.008576  
898.000000	 0.008648  
897.000000	 0.008757  
896.000000	 0.008848  
895.000000	 0.008877  
894.000000	 0.008860  
893.000000	 0.008850  
892.000000	 0.008889  
891.000000	 0.008984  
890.000000	 0.009119  
889.000000	 0.009260  
888.000000	 0.009356  
887.000000	 0.009364  
886.000000	 0.009285  
885.000000	 0.009159  
884.000000	 0.009030  
883.000000	 0.008913  
882.000000	 0.008811  
881.000000	 0.008748  
880.000000	 0.008749  
879.000000	 0.008803  
878.000000	 0.008849  
877.000000	 0.008839  
876.000000	 0.008782  
875.000000	 0.008717  
874.000000	 0.008648  
873.000000	 0.008529  
872.000000	 0.008316  
871.000000	 0.008063  
870.000000	 0.007923  
869.000000	 0.008038  
868.000000	 0.008373  
867.000000	 0.008702  
866.000000	 0.008800  
865.000000	 0.008653  
864.000000	 0.008430  
863.000000	 0.008276  
862.000000	 0.008199  
861.000000	 0.008156  
860.000000	 0.008171  
859.000000	 0.008277  
858.000000	 0.008416  
857.000000	 0.008478  
856.000000	 0.008452  
855.000000	 0.008457  
854.000000	 0.008607  
853.000000	 0.008893  
852.000000	 0.009218  
851.000000	 0.009502  
850.000000	 0.009705  
849.000000	 0.009797  
848.000000	 0.009744  
847.000000	 0.009569  
846.000000	 0.009365  
845.000000	 0.009229  
844.000000	 0.009172  
843.000000	 0.009113  
842.000000	 0.008984  
841.000000	 0.008811  
840.000000	 0.008679  
839.000000	 0.008656  
838.000000	 0.008735  
837.000000	 0.008845  
836.000000	 0.008858  
835.000000	 0.008656  
834.000000	 0.008247  
833.000000	 0.007825  
832.000000	 0.007626  
831.000000	 0.007699  
830.000000	 0.007877  
829.000000	 0.008000  
828.000000	 0.008094  
827.000000	 0.008280  
826.000000	 0.008560  
825.000000	 0.008825  
824.000000	 0.009001  
823.000000	 0.009092  
822.000000	 0.009128  
821.000000	 0.009165  
820.000000	 0.009308  
819.000000	 0.009630  
818.000000	 0.010088  
817.000000	 0.010562  
816.000000	 0.010942  
815.000000	 0.011149  
814.000000	 0.011125  
813.000000	 0.010888  
812.000000	 0.010587  
811.000000	 0.010421  
810.000000	 0.010495  
809.000000	 0.010777  
808.000000	 0.011170  
807.000000	 0.011574  
806.000000	 0.011879  
805.000000	 0.011985  
804.000000	 0.011860  
803.000000	 0.011542  
802.000000	 0.011095  
801.000000	 0.010575  
800.000000	 0.010041  
799.000000	 0.009545  
798.000000	 0.009122  
797.000000	 0.008803  
796.000000	 0.008617  
795.000000	 0.008550  
794.000000	 0.008529  
793.000000	 0.008496  
792.000000	 0.008499  
791.000000	 0.008618  
790.000000	 0.008817  
789.000000	 0.008937  
788.000000	 0.008874  
787.000000	 0.008721  
786.000000	 0.008692  
785.000000	 0.008911  
784.000000	 0.009319  
783.000000	 0.009759  
782.000000	 0.010136  
781.000000	 0.010478  
780.000000	 0.010837  
779.000000	 0.011179  
778.000000	 0.011414  
777.000000	 0.011534  
776.000000	 0.011660  
775.000000	 0.011911  
774.000000	 0.012278  
773.000000	 0.012679  
772.000000	 0.013075  
771.000000	 0.013472  
770.000000	 0.013836  
769.000000	 0.014099  
768.000000	 0.014235  
767.000000	 0.014253  
766.000000	 0.014101  
765.000000	 0.013710  
764.000000	 0.013145  
763.000000	 0.012643  
762.000000	 0.012409  
761.000000	 0.012444  
760.000000	 0.012591  
759.000000	 0.012721  
758.000000	 0.012822  
757.000000	 0.012942  
756.000000	 0.013110  
755.000000	 0.013302  
754.000000	 0.013459  
753.000000	 0.013535  
752.000000	 0.013534  
751.000000	 0.013501  
750.000000	 0.013483  
749.000000	 0.013533  
748.000000	 0.013739  
747.000000	 0.014225  
746.000000	 0.015088  
745.000000	 0.016339  
744.000000	 0.017859  
743.000000	 0.019391  
742.000000	 0.020582  
741.000000	 0.021161  
740.000000	 0.021104  
739.000000	 0.020633  
738.000000	 0.020021  
737.000000	 0.019430  
736.000000	 0.018929  
735.000000	 0.018559  
734.000000	 0.018354  
733.000000	 0.018308  
732.000000	 0.018384  
731.000000	 0.018531  
730.000000	 0.018724  
729.000000	 0.019014  
728.000000	 0.019540  
727.000000	 0.020422  
726.000000	 0.021621  
725.000000	 0.022924  
724.000000	 0.024090  
723.000000	 0.024952  
722.000000	 0.025355  
721.000000	 0.025060  
720.000000	 0.023886  
719.000000	 0.021981  
718.000000	 0.019817  
717.000000	 0.017870  
716.000000	 0.016380  
715.000000	 0.015315  
714.000000	 0.014462  
713.000000	 0.013612  
712.000000	 0.012721  
711.000000	 0.011922  
710.000000	 0.011372  
709.000000	 0.011118  
708.000000	 0.011076  
707.000000	 0.011121  
706.000000	 0.011218  
705.000000	 0.011453  
704.000000	 0.011890  
703.000000	 0.012413  
702.000000	 0.012776  
701.000000	 0.012864  
700.000000	 0.012827  
699.000000	 0.012831  
698.000000	 0.012745  
697.000000	 0.012246  
696.000000	 0.011290  
695.000000	 0.010330  
694.000000	 0.009848  
693.000000	 0.009768  
692.000000	 0.009520  
691.000000	 0.008698  
690.000000	 0.007530  
689.000000	 0.006575  
688.000000	 0.006050  
687.000000	 0.005658  
686.000000	 0.005106  
685.000000	 0.004531  
684.000000	 0.004285  
683.000000	 0.004466  
682.000000	 0.004832  
681.000000	 0.005081  
680.000000	 0.005090  
679.000000	 0.004915  
678.000000	 0.004720  
677.000000	 0.004740  
676.000000	 0.005022  
675.000000	 0.005343  
674.000000	 0.005495  
673.000000	 0.005476  
672.000000	 0.005195  
671.000000	 0.004059  
670.000000	 0.001351  
669.000000	 -0.003159 
668.000000	 -0.007213 
667.000000	 -0.006405 
666.000000	 -0.002148 
665.000000	 0.001361  
664.000000	 0.003196  
663.000000	 0.004025  
662.000000	 0.004446  
661.000000	 0.004565  
660.000000	 0.004435  
659.000000	 0.004305  
658.000000	 0.004244  
657.000000	 0.003957  
656.000000	 0.003175  
655.000000	 0.002200  
654.000000	 0.001758  
653.000000	 0.002241  
652.000000	 0.003268  
651.000000	 0.004058  
650.000000	 0.004165  

