PE IR                   SPECTRUM    ASCII       PEDS        1.60        
  -1
NB4-30~3.ASC
17/04/10
13:52:41.00
17/04/10
13:52:41.00
Admin

650.000000
6









SPECTRUM ONE,CPU32 MAIN 00.02.5000 17-APRIL-2002 13:00:00
MIR TGS
MIR
OPTKBR
68128
0.200000

4.000000
STRONG
RATIO
SPECTRUM
MAGNITUDE

DOUBLE

COMBINED


0


#HDR
-1
-1
#GR
CM-1
A
0.00000011920928955078
0.0
4000.000000
-1.000000
3351
8
0.198573
-0.012873
#DATA
4000.000000	0.001257  
3999.000000	0.001274  
3998.000000	0.001417  
3997.000000	0.001680  
3996.000000	0.001996  
3995.000000	0.002260  
3994.000000	0.002031  
3993.000000	0.002009  
3992.000000	0.001897  
3991.000000	0.001779  
3990.000000	0.001706  
3989.000000	0.001662  
3988.000000	0.001592  
3987.000000	0.001465  
3986.000000	0.001329  
3985.000000	0.001265  
3984.000000	0.001302  
3983.000000	0.001375  
3982.000000	0.001386  
3981.000000	0.001305  
3980.000000	0.001197  
3979.000000	0.001148  
3978.000000	0.001187  
3977.000000	0.001285  
3976.000000	0.001409  
3975.000000	0.001550  
3974.000000	0.001694  
3973.000000	0.001788  
3972.000000	0.001779  
3971.000000	0.001673  
3970.000000	0.001539  
3969.000000	0.001448  
3968.000000	0.001407  
3967.000000	0.001378  
3966.000000	0.001333  
3965.000000	0.001296  
3964.000000	0.001318  
3963.000000	0.001420  
3962.000000	0.001570  
3961.000000	0.001707  
3960.000000	0.001792  
3959.000000	0.001815  
3958.000000	0.001779  
3957.000000	0.001692  
3956.000000	0.001572  
3955.000000	0.001458  
3954.000000	0.001391  
3953.000000	0.001394  
3952.000000	0.001453  
3951.000000	0.001535  
3950.000000	0.001624  
3949.000000	0.001737  
3948.000000	0.001885  
3947.000000	0.002025  
3946.000000	0.002060  
3945.000000	0.001923  
3944.000000	0.001658  
3943.000000	0.001416  
3942.000000	0.001327  
3941.000000	0.001395  
3940.000000	0.001538  
3939.000000	0.001679  
3938.000000	0.001781  
3937.000000	0.001817  
3936.000000	0.001767  
3935.000000	0.001660  
3934.000000	0.001575  
3933.000000	0.001585  
3932.000000	0.001689  
3931.000000	0.001809  
3930.000000	0.001873  
3929.000000	0.001860  
3928.000000	0.001794  
3927.000000	0.001719  
3926.000000	0.001674  
3925.000000	0.001680  
3924.000000	0.001729  
3923.000000	0.001794  
3922.000000	0.001861  
3921.000000	0.001929  
3920.000000	0.001985  
3919.000000	0.002010  
3918.000000	0.001995  
3917.000000	0.001970  
3916.000000	0.001969  
3915.000000	0.001991  
3914.000000	0.001998  
3913.000000	0.001952  
3912.000000	0.001842  
3911.000000	0.001701  
3910.000000	0.001588  
3909.000000	0.001552  
3908.000000	0.001599  
3907.000000	0.001705  
3906.000000	0.001843  
3905.000000	0.002012  
3904.000000	0.002205  
3903.000000	0.002338  
3902.000000	0.002321  
3901.000000	0.002184  
3900.000000	0.002078  
3899.000000	0.002119  
3898.000000	0.002252  
3897.000000	0.002332  
3896.000000	0.002275  
3895.000000	0.002111  
3894.000000	0.001929  
3893.000000	0.001827  
3892.000000	0.001865  
3891.000000	0.002006  
3890.000000	0.002127  
3889.000000	0.002132  
3888.000000	0.002027  
3887.000000	0.001894  
3886.000000	0.001840  
3885.000000	0.001879  
3884.000000	0.001901  
3883.000000	0.001808  
3882.000000	0.001628  
3881.000000	0.001513  
3880.000000	0.001587  
3879.000000	0.001801  
3878.000000	0.002009  
3877.000000	0.002125  
3876.000000	0.002171  
3875.000000	0.002247  
3874.000000	0.002433  
3873.000000	0.002680  
3872.000000	0.002846  
3871.000000	0.002870  
3870.000000	0.002839  
3869.000000	0.002836  
3868.000000	0.002836  
3867.000000	0.002801  
3866.000000	0.002732  
3865.000000	0.002641  
3864.000000	0.002542  
3863.000000	0.002446  
3862.000000	0.002363  
3861.000000	0.002282  
3860.000000	0.002189  
3859.000000	0.002101  
3858.000000	0.002069  
3857.000000	0.002119  
3856.000000	0.002186  
3855.000000	0.002131  
3854.000000	0.002027  
3853.000000	0.002078  
3852.000000	0.002222  
3851.000000	0.002322  
3850.000000	0.002412  
3849.000000	0.002550  
3848.000000	0.002741  
3847.000000	0.002927  
3846.000000	0.003073  
3845.000000	0.003217  
3844.000000	0.003433  
3843.000000	0.003733  
3842.000000	0.004037  
3841.000000	0.004231  
3840.000000	0.004244  
3839.000000	0.004071  
3838.000000	0.003768  
3837.000000	0.003446  
3836.000000	0.003218  
3835.000000	0.003139  
3834.000000	0.003177  
3833.000000	0.003222  
3832.000000	0.003176  
3831.000000	0.003036  
3830.000000	0.002881  
3829.000000	0.002781  
3828.000000	0.002749  
3827.000000	0.002760  
3826.000000	0.002816  
3825.000000	0.002954  
3824.000000	0.003195  
3823.000000	0.003478  
3822.000000	0.003695  
3821.000000	0.003782  
3820.000000	0.003682  
3819.000000	0.003364  
3818.000000	0.002923  
3817.000000	0.002539  
3816.000000	0.002353  
3815.000000	0.002335  
3814.000000	0.002346  
3813.000000	0.002320  
3812.000000	0.002276  
3811.000000	0.002233  
3810.000000	0.002180  
3809.000000	0.002117  
3808.000000	0.002112  
3807.000000	0.002257  
3806.000000	0.002537  
3805.000000	0.002834  
3804.000000	0.003033  
3803.000000	0.003055  
3802.000000	0.002931  
3801.000000	0.002784  
3800.000000	0.002669  
3799.000000	0.002581  
3798.000000	0.002534  
3797.000000	0.002543  
3796.000000	0.002586  
3795.000000	0.002594  
3794.000000	0.002516  
3793.000000	0.002357  
3792.000000	0.002161  
3791.000000	0.001985  
3790.000000	0.001871  
3789.000000	0.001838  
3788.000000	0.001871  
3787.000000	0.001931  
3786.000000	0.001983  
3785.000000	0.002011  
3784.000000	0.002009  
3783.000000	0.001969  
3782.000000	0.001888  
3781.000000	0.001791  
3780.000000	0.001724  
3779.000000	0.001718  
3778.000000	0.001742  
3777.000000	0.001757  
3776.000000	0.001769  
3775.000000	0.001811  
3774.000000	0.001891  
3773.000000	0.001990  
3772.000000	0.002103  
3771.000000	0.002267  
3770.000000	0.002515  
3769.000000	0.002775  
3768.000000	0.002876  
3767.000000	0.002713  
3766.000000	0.002357  
3765.000000	0.002016  
3764.000000	0.001875  
3763.000000	0.001968  
3762.000000	0.002210  
3761.000000	0.002463  
3760.000000	0.002621  
3759.000000	0.002671  
3758.000000	0.002670  
3757.000000	0.002657  
3756.000000	0.002654  
3755.000000	0.002730  
3754.000000	0.003041  
3753.000000	0.003708  
3752.000000	0.004579  
3751.000000	0.005201  
3750.000000	0.005235  
3749.000000	0.004797  
3748.000000	0.004236  
3747.000000	0.003846  
3746.000000	0.003775  
3745.000000	0.004016  
3744.000000	0.004347  
3743.000000	0.004493  
3742.000000	0.004432  
3741.000000	0.004350  
3740.000000	0.004414  
3739.000000	0.004671  
3738.000000	0.005033  
3737.000000	0.005346  
3736.000000	0.005478  
3735.000000	0.005415  
3734.000000	0.005255  
3733.000000	0.005092  
3732.000000	0.004933  
3731.000000	0.004757  
3730.000000	0.004588  
3729.000000	0.004464  
3728.000000	0.004374  
3727.000000	0.004261  
3726.000000	0.004088  
3725.000000	0.003882  
3724.000000	0.003695  
3723.000000	0.003545  
3722.000000	0.003403  
3721.000000	0.003217  
3720.000000	0.002977  
3719.000000	0.002723  
3718.000000	0.002526  
3717.000000	0.002420  
3716.000000	0.002392  
3715.000000	0.002425  
3714.000000	0.002542  
3713.000000	0.002793  
3712.000000	0.003176  
3711.000000	0.003557  
3710.000000	0.003749  
3709.000000	0.003708  
3708.000000	0.003574  
3707.000000	0.003521  
3706.000000	0.003583  
3705.000000	0.003608  
3704.000000	0.003393  
3703.000000	0.002914  
3702.000000	0.002422  
3701.000000	0.002201  
3700.000000	0.002280  
3699.000000	0.002475  
3698.000000	0.002618  
3697.000000	0.002685  
3696.000000	0.002754  
3695.000000	0.002894  
3694.000000	0.003086  
3693.000000	0.003218  
3692.000000	0.003167  
3691.000000	0.002937  
3690.000000	0.002723  
3689.000000	0.002711  
3688.000000	0.002820  
3687.000000	0.002847  
3686.000000	0.002733  
3685.000000	0.002593  
3684.000000	0.002568  
3683.000000	0.002672  
3682.000000	0.002785  
3681.000000	0.002794  
3680.000000	0.002732  
3679.000000	0.002728  
3678.000000	0.002876  
3677.000000	0.003144  
3676.000000	0.003464  
3675.000000	0.003765  
3674.000000	0.003949  
3673.000000	0.003987  
3672.000000	0.003946  
3671.000000	0.003858  
3670.000000	0.003735  
3669.000000	0.003569  
3668.000000	0.003309  
3667.000000	0.002963  
3666.000000	0.002606  
3665.000000	0.002287  
3664.000000	0.001998  
3663.000000	0.001710  
3662.000000	0.001433  
3661.000000	0.001225  
3660.000000	0.001139  
3659.000000	0.001192  
3658.000000	0.001391  
3657.000000	0.001743  
3656.000000	0.002208  
3655.000000	0.002651  
3654.000000	0.002947  
3653.000000	0.003065  
3652.000000	0.003063  
3651.000000	0.003058  
3650.000000	0.003148  
3649.000000	0.003301  
3648.000000	0.003413  
3647.000000	0.003451  
3646.000000	0.003426  
3645.000000	0.003334  
3644.000000	0.003213  
3643.000000	0.003151  
3642.000000	0.003221  
3641.000000	0.003392  
3640.000000	0.003543  
3639.000000	0.003584  
3638.000000	0.003530  
3637.000000	0.003478  
3636.000000	0.003517  
3635.000000	0.003671  
3634.000000	0.003881  
3633.000000	0.004036  
3632.000000	0.004056  
3631.000000	0.003957  
3630.000000	0.003887  
3629.000000	0.003997  
3628.000000	0.004175  
3627.000000	0.004174  
3626.000000	0.003979  
3625.000000	0.003763  
3624.000000	0.003662  
3623.000000	0.003650  
3622.000000	0.003592  
3621.000000	0.003392  
3620.000000	0.003119  
3619.000000	0.002951  
3618.000000	0.002951  
3617.000000	0.003043  
3616.000000	0.003148  
3615.000000	0.003269  
3614.000000	0.003468  
3613.000000	0.003775  
3612.000000	0.004127  
3611.000000	0.004410  
3610.000000	0.004542  
3609.000000	0.004492  
3608.000000	0.004299  
3607.000000	0.004022  
3606.000000	0.003706  
3605.000000	0.003389  
3604.000000	0.003136  
3603.000000	0.003040  
3602.000000	0.003178  
3601.000000	0.003533  
3600.000000	0.003987  
3599.000000	0.004379  
3598.000000	0.004581  
3597.000000	0.004552  
3596.000000	0.004366  
3595.000000	0.004184  
3594.000000	0.004140  
3593.000000	0.004210  
3592.000000	0.004236  
3591.000000	0.004081  
3590.000000	0.003775  
3589.000000	0.003524  
3588.000000	0.003569  
3587.000000	0.003909  
3586.000000	0.004266  
3585.000000	0.004380  
3584.000000	0.004211  
3583.000000	0.003904  
3582.000000	0.003656  
3581.000000	0.003599  
3580.000000	0.003722  
3579.000000	0.003878  
3578.000000	0.003902  
3577.000000	0.003748  
3576.000000	0.003527  
3575.000000	0.003380  
3574.000000	0.003347  
3573.000000	0.003353  
3572.000000	0.003317  
3571.000000	0.003265  
3570.000000	0.003307  
3569.000000	0.003527  
3568.000000	0.003852  
3567.000000	0.004101  
3566.000000	0.004198  
3565.000000	0.004225  
3564.000000	0.004271  
3563.000000	0.004322  
3562.000000	0.004316  
3561.000000	0.004250  
3560.000000	0.004216  
3559.000000	0.004297  
3558.000000	0.004463  
3557.000000	0.004584  
3556.000000	0.004548  
3555.000000	0.004350  
3554.000000	0.004090  
3553.000000	0.003903  
3552.000000	0.003871  
3551.000000	0.003963  
3550.000000	0.004069  
3549.000000	0.004086  
3548.000000	0.003988  
3547.000000	0.003852  
3546.000000	0.003801  
3545.000000	0.003894  
3544.000000	0.004071  
3543.000000	0.004233  
3542.000000	0.004350  
3541.000000	0.004471  
3540.000000	0.004630  
3539.000000	0.004765  
3538.000000	0.004767  
3537.000000	0.004602  
3536.000000	0.004363  
3535.000000	0.004201  
3534.000000	0.004207  
3533.000000	0.004375  
3532.000000	0.004637  
3531.000000	0.004899  
3530.000000	0.005071  
3529.000000	0.005111  
3528.000000	0.005043  
3527.000000	0.004935  
3526.000000	0.004833  
3525.000000	0.004743  
3524.000000	0.004672  
3523.000000	0.004649  
3522.000000	0.004694  
3521.000000	0.004771  
3520.000000	0.004823  
3519.000000	0.004835  
3518.000000	0.004845  
3517.000000	0.004892  
3516.000000	0.004972  
3515.000000	0.005061  
3514.000000	0.005150  
3513.000000	0.005232  
3512.000000	0.005287  
3511.000000	0.005299  
3510.000000	0.005298  
3509.000000	0.005336  
3508.000000	0.005424  
3507.000000	0.005526  
3506.000000	0.005601  
3505.000000	0.005644  
3504.000000	0.005674  
3503.000000	0.005706  
3502.000000	0.005738  
3501.000000	0.005761  
3500.000000	0.005764  
3499.000000	0.005761  
3498.000000	0.005792  
3497.000000	0.005887  
3496.000000	0.006020  
3495.000000	0.006122  
3494.000000	0.006146  
3493.000000	0.006092  
3492.000000	0.005976  
3491.000000	0.005809  
3490.000000	0.005629  
3489.000000	0.005524  
3488.000000	0.005585  
3487.000000	0.005825  
3486.000000	0.006156  
3485.000000	0.006446  
3484.000000	0.006592  
3483.000000	0.006567  
3482.000000	0.006438  
3481.000000	0.006311  
3480.000000	0.006253  
3479.000000	0.006259  
3478.000000	0.006292  
3477.000000	0.006333  
3476.000000	0.006383  
3475.000000	0.006449  
3474.000000	0.006531  
3473.000000	0.006617  
3472.000000	0.006679  
3471.000000	0.006679  
3470.000000	0.006613  
3469.000000	0.006529  
3468.000000	0.006491  
3467.000000	0.006522  
3466.000000	0.006598  
3465.000000	0.006680  
3464.000000	0.006718  
3463.000000	0.006672  
3462.000000	0.006545  
3461.000000	0.006415  
3460.000000	0.006376  
3459.000000	0.006460  
3458.000000	0.006622  
3457.000000	0.006797  
3456.000000	0.006934  
3455.000000	0.007010  
3454.000000	0.007040  
3453.000000	0.007081  
3452.000000	0.007189  
3451.000000	0.007351  
3450.000000	0.007496  
3449.000000	0.007582  
3448.000000	0.007634  
3447.000000	0.007691  
3446.000000	0.007747  
3445.000000	0.007773  
3444.000000	0.007764  
3443.000000	0.007735  
3442.000000	0.007699  
3441.000000	0.007686  
3440.000000	0.007746  
3439.000000	0.007896  
3438.000000	0.008051  
3437.000000	0.008065  
3436.000000	0.007858  
3435.000000	0.007520  
3434.000000	0.007265  
3433.000000	0.007274  
3432.000000	0.007553  
3431.000000	0.007917  
3430.000000	0.008144  
3429.000000	0.008131  
3428.000000	0.007925  
3427.000000	0.007642  
3426.000000	0.007396  
3425.000000	0.007273  
3424.000000	0.007318  
3423.000000	0.007495  
3422.000000	0.007709  
3421.000000	0.007886  
3420.000000	0.008022  
3419.000000	0.008145  
3418.000000	0.008254  
3417.000000	0.008325  
3416.000000	0.008347  
3415.000000	0.008329  
3414.000000	0.008288  
3413.000000	0.008263  
3412.000000	0.008311  
3411.000000	0.008451  
3410.000000	0.008599  
3409.000000	0.008616  
3408.000000	0.008427  
3407.000000	0.008109  
3406.000000	0.007835  
3405.000000	0.007745  
3404.000000	0.007856  
3403.000000	0.008075  
3402.000000	0.008298  
3401.000000	0.008466  
3400.000000	0.008560  
3399.000000	0.008567  
3398.000000	0.008495  
3397.000000	0.008416  
3396.000000	0.008439  
3395.000000	0.008623  
3394.000000	0.008920  
3393.000000	0.009204  
3392.000000	0.009356  
3391.000000	0.009327  
3390.000000	0.009155  
3389.000000	0.008943  
3388.000000	0.008792  
3387.000000	0.008720  
3386.000000	0.008661  
3385.000000	0.008570  
3384.000000	0.008512  
3383.000000	0.008594  
3382.000000	0.008825  
3381.000000	0.009085  
3380.000000	0.009234  
3379.000000	0.009218  
3378.000000	0.009059  
3377.000000	0.008804  
3376.000000	0.008522  
3375.000000	0.008316  
3374.000000	0.008278  
3373.000000	0.008405  
3372.000000	0.008602  
3371.000000	0.008779  
3370.000000	0.008925  
3369.000000	0.009074  
3368.000000	0.009223  
3367.000000	0.009325  
3366.000000	0.009359  
3365.000000	0.009361  
3364.000000	0.009366  
3363.000000	0.009363  
3362.000000	0.009324  
3361.000000	0.009267  
3360.000000	0.009239  
3359.000000	0.009237  
3358.000000	0.009201  
3357.000000	0.009105  
3356.000000	0.009007  
3355.000000	0.008986  
3354.000000	0.009038  
3353.000000	0.009092  
3352.000000	0.009100  
3351.000000	0.009076  
3350.000000	0.009051  
3349.000000	0.009036  
3348.000000	0.009040  
3347.000000	0.009091  
3346.000000	0.009198  
3345.000000	0.009313  
3344.000000	0.009367  
3343.000000	0.009340  
3342.000000	0.009282  
3341.000000	0.009250  
3340.000000	0.009242  
3339.000000	0.009219  
3338.000000	0.009172  
3337.000000	0.009144  
3336.000000	0.009176  
3335.000000	0.009242  
3334.000000	0.009284  
3333.000000	0.009275  
3332.000000	0.009244  
3331.000000	0.009220  
3330.000000	0.009200  
3329.000000	0.009184  
3328.000000	0.009199  
3327.000000	0.009251  
3326.000000	0.009286  
3325.000000	0.009235  
3324.000000	0.009103  
3323.000000	0.008968  
3322.000000	0.008893  
3321.000000	0.008873  
3320.000000	0.008888  
3319.000000	0.008953  
3318.000000	0.009095  
3317.000000	0.009268  
3316.000000	0.009358  
3315.000000	0.009288  
3314.000000	0.009104  
3313.000000	0.008947  
3312.000000	0.008943  
3311.000000	0.009108  
3310.000000	0.009345  
3309.000000	0.009509  
3308.000000	0.009488  
3307.000000	0.009271  
3306.000000	0.008980  
3305.000000	0.008804  
3304.000000	0.008856  
3303.000000	0.009069  
3302.000000	0.009255  
3301.000000	0.009293  
3300.000000	0.009206  
3299.000000	0.009090  
3298.000000	0.008997  
3297.000000	0.008928  
3296.000000	0.008896  
3295.000000	0.008921  
3294.000000	0.008993  
3293.000000	0.009073  
3292.000000	0.009144  
3291.000000	0.009202  
3290.000000	0.009213  
3289.000000	0.009130  
3288.000000	0.008965  
3287.000000	0.008799  
3286.000000	0.008684  
3285.000000	0.008588  
3284.000000	0.008464  
3283.000000	0.008343  
3282.000000	0.008305  
3281.000000	0.008373  
3280.000000	0.008479  
3279.000000	0.008545  
3278.000000	0.008559  
3277.000000	0.008571  
3276.000000	0.008633  
3275.000000	0.008771  
3274.000000	0.008977  
3273.000000	0.009198  
3272.000000	0.009332  
3271.000000	0.009282  
3270.000000	0.009034  
3269.000000	0.008683  
3268.000000	0.008355  
3267.000000	0.008122  
3266.000000	0.007990  
3265.000000	0.007970  
3264.000000	0.008086  
3263.000000	0.008318  
3262.000000	0.008562  
3261.000000	0.008711  
3260.000000	0.008746  
3259.000000	0.008739  
3258.000000	0.008753  
3257.000000	0.008769  
3256.000000	0.008723  
3255.000000	0.008589  
3254.000000	0.008432  
3253.000000	0.008359  
3252.000000	0.008422  
3251.000000	0.008549  
3250.000000	0.008613  
3249.000000	0.008569  
3248.000000	0.008500  
3247.000000	0.008491  
3246.000000	0.008507  
3245.000000	0.008440  
3244.000000	0.008275  
3243.000000	0.008110  
3242.000000	0.008032  
3241.000000	0.008019  
3240.000000	0.007995  
3239.000000	0.007923  
3238.000000	0.007813  
3237.000000	0.007682  
3236.000000	0.007543  
3235.000000	0.007425  
3234.000000	0.007357  
3233.000000	0.007361  
3232.000000	0.007455  
3231.000000	0.007628  
3230.000000	0.007807  
3229.000000	0.007883  
3228.000000	0.007827  
3227.000000	0.007733  
3226.000000	0.007712  
3225.000000	0.007777  
3224.000000	0.007862  
3223.000000	0.007916  
3222.000000	0.007921  
3221.000000	0.007852  
3220.000000	0.007693  
3219.000000	0.007503  
3218.000000	0.007404  
3217.000000	0.007457  
3216.000000	0.007595  
3215.000000	0.007690  
3214.000000	0.007678  
3213.000000	0.007592  
3212.000000	0.007509  
3211.000000	0.007481  
3210.000000	0.007504  
3209.000000	0.007534  
3208.000000	0.007538  
3207.000000	0.007532  
3206.000000	0.007555  
3205.000000	0.007631  
3204.000000	0.007747  
3203.000000	0.007879  
3202.000000	0.007990  
3201.000000	0.008015  
3200.000000	0.007889  
3199.000000	0.007610  
3198.000000	0.007266  
3197.000000	0.006965  
3196.000000	0.006743  
3195.000000	0.006571  
3194.000000	0.006423  
3193.000000	0.006315  
3192.000000	0.006289  
3191.000000	0.006384  
3190.000000	0.006613  
3189.000000	0.006937  
3188.000000	0.007250  
3187.000000	0.007428  
3186.000000	0.007420  
3185.000000	0.007291  
3184.000000	0.007149  
3183.000000	0.007032  
3182.000000	0.006904  
3181.000000	0.006730  
3180.000000	0.006541  
3179.000000	0.006393  
3178.000000	0.006313  
3177.000000	0.006305  
3176.000000	0.006379  
3175.000000	0.006528  
3174.000000	0.006684  
3173.000000	0.006740  
3172.000000	0.006652  
3171.000000	0.006488  
3170.000000	0.006360  
3169.000000	0.006334  
3168.000000	0.006394  
3167.000000	0.006478  
3166.000000	0.006536  
3165.000000	0.006561  
3164.000000	0.006574  
3163.000000	0.006587  
3162.000000	0.006580  
3161.000000	0.006536  
3160.000000	0.006483  
3159.000000	0.006479  
3158.000000	0.006538  
3157.000000	0.006607  
3156.000000	0.006622  
3155.000000	0.006579  
3154.000000	0.006529  
3153.000000	0.006524  
3152.000000	0.006554  
3151.000000	0.006543  
3150.000000	0.006403  
3149.000000	0.006127  
3148.000000	0.005814  
3147.000000	0.005586  
3146.000000	0.005489  
3145.000000	0.005493  
3144.000000	0.005572  
3143.000000	0.005721  
3142.000000	0.005892  
3141.000000	0.005986  
3140.000000	0.005969  
3139.000000	0.005926  
3138.000000	0.005967  
3137.000000	0.006086  
3136.000000	0.006166  
3135.000000	0.006110  
3134.000000	0.005936  
3133.000000	0.005762  
3132.000000	0.005726  
3131.000000	0.005885  
3130.000000	0.006145  
3129.000000	0.006321  
3128.000000	0.006284  
3127.000000	0.006070  
3126.000000	0.005814  
3125.000000	0.005623  
3124.000000	0.005530  
3123.000000	0.005549  
3122.000000	0.005665  
3121.000000	0.005809  
3120.000000	0.005885  
3119.000000	0.005855  
3118.000000	0.005760  
3117.000000	0.005660  
3116.000000	0.005585  
3115.000000	0.005562  
3114.000000	0.005612  
3113.000000	0.005720  
3112.000000	0.005837  
3111.000000	0.005923  
3110.000000	0.005962  
3109.000000	0.005941  
3108.000000	0.005835  
3107.000000	0.005656  
3106.000000	0.005465  
3105.000000	0.005335  
3104.000000	0.005309  
3103.000000	0.005397  
3102.000000	0.005568  
3101.000000	0.005747  
3100.000000	0.005837  
3099.000000	0.005791  
3098.000000	0.005651  
3097.000000	0.005499  
3096.000000	0.005398  
3095.000000	0.005377  
3094.000000	0.005428  
3093.000000	0.005510  
3092.000000	0.005570  
3091.000000	0.005597  
3090.000000	0.005621  
3089.000000	0.005661  
3088.000000	0.005701  
3087.000000	0.005723  
3086.000000	0.005737  
3085.000000	0.005747  
3084.000000	0.005724  
3083.000000	0.005643  
3082.000000	0.005550  
3081.000000	0.005528  
3080.000000	0.005609  
3079.000000	0.005745  
3078.000000	0.005873  
3077.000000	0.005971  
3076.000000	0.006036  
3075.000000	0.006049  
3074.000000	0.005989  
3073.000000	0.005866  
3072.000000	0.005746  
3071.000000	0.005714  
3070.000000	0.005810  
3069.000000	0.005987  
3068.000000	0.006142  
3067.000000	0.006205  
3066.000000	0.006203  
3065.000000	0.006216  
3064.000000	0.006287  
3063.000000	0.006381  
3062.000000	0.006429  
3061.000000	0.006400  
3060.000000	0.006321  
3059.000000	0.006249  
3058.000000	0.006204  
3057.000000	0.006160  
3056.000000	0.006091  
3055.000000	0.006023  
3054.000000	0.006015  
3053.000000	0.006071  
3052.000000	0.006111  
3051.000000	0.006071  
3050.000000	0.005997  
3049.000000	0.006001  
3048.000000	0.006124  
3047.000000	0.006289  
3046.000000	0.006390  
3045.000000	0.006401  
3044.000000	0.006366  
3043.000000	0.006325  
3042.000000	0.006291  
3041.000000	0.006278  
3040.000000	0.006317  
3039.000000	0.006424  
3038.000000	0.006571  
3037.000000	0.006700  
3036.000000	0.006768  
3035.000000	0.006771  
3034.000000	0.006739  
3033.000000	0.006712  
3032.000000	0.006739  
3031.000000	0.006858  
3030.000000	0.007078  
3029.000000	0.007348  
3028.000000	0.007584  
3027.000000	0.007745  
3026.000000	0.007876  
3025.000000	0.008065  
3024.000000	0.008376  
3023.000000	0.008813  
3022.000000	0.009323  
3021.000000	0.009814  
3020.000000	0.010199  
3019.000000	0.010474  
3018.000000	0.010748  
3017.000000	0.011152  
3016.000000	0.011722  
3015.000000	0.012363  
3014.000000	0.012949  
3013.000000	0.013400  
3012.000000	0.013696  
3011.000000	0.013845  
3010.000000	0.013886  
3009.000000	0.013891  
3008.000000	0.013911  
3007.000000	0.013934  
3006.000000	0.013888  
3005.000000	0.013698  
3004.000000	0.013336  
3003.000000	0.012859  
3002.000000	0.012405  
3001.000000	0.012137  
3000.000000	0.012133  
2999.000000	0.012321  
2998.000000	0.012535  
2997.000000	0.012636  
2996.000000	0.012604  
2995.000000	0.012525  
2994.000000	0.012528  
2993.000000	0.012716  
2992.000000	0.013127  
2991.000000	0.013715  
2990.000000	0.014380  
2989.000000	0.015027  
2988.000000	0.015632  
2987.000000	0.016257  
2986.000000	0.017006  
2985.000000	0.017938  
2984.000000	0.019013  
2983.000000	0.020134  
2982.000000	0.021250  
2981.000000	0.022419  
2980.000000	0.023764  
2979.000000	0.025365  
2978.000000	0.027223  
2977.000000	0.029313  
2976.000000	0.031644  
2975.000000	0.034268  
2974.000000	0.037238  
2973.000000	0.040573  
2972.000000	0.044241  
2971.000000	0.048182  
2970.000000	0.052381  
2969.000000	0.056899  
2968.000000	0.061805  
2967.000000	0.067041  
2966.000000	0.072393  
2965.000000	0.077629  
2964.000000	0.082645  
2963.000000	0.087452  
2962.000000	0.092039  
2961.000000	0.096306  
2960.000000	0.100130  
2959.000000	0.103420  
2958.000000	0.106088  
2957.000000	0.108039  
2956.000000	0.109222  
2955.000000	0.109658  
2954.000000	0.109407  
2953.000000	0.108525  
2952.000000	0.107098  
2951.000000	0.105281  
2950.000000	0.103292  
2949.000000	0.101360  
2948.000000	0.099686  
2947.000000	0.098419  
2946.000000	0.097649  
2945.000000	0.097452  
2944.000000	0.097937  
2943.000000	0.099242  
2942.000000	0.101457  
2941.000000	0.104550  
2940.000000	0.108405  
2939.000000	0.112906  
2938.000000	0.117986  
2937.000000	0.123591  
2936.000000	0.129622  
2935.000000	0.135933  
2934.000000	0.142385  
2933.000000	0.148905  
2932.000000	0.155494  
2931.000000	0.162161  
2930.000000	0.168835  
2929.000000	0.175344  
2928.000000	0.181456  
2927.000000	0.186919  
2926.000000	0.191502  
2925.000000	0.195037  
2924.000000	0.197427  
2923.000000	0.198573  
2922.000000	0.198355  
2921.000000	0.196753  
2920.000000	0.193966  
2919.000000	0.190327  
2918.000000	0.186076  
2917.000000	0.181309  
2916.000000	0.176122  
2915.000000	0.170708  
2914.000000	0.165274  
2913.000000	0.159950  
2912.000000	0.154814  
2911.000000	0.149970  
2910.000000	0.145516  
2909.000000	0.141438  
2908.000000	0.137576  
2907.000000	0.133740  
2906.000000	0.129843  
2905.000000	0.125936  
2904.000000	0.122138  
2903.000000	0.118545  
2902.000000	0.115173  
2901.000000	0.111967  
2900.000000	0.108830  
2899.000000	0.105684  
2898.000000	0.102520  
2897.000000	0.099409  
2896.000000	0.096444  
2895.000000	0.093669  
2894.000000	0.091044  
2893.000000	0.088464  
2892.000000	0.085823  
2891.000000	0.083088  
2890.000000	0.080342  
2889.000000	0.077761  
2888.000000	0.075524  
2887.000000	0.073721  
2886.000000	0.072339  
2885.000000	0.071318  
2884.000000	0.070621  
2883.000000	0.070258  
2882.000000	0.070278  
2881.000000	0.070757  
2880.000000	0.071794  
2879.000000	0.073474  
2878.000000	0.075813  
2877.000000	0.078688  
2876.000000	0.081828  
2875.000000	0.084890  
2874.000000	0.087567  
2873.000000	0.089656  
2872.000000	0.091068  
2871.000000	0.091829  
2870.000000	0.092103  
2869.000000	0.092168  
2868.000000	0.092320  
2867.000000	0.092759  
2866.000000	0.093600  
2865.000000	0.094963  
2864.000000	0.096993  
2863.000000	0.099743  
2862.000000	0.103098  
2861.000000	0.106850  
2860.000000	0.110851  
2859.000000	0.115014  
2858.000000	0.119182  
2857.000000	0.123023  
2856.000000	0.126093  
2855.000000	0.127960  
2854.000000	0.128309  
2853.000000	0.127009  
2852.000000	0.124122  
2851.000000	0.119864  
2850.000000	0.114527  
2849.000000	0.108430  
2848.000000	0.101896  
2847.000000	0.095228  
2846.000000	0.088669  
2845.000000	0.082373  
2844.000000	0.076392  
2843.000000	0.070710  
2842.000000	0.065307  
2841.000000	0.060217  
2840.000000	0.055501  
2839.000000	0.051189  
2838.000000	0.047269  
2837.000000	0.043737  
2836.000000	0.040597  
2835.000000	0.037824  
2834.000000	0.035333  
2833.000000	0.033040  
2832.000000	0.030930  
2831.000000	0.029053  
2830.000000	0.027458  
2829.000000	0.026134  
2828.000000	0.025009  
2827.000000	0.023986  
2826.000000	0.022989  
2825.000000	0.021992  
2824.000000	0.021027  
2823.000000	0.020158  
2822.000000	0.019431  
2821.000000	0.018842  
2820.000000	0.018324  
2819.000000	0.017796  
2818.000000	0.017219  
2817.000000	0.016617  
2816.000000	0.016040  
2815.000000	0.015512  
2814.000000	0.015024  
2813.000000	0.014562  
2812.000000	0.014133  
2811.000000	0.013745  
2810.000000	0.013402  
2809.000000	0.013117  
2808.000000	0.012918  
2807.000000	0.012819  
2806.000000	0.012787  
2805.000000	0.012747  
2804.000000	0.012625  
2803.000000	0.012386  
2802.000000	0.012055  
2801.000000	0.011702  
2800.000000	0.011404  
2799.000000	0.011200  
2798.000000	0.011068  
2797.000000	0.010962  
2796.000000	0.010856  
2795.000000	0.010753  
2794.000000	0.010638  
2793.000000	0.010463  
2792.000000	0.010186  
2791.000000	0.009840  
2790.000000	0.009534  
2789.000000	0.009363  
2788.000000	0.009339  
2787.000000	0.009389  
2786.000000	0.009430  
2785.000000	0.009424  
2784.000000	0.009370  
2783.000000	0.009279  
2782.000000	0.009171  
2781.000000	0.009085  
2780.000000	0.009058  
2779.000000	0.009072  
2778.000000	0.009051  
2777.000000	0.008909  
2776.000000	0.008627  
2775.000000	0.008269  
2774.000000	0.007943  
2773.000000	0.007737  
2772.000000	0.007673  
2771.000000	0.007701  
2770.000000	0.007736  
2769.000000	0.007712  
2768.000000	0.007613  
2767.000000	0.007460  
2766.000000	0.007296  
2765.000000	0.007172  
2764.000000	0.007128  
2763.000000	0.007159  
2762.000000	0.007203  
2761.000000	0.007195  
2760.000000	0.007121  
2759.000000	0.007021  
2758.000000	0.006940  
2757.000000	0.006883  
2756.000000	0.006837  
2755.000000	0.006794  
2754.000000	0.006752  
2753.000000	0.006709  
2752.000000	0.006661  
2751.000000	0.006621  
2750.000000	0.006613  
2749.000000	0.006640  
2748.000000	0.006666  
2747.000000	0.006629  
2746.000000	0.006511  
2745.000000	0.006370  
2744.000000	0.006298  
2743.000000	0.006337  
2742.000000	0.006441  
2741.000000	0.006531  
2740.000000	0.006575  
2739.000000	0.006590  
2738.000000	0.006595  
2737.000000	0.006598  
2736.000000	0.006624  
2735.000000	0.006715  
2734.000000	0.006864  
2733.000000	0.006993  
2732.000000	0.007022  
2731.000000	0.006947  
2730.000000	0.006847  
2729.000000	0.006793  
2728.000000	0.006799  
2727.000000	0.006821  
2726.000000	0.006807  
2725.000000	0.006734  
2724.000000	0.006624  
2723.000000	0.006526  
2722.000000	0.006474  
2721.000000	0.006470  
2720.000000	0.006490  
2719.000000	0.006506  
2718.000000	0.006497  
2717.000000	0.006454  
2716.000000	0.006391  
2715.000000	0.006334  
2714.000000	0.006273  
2713.000000	0.006154  
2712.000000	0.005947  
2711.000000	0.005718  
2710.000000	0.005582  
2709.000000	0.005594  
2708.000000	0.005695  
2707.000000	0.005786  
2706.000000	0.005807  
2705.000000	0.005751  
2704.000000	0.005633  
2703.000000	0.005483  
2702.000000	0.005339  
2701.000000	0.005219  
2700.000000	0.005116  
2699.000000	0.005028  
2698.000000	0.004988  
2697.000000	0.005030  
2696.000000	0.005137  
2695.000000	0.005254  
2694.000000	0.005345  
2693.000000	0.005404  
2692.000000	0.005428  
2691.000000	0.005418  
2690.000000	0.005417  
2689.000000	0.005501  
2688.000000	0.005689  
2687.000000	0.005894  
2686.000000	0.005990  
2685.000000	0.005942  
2684.000000	0.005836  
2683.000000	0.005786  
2682.000000	0.005820  
2681.000000	0.005885  
2680.000000	0.005913  
2679.000000	0.005882  
2678.000000	0.005826  
2677.000000	0.005804  
2676.000000	0.005859  
2675.000000	0.005971  
2674.000000	0.006063  
2673.000000	0.006059  
2672.000000	0.005958  
2671.000000	0.005825  
2670.000000	0.005727  
2669.000000	0.005680  
2668.000000	0.005684  
2667.000000	0.005741  
2666.000000	0.005846  
2665.000000	0.005955  
2664.000000	0.005999  
2663.000000	0.005933  
2662.000000	0.005756  
2661.000000	0.005517  
2660.000000	0.005296  
2659.000000	0.005161  
2658.000000	0.005108  
2657.000000	0.005073  
2656.000000	0.005011  
2655.000000	0.004958  
2654.000000	0.004965  
2653.000000	0.005020  
2652.000000	0.005057  
2651.000000	0.005059  
2650.000000	0.005071  
2649.000000	0.005123  
2648.000000	0.005178  
2647.000000	0.005172  
2646.000000	0.005088  
2645.000000	0.004957  
2644.000000	0.004835  
2643.000000	0.004795  
2642.000000	0.004890  
2641.000000	0.005085  
2640.000000	0.005245  
2639.000000	0.005227  
2638.000000	0.004999  
2637.000000	0.004665  
2636.000000	0.004389  
2635.000000	0.004305  
2634.000000	0.004449  
2633.000000	0.004732  
2632.000000	0.004992  
2631.000000	0.005110  
2630.000000	0.005075  
2629.000000	0.004946  
2628.000000	0.004784  
2627.000000	0.004646  
2626.000000	0.004585  
2625.000000	0.004600  
2624.000000	0.004613  
2623.000000	0.004536  
2622.000000	0.004378  
2621.000000	0.004218  
2620.000000	0.004104  
2619.000000	0.004028  
2618.000000	0.003987  
2617.000000	0.004009  
2616.000000	0.004096  
2615.000000	0.004197  
2614.000000	0.004267  
2613.000000	0.004303  
2612.000000	0.004329  
2611.000000	0.004360  
2610.000000	0.004411  
2609.000000	0.004505  
2608.000000	0.004634  
2607.000000	0.004751  
2606.000000	0.004812  
2605.000000	0.004810  
2604.000000	0.004757  
2603.000000	0.004659  
2602.000000	0.004544  
2601.000000	0.004469  
2600.000000	0.004462  
2599.000000	0.004475  
2598.000000	0.004435  
2597.000000	0.004324  
2596.000000	0.004191  
2595.000000	0.004073  
2594.000000	0.003944  
2593.000000	0.003759  
2592.000000	0.003540  
2591.000000	0.003379  
2590.000000	0.003351  
2589.000000	0.003432  
2588.000000	0.003527  
2587.000000	0.003577  
2586.000000	0.003616  
2585.000000	0.003691  
2584.000000	0.003769  
2583.000000	0.003763  
2582.000000	0.003650  
2581.000000	0.003506  
2580.000000	0.003422  
2579.000000	0.003430  
2578.000000	0.003514  
2577.000000	0.003635  
2576.000000	0.003724  
2575.000000	0.003696  
2574.000000	0.003536  
2573.000000	0.003350  
2572.000000	0.003275  
2571.000000	0.003335  
2570.000000	0.003429  
2569.000000	0.003443  
2568.000000	0.003352  
2567.000000	0.003196  
2566.000000	0.003023  
2565.000000	0.002861  
2564.000000	0.002735  
2563.000000	0.002674  
2562.000000	0.002698  
2561.000000	0.002803  
2560.000000	0.002954  
2559.000000	0.003104  
2558.000000	0.003230  
2557.000000	0.003338  
2556.000000	0.003422  
2555.000000	0.003426  
2554.000000	0.003298  
2553.000000	0.003076  
2552.000000	0.002898  
2551.000000	0.002892  
2550.000000	0.003060  
2549.000000	0.003291  
2548.000000	0.003465  
2547.000000	0.003514  
2546.000000	0.003408  
2545.000000	0.003157  
2544.000000	0.002854  
2543.000000	0.002656  
2542.000000	0.002653  
2541.000000	0.002773  
2540.000000	0.002857  
2539.000000	0.002852  
2538.000000	0.002854  
2537.000000	0.002954  
2536.000000	0.003086  
2535.000000	0.003102  
2534.000000	0.002957  
2533.000000	0.002765  
2532.000000	0.002661  
2531.000000	0.002662  
2530.000000	0.002666  
2529.000000	0.002585  
2528.000000	0.002443  
2527.000000	0.002359  
2526.000000	0.002435  
2525.000000	0.002670  
2524.000000	0.002969  
2523.000000	0.003232  
2522.000000	0.003402  
2521.000000	0.003451  
2520.000000	0.003361  
2519.000000	0.003174  
2518.000000	0.003011  
2517.000000	0.002990  
2516.000000	0.003106  
2515.000000	0.003250  
2514.000000	0.003320  
2513.000000	0.003294  
2512.000000	0.003207  
2511.000000	0.003095  
2510.000000	0.002995  
2509.000000	0.002941  
2508.000000	0.002940  
2507.000000	0.002975  
2506.000000	0.003040  
2505.000000	0.003131  
2504.000000	0.003191  
2503.000000	0.003119  
2502.000000	0.002901  
2501.000000	0.002682  
2500.000000	0.002657  
2499.000000	0.002854  
2498.000000	0.003078  
2497.000000	0.003074  
2496.000000	0.002748  
2495.000000	0.002255  
2494.000000	0.001882  
2493.000000	0.001844  
2492.000000	0.002147  
2491.000000	0.002606  
2490.000000	0.002997  
2489.000000	0.003199  
2488.000000	0.003221  
2487.000000	0.003132  
2486.000000	0.002978  
2485.000000	0.002779  
2484.000000	0.002570  
2483.000000	0.002428  
2482.000000	0.002432  
2481.000000	0.002606  
2480.000000	0.002877  
2479.000000	0.003113  
2478.000000	0.003194  
2477.000000	0.003085  
2476.000000	0.002856  
2475.000000	0.002624  
2474.000000	0.002475  
2473.000000	0.002413  
2472.000000	0.002394  
2471.000000	0.002376  
2470.000000	0.002338  
2469.000000	0.002272  
2468.000000	0.002208  
2467.000000	0.002234  
2466.000000	0.002423  
2465.000000	0.002710  
2464.000000	0.002913  
2463.000000	0.002908  
2462.000000	0.002760  
2461.000000	0.002620  
2460.000000	0.002559  
2459.000000	0.002572  
2458.000000	0.002676  
2457.000000	0.002877  
2456.000000	0.003051  
2455.000000	0.002999  
2454.000000	0.002690  
2453.000000	0.002324  
2452.000000	0.002104  
2451.000000	0.002022  
2450.000000	0.001957  
2449.000000	0.001905  
2448.000000	0.001981  
2447.000000	0.002224  
2446.000000	0.002512  
2445.000000	0.002685  
2444.000000	0.002695  
2443.000000	0.002616  
2442.000000	0.002562  
2441.000000	0.002601  
2440.000000	0.002704  
2439.000000	0.002766  
2438.000000	0.002721  
2437.000000	0.002607  
2436.000000	0.002507  
2435.000000	0.002420  
2434.000000	0.002288  
2433.000000	0.002115  
2432.000000	0.001994  
2431.000000	0.001984  
2430.000000	0.002028  
2429.000000	0.002050  
2428.000000	0.002070  
2427.000000	0.002174  
2426.000000	0.002376  
2425.000000	0.002580  
2424.000000	0.002679  
2423.000000	0.002644  
2422.000000	0.002524  
2421.000000	0.002389  
2420.000000	0.002289  
2419.000000	0.002249  
2418.000000	0.002257  
2417.000000	0.002275  
2416.000000	0.002269  
2415.000000	0.002251  
2414.000000	0.002268  
2413.000000	0.002357  
2412.000000	0.002495  
2411.000000	0.002622  
2410.000000	0.002699  
2409.000000	0.002745  
2408.000000	0.002795  
2407.000000	0.002844  
2406.000000	0.002837  
2405.000000	0.002728  
2404.000000	0.002535  
2403.000000	0.002331  
2402.000000	0.002182  
2401.000000	0.002107  
2400.000000	0.002104  
2399.000000	0.002177  
2398.000000	0.002334  
2397.000000	0.002540  
2396.000000	0.002713  
2395.000000	0.002788  
2394.000000	0.002782  
2393.000000	0.002779  
2392.000000	0.002847  
2391.000000	0.002984  
2390.000000	0.003138  
2389.000000	0.003276  
2388.000000	0.003444  
2387.000000	0.003764  
2386.000000	0.004335  
2385.000000	0.005098  
2384.000000	0.005793  
2383.000000	0.006081  
2382.000000	0.005761  
2381.000000	0.004880  
2380.000000	0.003681  
2379.000000	0.002469  
2378.000000	0.001497  
2377.000000	0.000927  
2376.000000	0.000840  
2375.000000	0.001237  
2374.000000	0.002004  
2373.000000	0.002927  
2372.000000	0.003792  
2371.000000	0.004480  
2370.000000	0.004939  
2369.000000	0.005096  
2368.000000	0.004955  
2367.000000	0.004733  
2366.000000	0.004676  
2365.000000	0.004730  
2364.000000	0.004626  
2363.000000	0.004362  
2362.000000	0.004249  
2361.000000	0.004562  
2360.000000	0.005365  
2359.000000	0.006329  
2358.000000	0.006834  
2357.000000	0.006463  
2356.000000	0.005500  
2355.000000	0.004586  
2354.000000	0.003911  
2353.000000	0.003563  
2352.000000	0.003910  
2351.000000	0.005078  
2350.000000	0.006475  
2349.000000	0.007133  
2348.000000	0.006637  
2347.000000	0.005443  
2346.000000	0.004775  
2345.000000	0.005436  
2344.000000	0.006794  
2343.000000	0.007561  
2342.000000	0.006969  
2341.000000	0.005541  
2340.000000	0.004339  
2339.000000	0.003781  
2338.000000	0.003423  
2337.000000	0.002876  
2336.000000	0.002331  
2335.000000	0.002095  
2334.000000	0.002018  
2333.000000	0.001945  
2332.000000	0.002128  
2331.000000	0.002941  
2330.000000	0.004348  
2329.000000	0.005839  
2328.000000	0.007072  
2327.000000	0.007826  
2326.000000	0.007969  
2325.000000	0.007461  
2324.000000	0.006447  
2323.000000	0.005320  
2322.000000	0.004423  
2321.000000	0.004099  
2320.000000	0.004459  
2319.000000	0.005311  
2318.000000	0.006168  
2317.000000	0.006577  
2316.000000	0.006413  
2315.000000	0.005916  
2314.000000	0.005532  
2313.000000	0.005606  
2312.000000	0.006171  
2311.000000	0.006903  
2310.000000	0.007430  
2309.000000	0.007620  
2308.000000	0.007590  
2307.000000	0.007453  
2306.000000	0.007220  
2305.000000	0.006934  
2304.000000	0.006721  
2303.000000	0.006676  
2302.000000	0.006736  
2301.000000	0.006748  
2300.000000	0.006651  
2299.000000	0.006536  
2298.000000	0.006556  
2297.000000	0.006734  
2296.000000	0.006923  
2295.000000	0.006903  
2294.000000	0.006600  
2293.000000	0.006142  
2292.000000	0.005714  
2291.000000	0.005374  
2290.000000	0.005067  
2289.000000	0.004758  
2288.000000	0.004443  
2287.000000	0.004064  
2286.000000	0.003548  
2285.000000	0.002970  
2284.000000	0.002552  
2283.000000	0.002428  
2282.000000	0.002500  
2281.000000	0.002594  
2280.000000	0.002682  
2279.000000	0.002855  
2278.000000	0.003108  
2277.000000	0.003295  
2276.000000	0.003333  
2275.000000	0.003348  
2274.000000	0.003535  
2273.000000	0.003910  
2272.000000	0.004277  
2271.000000	0.004424  
2270.000000	0.004308  
2269.000000	0.004015  
2268.000000	0.003609  
2267.000000	0.003097  
2266.000000	0.002562  
2265.000000	0.002214  
2264.000000	0.002220  
2263.000000	0.002508  
2262.000000	0.002849  
2261.000000	0.003084  
2260.000000	0.003192  
2259.000000	0.003185  
2258.000000	0.003091  
2257.000000	0.003051  
2256.000000	0.003242  
2255.000000	0.003612  
2254.000000	0.003840  
2253.000000	0.003674  
2252.000000	0.003227  
2251.000000	0.002821  
2250.000000	0.002614  
2249.000000	0.002498  
2248.000000	0.002304  
2247.000000	0.001964  
2246.000000	0.001533  
2245.000000	0.001158  
2244.000000	0.001044  
2243.000000	0.001309  
2242.000000	0.001842  
2241.000000	0.002354  
2240.000000	0.002620  
2239.000000	0.002621  
2238.000000	0.002469  
2237.000000	0.002269  
2236.000000	0.002078  
2235.000000	0.001950  
2234.000000	0.001948  
2233.000000	0.002107  
2232.000000	0.002374  
2231.000000	0.002587  
2230.000000	0.002571  
2229.000000	0.002316  
2228.000000	0.002010  
2227.000000	0.001854  
2226.000000	0.001856  
2225.000000	0.001849  
2224.000000	0.001683  
2223.000000	0.001359  
2222.000000	0.001025  
2221.000000	0.000900  
2220.000000	0.001119  
2219.000000	0.001567  
2218.000000	0.001915  
2217.000000	0.001956  
2216.000000	0.001868  
2215.000000	0.001991  
2214.000000	0.002358  
2213.000000	0.002633  
2212.000000	0.002571  
2211.000000	0.002333  
2210.000000	0.002201  
2209.000000	0.002142  
2208.000000	0.001889  
2207.000000	0.001395  
2206.000000	0.001001  
2205.000000	0.001075  
2204.000000	0.001603  
2203.000000	0.002261  
2202.000000	0.002787  
2201.000000	0.003174  
2200.000000	0.003536  
2199.000000	0.003909  
2198.000000	0.004219  
2197.000000	0.004360  
2196.000000	0.004264  
2195.000000	0.003908  
2194.000000	0.003353  
2193.000000	0.002765  
2192.000000	0.002318  
2191.000000	0.002049  
2190.000000	0.001882  
2189.000000	0.001803  
2188.000000	0.001906  
2187.000000	0.002207  
2186.000000	0.002488  
2185.000000	0.002476  
2184.000000	0.002169  
2183.000000	0.001882  
2182.000000	0.001948  
2181.000000	0.002429  
2180.000000	0.003122  
2179.000000	0.003733  
2178.000000	0.004018  
2177.000000	0.003875  
2176.000000	0.003408  
2175.000000	0.002837  
2174.000000	0.002300  
2173.000000	0.001825  
2172.000000	0.001481  
2171.000000	0.001438  
2170.000000	0.001749  
2169.000000	0.002162  
2168.000000	0.002308  
2167.000000	0.002127  
2166.000000	0.001973  
2165.000000	0.002216  
2164.000000	0.002812  
2163.000000	0.003377  
2162.000000	0.003616  
2161.000000	0.003542  
2160.000000	0.003326  
2159.000000	0.003060  
2158.000000	0.002782  
2157.000000	0.002588  
2156.000000	0.002537  
2155.000000	0.002517  
2154.000000	0.002359  
2153.000000	0.002073  
2152.000000	0.001871  
2151.000000	0.001917  
2150.000000	0.002127  
2149.000000	0.002284  
2148.000000	0.002301  
2147.000000	0.002295  
2146.000000	0.002421  
2145.000000	0.002699  
2144.000000	0.003022  
2143.000000	0.003246  
2142.000000	0.003222  
2141.000000	0.002832  
2140.000000	0.002113  
2139.000000	0.001353  
2138.000000	0.000978  
2137.000000	0.001233  
2136.000000	0.001903  
2135.000000	0.002456  
2134.000000	0.002505  
2133.000000	0.002137  
2132.000000	0.001768  
2131.000000	0.001711  
2130.000000	0.001951  
2129.000000	0.002286  
2128.000000	0.002577  
2127.000000	0.002785  
2126.000000	0.002854  
2125.000000	0.002710  
2124.000000	0.002398  
2123.000000	0.002132  
2122.000000	0.002130  
2121.000000	0.002407  
2120.000000	0.002752  
2119.000000	0.002924  
2118.000000	0.002838  
2117.000000	0.002623  
2116.000000	0.002505  
2115.000000	0.002606  
2114.000000	0.002806  
2113.000000	0.002844  
2112.000000	0.002605  
2111.000000	0.002280  
2110.000000	0.002184  
2109.000000	0.002399  
2108.000000	0.002683  
2107.000000	0.002754  
2106.000000	0.002561  
2105.000000	0.002248  
2104.000000	0.001955  
2103.000000	0.001739  
2102.000000	0.001650  
2101.000000	0.001709  
2100.000000	0.001811  
2099.000000	0.001772  
2098.000000	0.001548  
2097.000000	0.001301  
2096.000000	0.001210  
2095.000000	0.001258  
2094.000000	0.001307  
2093.000000	0.001307  
2092.000000	0.001327  
2091.000000	0.001413  
2090.000000	0.001516  
2089.000000	0.001593  
2088.000000	0.001715  
2087.000000	0.001985  
2086.000000	0.002390  
2085.000000	0.002749  
2084.000000	0.002849  
2083.000000	0.002628  
2082.000000	0.002255  
2081.000000	0.002016  
2080.000000	0.002083  
2079.000000	0.002364  
2078.000000	0.002587  
2077.000000	0.002541  
2076.000000	0.002251  
2075.000000	0.001946  
2074.000000	0.001863  
2073.000000	0.002068  
2072.000000	0.002424  
2071.000000	0.002726  
2070.000000	0.002869  
2069.000000	0.002881  
2068.000000	0.002820  
2067.000000	0.002703  
2066.000000	0.002560  
2065.000000	0.002485  
2064.000000	0.002570  
2063.000000	0.002800  
2062.000000	0.003062  
2061.000000	0.003214  
2060.000000	0.003145  
2059.000000	0.002830  
2058.000000	0.002413  
2057.000000	0.002143  
2056.000000	0.002122  
2055.000000	0.002146  
2054.000000	0.001942  
2053.000000	0.001539  
2052.000000	0.001237  
2051.000000	0.001223  
2050.000000	0.001422  
2049.000000	0.001744  
2048.000000	0.002267  
2047.000000	0.002961  
2046.000000	0.003430  
2045.000000	0.003242  
2044.000000	0.002496  
2043.000000	0.001776  
2042.000000	0.001533  
2041.000000	0.001707  
2040.000000	0.001988  
2039.000000	0.002214  
2038.000000	0.002369  
2037.000000	0.002402  
2036.000000	0.002290  
2035.000000	0.002206  
2034.000000	0.002406  
2033.000000	0.002918  
2032.000000	0.003455  
2031.000000	0.003669  
2030.000000	0.003385  
2029.000000	0.002646  
2028.000000	0.001670  
2027.000000	0.000784  
2026.000000	0.000276  
2025.000000	0.000208  
2024.000000	0.000412  
2023.000000	0.000746  
2022.000000	0.001249  
2021.000000	0.001951  
2020.000000	0.002625  
2019.000000	0.002909  
2018.000000	0.002694  
2017.000000	0.002237  
2016.000000	0.001842  
2015.000000	0.001577  
2014.000000	0.001435  
2013.000000	0.001540  
2012.000000	0.001920  
2011.000000	0.002201  
2010.000000	0.001861  
2009.000000	0.000874  
2008.000000	-0.000114 
2007.000000	-0.000448 
2006.000000	-0.000085 
2005.000000	0.000539  
2004.000000	0.001089  
2003.000000	0.001565  
2002.000000	0.002102  
2001.000000	0.002727  
2000.000000	0.003279  
1999.000000	0.003464  
1998.000000	0.003067  
1997.000000	0.002233  
1996.000000	0.001461  
1995.000000	0.001183  
1994.000000	0.001400  
1993.000000	0.001787  
1992.000000	0.002083  
1991.000000	0.002251  
1990.000000	0.002307  
1989.000000	0.002258  
1988.000000	0.002236  
1987.000000	0.002435  
1986.000000	0.002847  
1985.000000	0.003206  
1984.000000	0.003321  
1983.000000	0.003273  
1982.000000	0.003205  
1981.000000	0.003095  
1980.000000	0.002887  
1979.000000	0.002694  
1978.000000	0.002636  
1977.000000	0.002556  
1976.000000	0.002197  
1975.000000	0.001635  
1974.000000	0.001216  
1973.000000	0.001092  
1972.000000	0.001084  
1971.000000	0.001053  
1970.000000	0.001120  
1969.000000	0.001399  
1968.000000	0.001713  
1967.000000	0.001818  
1966.000000	0.001761  
1965.000000	0.001792  
1964.000000	0.002003  
1963.000000	0.002261  
1962.000000	0.002420  
1961.000000	0.002460  
1960.000000	0.002445  
1959.000000	0.002459  
1958.000000	0.002535  
1957.000000	0.002564  
1956.000000	0.002320  
1955.000000	0.001705  
1954.000000	0.000964  
1953.000000	0.000542  
1952.000000	0.000697  
1951.000000	0.001318  
1950.000000	0.002081  
1949.000000	0.002655  
1948.000000	0.002847  
1947.000000	0.002675  
1946.000000	0.002388  
1945.000000	0.002278  
1944.000000	0.002424  
1943.000000	0.002629  
1942.000000	0.002682  
1941.000000	0.002586  
1940.000000	0.002462  
1939.000000	0.002373  
1938.000000	0.002368  
1937.000000	0.002517  
1936.000000	0.002817  
1935.000000	0.003112  
1934.000000	0.003236  
1933.000000	0.003182  
1932.000000	0.003080  
1931.000000	0.003016  
1930.000000	0.002952  
1929.000000	0.002836  
1928.000000	0.002691  
1927.000000	0.002553  
1926.000000	0.002421  
1925.000000	0.002285  
1924.000000	0.002171  
1923.000000	0.002119  
1922.000000	0.002153  
1921.000000	0.002276  
1920.000000	0.002468  
1919.000000	0.002649  
1918.000000	0.002732  
1917.000000	0.002746  
1916.000000	0.002797  
1915.000000	0.002861  
1914.000000	0.002784  
1913.000000	0.002502  
1912.000000	0.002174  
1911.000000	0.002023  
1910.000000	0.002084  
1909.000000	0.002208  
1908.000000	0.002295  
1907.000000	0.002366  
1906.000000	0.002430  
1905.000000	0.002434  
1904.000000	0.002361  
1903.000000	0.002290  
1902.000000	0.002312  
1901.000000	0.002430  
1900.000000	0.002559  
1899.000000	0.002610  
1898.000000	0.002569  
1897.000000	0.002505  
1896.000000	0.002499  
1895.000000	0.002569  
1894.000000	0.002660  
1893.000000	0.002736  
1892.000000	0.002823  
1891.000000	0.002948  
1890.000000	0.003075  
1889.000000	0.003139  
1888.000000	0.003124  
1887.000000	0.003035  
1886.000000	0.002869  
1885.000000	0.002674  
1884.000000	0.002534  
1883.000000	0.002468  
1882.000000	0.002416  
1881.000000	0.002343  
1880.000000	0.002283  
1879.000000	0.002244  
1878.000000	0.002172  
1877.000000	0.002070  
1876.000000	0.002064  
1875.000000	0.002261  
1874.000000	0.002573  
1873.000000	0.002799  
1872.000000	0.002845  
1871.000000	0.002774  
1870.000000	0.002658  
1869.000000	0.002500  
1868.000000	0.002371  
1867.000000	0.002396  
1866.000000	0.002556  
1865.000000	0.002714  
1864.000000	0.002782  
1863.000000	0.002768  
1862.000000	0.002701  
1861.000000	0.002587  
1860.000000	0.002467  
1859.000000	0.002435  
1858.000000	0.002545  
1857.000000	0.002748  
1856.000000	0.002921  
1855.000000	0.002955  
1854.000000	0.002818  
1853.000000	0.002604  
1852.000000	0.002475  
1851.000000	0.002506  
1850.000000	0.002589  
1849.000000	0.002546  
1848.000000	0.002341  
1847.000000	0.002140  
1846.000000	0.002141  
1845.000000	0.002376  
1844.000000	0.002676  
1843.000000	0.002864  
1842.000000	0.002902  
1841.000000	0.002849  
1840.000000	0.002766  
1839.000000	0.002703  
1838.000000	0.002697  
1837.000000	0.002753  
1836.000000	0.002835  
1835.000000	0.002890  
1834.000000	0.002879  
1833.000000	0.002778  
1832.000000	0.002583  
1831.000000	0.002365  
1830.000000	0.002266  
1829.000000	0.002350  
1828.000000	0.002520  
1827.000000	0.002642  
1826.000000	0.002689  
1825.000000	0.002708  
1824.000000	0.002755  
1823.000000	0.002857  
1822.000000	0.002980  
1821.000000	0.003028  
1820.000000	0.002915  
1819.000000	0.002685  
1818.000000	0.002501  
1817.000000	0.002488  
1816.000000	0.002612  
1815.000000	0.002742  
1814.000000	0.002785  
1813.000000	0.002733  
1812.000000	0.002644  
1811.000000	0.002618  
1810.000000	0.002708  
1809.000000	0.002864  
1808.000000	0.003011  
1807.000000	0.003121  
1806.000000	0.003179  
1805.000000	0.003172  
1804.000000	0.003121  
1803.000000	0.003092  
1802.000000	0.003145  
1801.000000	0.003272  
1800.000000	0.003431  
1799.000000	0.003590  
1798.000000	0.003692  
1797.000000	0.003699  
1796.000000	0.003654  
1795.000000	0.003630  
1794.000000	0.003650  
1793.000000	0.003666  
1792.000000	0.003634  
1791.000000	0.003599  
1790.000000	0.003605  
1789.000000	0.003620  
1788.000000	0.003612  
1787.000000	0.003601  
1786.000000	0.003622  
1785.000000	0.003682  
1784.000000	0.003736  
1783.000000	0.003724  
1782.000000	0.003663  
1781.000000	0.003668  
1780.000000	0.003847  
1779.000000	0.004159  
1778.000000	0.004456  
1777.000000	0.004640  
1776.000000	0.004731  
1775.000000	0.004766  
1774.000000	0.004757  
1773.000000	0.004703  
1772.000000	0.004603  
1771.000000	0.004500  
1770.000000	0.004476  
1769.000000	0.004587  
1768.000000	0.004816  
1767.000000	0.005069  
1766.000000	0.005264  
1765.000000	0.005426  
1764.000000	0.005640  
1763.000000	0.005969  
1762.000000	0.006411  
1761.000000	0.006915  
1760.000000	0.007408  
1759.000000	0.007861  
1758.000000	0.008339  
1757.000000	0.008977  
1756.000000	0.009804  
1755.000000	0.010724  
1754.000000	0.011766  
1753.000000	0.013218  
1752.000000	0.015420  
1751.000000	0.018418  
1750.000000	0.022067  
1749.000000	0.026419  
1748.000000	0.031508  
1747.000000	0.037094  
1746.000000	0.043002  
1745.000000	0.049227  
1744.000000	0.055392  
1743.000000	0.060595  
1742.000000	0.064097  
1741.000000	0.065620  
1740.000000	0.064969  
1739.000000	0.062381  
1738.000000	0.058855  
1737.000000	0.055057  
1736.000000	0.050666  
1735.000000	0.044902  
1734.000000	0.038423  
1733.000000	0.033257  
1732.000000	0.029840  
1731.000000	0.027278  
1730.000000	0.025126  
1729.000000	0.023396  
1728.000000	0.022100  
1727.000000	0.021099  
1726.000000	0.020250  
1725.000000	0.019457  
1724.000000	0.018644  
1723.000000	0.017810  
1722.000000	0.017010  
1721.000000	0.016260  
1720.000000	0.015515  
1719.000000	0.014783  
1718.000000	0.014095  
1717.000000	0.013326  
1716.000000	0.012440  
1715.000000	0.011620  
1714.000000	0.010970  
1713.000000	0.010445  
1712.000000	0.009933  
1711.000000	0.009381  
1710.000000	0.008836  
1709.000000	0.008349  
1708.000000	0.007920  
1707.000000	0.007562  
1706.000000	0.007308  
1705.000000	0.007138  
1704.000000	0.007057  
1703.000000	0.007096  
1702.000000	0.007249  
1701.000000	0.007329  
1700.000000	0.007197  
1699.000000	0.007059  
1698.000000	0.007041  
1697.000000	0.006973  
1696.000000	0.006736  
1695.000000	0.006505  
1694.000000	0.006364  
1693.000000	0.006203  
1692.000000	0.006001  
1691.000000	0.005822  
1690.000000	0.005744  
1689.000000	0.005750  
1688.000000	0.005769  
1687.000000	0.005748  
1686.000000	0.005700  
1685.000000	0.005657  
1684.000000	0.005626  
1683.000000	0.005648  
1682.000000	0.005710  
1681.000000	0.005747  
1680.000000	0.005723  
1679.000000	0.005662  
1678.000000	0.005563  
1677.000000	0.005426  
1676.000000	0.005277  
1675.000000	0.005234  
1674.000000	0.005376  
1673.000000	0.005622  
1672.000000	0.005859  
1671.000000	0.006046  
1670.000000	0.006171  
1669.000000	0.006263  
1668.000000	0.006343  
1667.000000	0.006403  
1666.000000	0.006479  
1665.000000	0.006633  
1664.000000	0.006874  
1663.000000	0.007131  
1662.000000	0.007325  
1661.000000	0.007487  
1660.000000	0.007660  
1659.000000	0.007825  
1658.000000	0.007881  
1657.000000	0.007833  
1656.000000	0.007724  
1655.000000	0.007687  
1654.000000	0.007816  
1653.000000	0.008149  
1652.000000	0.008552  
1651.000000	0.008685  
1650.000000	0.008643  
1649.000000	0.008682  
1648.000000	0.008881  
1647.000000	0.009005  
1646.000000	0.008933  
1645.000000	0.008792  
1644.000000	0.008660  
1643.000000	0.008552  
1642.000000	0.008530  
1641.000000	0.008559  
1640.000000	0.008579  
1639.000000	0.008560  
1638.000000	0.008537  
1637.000000	0.008523  
1636.000000	0.008455  
1635.000000	0.008330  
1634.000000	0.008248  
1633.000000	0.008220  
1632.000000	0.008211  
1631.000000	0.008196  
1630.000000	0.008139  
1629.000000	0.008074  
1628.000000	0.008047  
1627.000000	0.008058  
1626.000000	0.008073  
1625.000000	0.008075  
1624.000000	0.008039  
1623.000000	0.007904  
1622.000000	0.007687  
1621.000000	0.007496  
1620.000000	0.007393  
1619.000000	0.007360  
1618.000000	0.007334  
1617.000000	0.007271  
1616.000000	0.007202  
1615.000000	0.007126  
1614.000000	0.007034  
1613.000000	0.006973  
1612.000000	0.006980  
1611.000000	0.007030  
1610.000000	0.007075  
1609.000000	0.007095  
1608.000000	0.007077  
1607.000000	0.006983  
1606.000000	0.006825  
1605.000000	0.006676  
1604.000000	0.006583  
1603.000000	0.006515  
1602.000000	0.006437  
1601.000000	0.006371  
1600.000000	0.006328  
1599.000000	0.006263  
1598.000000	0.006151  
1597.000000	0.006049  
1596.000000	0.006029  
1595.000000	0.006085  
1594.000000	0.006161  
1593.000000	0.006242  
1592.000000	0.006357  
1591.000000	0.006504  
1590.000000	0.006635  
1589.000000	0.006723  
1588.000000	0.006780  
1587.000000	0.006812  
1586.000000	0.006830  
1585.000000	0.006868  
1584.000000	0.006950  
1583.000000	0.007060  
1582.000000	0.007160  
1581.000000	0.007254  
1580.000000	0.007382  
1579.000000	0.007568  
1578.000000	0.007784  
1577.000000	0.007960  
1576.000000	0.008044  
1575.000000	0.008061  
1574.000000	0.008099  
1573.000000	0.008221  
1572.000000	0.008393  
1571.000000	0.008501  
1570.000000	0.008465  
1569.000000	0.008388  
1568.000000	0.008372  
1567.000000	0.008355  
1566.000000	0.008240  
1565.000000	0.008063  
1564.000000	0.007844  
1563.000000	0.007603  
1562.000000	0.007326  
1561.000000	0.007081  
1560.000000	0.007090  
1559.000000	0.007153  
1558.000000	0.007023  
1557.000000	0.007078  
1556.000000	0.007318  
1555.000000	0.007462  
1554.000000	0.007555  
1553.000000	0.007488  
1552.000000	0.007288  
1551.000000	0.006967  
1550.000000	0.006673  
1549.000000	0.006521  
1548.000000	0.006511  
1547.000000	0.006549  
1546.000000	0.006610  
1545.000000	0.006672  
1544.000000	0.006667  
1543.000000	0.006608  
1542.000000	0.006646  
1541.000000	0.006761  
1540.000000	0.006707  
1539.000000	0.006570  
1538.000000	0.006549  
1537.000000	0.006575  
1536.000000	0.006572  
1535.000000	0.006546  
1534.000000	0.006465  
1533.000000	0.006338  
1532.000000	0.006241  
1531.000000	0.006224  
1530.000000	0.006213  
1529.000000	0.006160  
1528.000000	0.006105  
1527.000000	0.006146  
1526.000000	0.006331  
1525.000000	0.006562  
1524.000000	0.006695  
1523.000000	0.006715  
1522.000000	0.006703  
1521.000000	0.006704  
1520.000000	0.006718  
1519.000000	0.006725  
1518.000000	0.006744  
1517.000000	0.006790  
1516.000000	0.006840  
1515.000000	0.006942  
1514.000000	0.007142  
1513.000000	0.007395  
1512.000000	0.007560  
1511.000000	0.007582  
1510.000000	0.007573  
1509.000000	0.007736  
1508.000000	0.008089  
1507.000000	0.008388  
1506.000000	0.008725  
1505.000000	0.009170  
1504.000000	0.009383  
1503.000000	0.009333  
1502.000000	0.009256  
1501.000000	0.009218  
1500.000000	0.009205  
1499.000000	0.009261  
1498.000000	0.009642  
1497.000000	0.010344  
1496.000000	0.010906  
1495.000000	0.011109  
1494.000000	0.011217  
1493.000000	0.011415  
1492.000000	0.011598  
1491.000000	0.011644  
1490.000000	0.011698  
1489.000000	0.011936  
1488.000000	0.012309  
1487.000000	0.012737  
1486.000000	0.013244  
1485.000000	0.013868  
1484.000000	0.014565  
1483.000000	0.015331  
1482.000000	0.016291  
1481.000000	0.017473  
1480.000000	0.018706  
1479.000000	0.019928  
1478.000000	0.021354  
1477.000000	0.023162  
1476.000000	0.025246  
1475.000000	0.027661  
1474.000000	0.031161  
1473.000000	0.036533  
1472.000000	0.043191  
1471.000000	0.049828  
1470.000000	0.056005  
1469.000000	0.061735  
1468.000000	0.066795  
1467.000000	0.070971  
1466.000000	0.074338  
1465.000000	0.076966  
1464.000000	0.078734  
1463.000000	0.079769  
1462.000000	0.080442  
1461.000000	0.080975  
1460.000000	0.081422  
1459.000000	0.081883  
1458.000000	0.082395  
1457.000000	0.082255  
1456.000000	0.080801  
1455.000000	0.078560  
1454.000000	0.076134  
1453.000000	0.073540  
1452.000000	0.070780  
1451.000000	0.068071  
1450.000000	0.065590  
1449.000000	0.063131  
1448.000000	0.060455  
1447.000000	0.057727  
1446.000000	0.055191  
1445.000000	0.052728  
1444.000000	0.050129  
1443.000000	0.047417  
1442.000000	0.044775  
1441.000000	0.042344  
1440.000000	0.040145  
1439.000000	0.038097  
1438.000000	0.036061  
1437.000000	0.033995  
1436.000000	0.032150  
1435.000000	0.030754  
1434.000000	0.029599  
1433.000000	0.028325  
1432.000000	0.026813  
1431.000000	0.025188  
1430.000000	0.023672  
1429.000000	0.022424  
1428.000000	0.021504  
1427.000000	0.020861  
1426.000000	0.020364  
1425.000000	0.019927  
1424.000000	0.019549  
1423.000000	0.019251  
1422.000000	0.019000  
1421.000000	0.018720  
1420.000000	0.018383  
1419.000000	0.018029  
1418.000000	0.017712  
1417.000000	0.017426  
1416.000000	0.017140  
1415.000000	0.016859  
1414.000000	0.016595  
1413.000000	0.016337  
1412.000000	0.016066  
1411.000000	0.015776  
1410.000000	0.015511  
1409.000000	0.015329  
1408.000000	0.015270  
1407.000000	0.015353  
1406.000000	0.015565  
1405.000000	0.015876  
1404.000000	0.016247  
1403.000000	0.016638  
1402.000000	0.017003  
1401.000000	0.017334  
1400.000000	0.017680  
1399.000000	0.018062  
1398.000000	0.018441  
1397.000000	0.018792  
1396.000000	0.019121  
1395.000000	0.019442  
1394.000000	0.019785  
1393.000000	0.020180  
1392.000000	0.020603  
1391.000000	0.021050  
1390.000000	0.021598  
1389.000000	0.022423  
1388.000000	0.023714  
1387.000000	0.025457  
1386.000000	0.027420  
1385.000000	0.029464  
1384.000000	0.031687  
1383.000000	0.034261  
1382.000000	0.037239  
1381.000000	0.040479  
1380.000000	0.043628  
1379.000000	0.046095  
1378.000000	0.047293  
1377.000000	0.046997  
1376.000000	0.045351  
1375.000000	0.042668  
1374.000000	0.039480  
1373.000000	0.036481  
1372.000000	0.034092  
1371.000000	0.032316  
1370.000000	0.031050  
1369.000000	0.030279  
1368.000000	0.029933  
1367.000000	0.029760  
1366.000000	0.029430  
1365.000000	0.028723  
1364.000000	0.027629  
1363.000000	0.026340  
1362.000000	0.025157  
1361.000000	0.024295  
1360.000000	0.023763  
1359.000000	0.023433  
1358.000000	0.023182  
1357.000000	0.022969  
1356.000000	0.022830  
1355.000000	0.022811  
1354.000000	0.022880  
1353.000000	0.022928  
1352.000000	0.022881  
1351.000000	0.022754  
1350.000000	0.022583  
1349.000000	0.022380  
1348.000000	0.022134  
1347.000000	0.021832  
1346.000000	0.021492  
1345.000000	0.021173  
1344.000000	0.020931  
1343.000000	0.020763  
1342.000000	0.020614  
1341.000000	0.020415  
1340.000000	0.020121  
1339.000000	0.019722  
1338.000000	0.019270  
1337.000000	0.018839  
1336.000000	0.018469  
1335.000000	0.018163  
1334.000000	0.017903  
1333.000000	0.017680  
1332.000000	0.017510  
1331.000000	0.017402  
1330.000000	0.017334  
1329.000000	0.017287  
1328.000000	0.017275  
1327.000000	0.017323  
1326.000000	0.017419  
1325.000000	0.017541  
1324.000000	0.017672  
1323.000000	0.017806  
1322.000000	0.017938  
1321.000000	0.018075  
1320.000000	0.018230  
1319.000000	0.018393  
1318.000000	0.018532  
1317.000000	0.018628  
1316.000000	0.018700  
1315.000000	0.018791  
1314.000000	0.018926  
1313.000000	0.019096  
1312.000000	0.019273  
1311.000000	0.019439  
1310.000000	0.019601  
1309.000000	0.019772  
1308.000000	0.019959  
1307.000000	0.020145  
1306.000000	0.020296  
1305.000000	0.020380  
1304.000000	0.020376  
1303.000000	0.020286  
1302.000000	0.020146  
1301.000000	0.020010  
1300.000000	0.019911  
1299.000000	0.019842  
1298.000000	0.019764  
1297.000000	0.019636  
1296.000000	0.019439  
1295.000000	0.019184  
1294.000000	0.018905  
1293.000000	0.018644  
1292.000000	0.018443  
1291.000000	0.018330  
1290.000000	0.018312  
1289.000000	0.018372  
1288.000000	0.018489  
1287.000000	0.018659  
1286.000000	0.018887  
1285.000000	0.019165  
1284.000000	0.019458  
1283.000000	0.019735  
1282.000000	0.020002  
1281.000000	0.020278  
1280.000000	0.020551  
1279.000000	0.020778  
1278.000000	0.020942  
1277.000000	0.021090  
1276.000000	0.021278  
1275.000000	0.021523  
1274.000000	0.021796  
1273.000000	0.022060  
1272.000000	0.022283  
1271.000000	0.022438  
1270.000000	0.022523  
1269.000000	0.022577  
1268.000000	0.022635  
1267.000000	0.022689  
1266.000000	0.022704  
1265.000000	0.022678  
1264.000000	0.022660  
1263.000000	0.022713  
1262.000000	0.022871  
1261.000000	0.023119  
1260.000000	0.023389  
1259.000000	0.023595  
1258.000000	0.023699  
1257.000000	0.023730  
1256.000000	0.023749  
1255.000000	0.023803  
1254.000000	0.023933  
1253.000000	0.024183  
1252.000000	0.024567  
1251.000000	0.025014  
1250.000000	0.025416  
1249.000000	0.025739  
1248.000000	0.026054  
1247.000000	0.026439  
1246.000000	0.026876  
1245.000000	0.027266  
1244.000000	0.027513  
1243.000000	0.027594  
1242.000000	0.027537  
1241.000000	0.027385  
1240.000000	0.027161  
1239.000000	0.026872  
1238.000000	0.026520  
1237.000000	0.026118  
1236.000000	0.025692  
1235.000000	0.025269  
1234.000000	0.024862  
1233.000000	0.024466  
1232.000000	0.024081  
1231.000000	0.023720  
1230.000000	0.023387  
1229.000000	0.023067  
1228.000000	0.022760  
1227.000000	0.022501  
1226.000000	0.022317  
1225.000000	0.022177  
1224.000000	0.022032  
1223.000000	0.021884  
1222.000000	0.021787  
1221.000000	0.021760  
1220.000000	0.021762  
1219.000000	0.021767  
1218.000000	0.021818  
1217.000000	0.021967  
1216.000000	0.022196  
1215.000000	0.022421  
1214.000000	0.022577  
1213.000000	0.022663  
1212.000000	0.022722  
1211.000000	0.022823  
1210.000000	0.023022  
1209.000000	0.023302  
1208.000000	0.023573  
1207.000000	0.023770  
1206.000000	0.023937  
1205.000000	0.024174  
1204.000000	0.024514  
1203.000000	0.024906  
1202.000000	0.025314  
1201.000000	0.025765  
1200.000000	0.026287  
1199.000000	0.026864  
1198.000000	0.027474  
1197.000000	0.028118  
1196.000000	0.028799  
1195.000000	0.029507  
1194.000000	0.030248  
1193.000000	0.031051  
1192.000000	0.031902  
1191.000000	0.032724  
1190.000000	0.033462  
1189.000000	0.034147  
1188.000000	0.034848  
1187.000000	0.035587  
1186.000000	0.036356  
1185.000000	0.037152  
1184.000000	0.037979  
1183.000000	0.038821  
1182.000000	0.039654  
1181.000000	0.040462  
1180.000000	0.041211  
1179.000000	0.041836  
1178.000000	0.042288  
1177.000000	0.042582  
1176.000000	0.042755  
1175.000000	0.042812  
1174.000000	0.042741  
1173.000000	0.042555  
1172.000000	0.042293  
1171.000000	0.041975  
1170.000000	0.041586  
1169.000000	0.041107  
1168.000000	0.040523  
1167.000000	0.039844  
1166.000000	0.039092  
1165.000000	0.038283  
1164.000000	0.037392  
1163.000000	0.036397  
1162.000000	0.035335  
1161.000000	0.034306  
1160.000000	0.033371  
1159.000000	0.032499  
1158.000000	0.031622  
1157.000000	0.030732  
1156.000000	0.029874  
1155.000000	0.029070  
1154.000000	0.028297  
1153.000000	0.027545  
1152.000000	0.026852  
1151.000000	0.026266  
1150.000000	0.025797  
1149.000000	0.025408  
1148.000000	0.025042  
1147.000000	0.024644  
1146.000000	0.024182  
1145.000000	0.023667  
1144.000000	0.023135  
1143.000000	0.022605  
1142.000000	0.022071  
1141.000000	0.021527  
1140.000000	0.020982  
1139.000000	0.020458  
1138.000000	0.019989  
1137.000000	0.019613  
1136.000000	0.019335  
1135.000000	0.019098  
1134.000000	0.018821  
1133.000000	0.018501  
1132.000000	0.018226  
1131.000000	0.018092  
1130.000000	0.018125  
1129.000000	0.018308  
1128.000000	0.018627  
1127.000000	0.019056  
1126.000000	0.019532  
1125.000000	0.020005  
1124.000000	0.020493  
1123.000000	0.021038  
1122.000000	0.021621  
1121.000000	0.022150  
1120.000000	0.022543  
1119.000000	0.022766  
1118.000000	0.022828  
1117.000000	0.022756  
1116.000000	0.022600  
1115.000000	0.022401  
1114.000000	0.022161  
1113.000000	0.021859  
1112.000000	0.021500  
1111.000000	0.021137  
1110.000000	0.020808  
1109.000000	0.020513  
1108.000000	0.020261  
1107.000000	0.020112  
1106.000000	0.020123  
1105.000000	0.020254  
1104.000000	0.020379  
1103.000000	0.020400  
1102.000000	0.020347  
1101.000000	0.020329  
1100.000000	0.020403  
1099.000000	0.020524  
1098.000000	0.020595  
1097.000000	0.020592  
1096.000000	0.020583  
1095.000000	0.020638  
1094.000000	0.020743  
1093.000000	0.020817  
1092.000000	0.020816  
1091.000000	0.020763  
1090.000000	0.020694  
1089.000000	0.020608  
1088.000000	0.020505  
1087.000000	0.020432  
1086.000000	0.020470  
1085.000000	0.020654  
1084.000000	0.020948  
1083.000000	0.021275  
1082.000000	0.021583  
1081.000000	0.021875  
1080.000000	0.022207  
1079.000000	0.022644  
1078.000000	0.023217  
1077.000000	0.023899  
1076.000000	0.024632  
1075.000000	0.025372  
1074.000000	0.026074  
1073.000000	0.026672  
1072.000000	0.027086  
1071.000000	0.027292  
1070.000000	0.027360  
1069.000000	0.027407  
1068.000000	0.027487  
1067.000000	0.027569  
1066.000000	0.027597  
1065.000000	0.027561  
1064.000000	0.027486  
1063.000000	0.027366  
1062.000000	0.027139  
1061.000000	0.026741  
1060.000000	0.026187  
1059.000000	0.025568  
1058.000000	0.024990  
1057.000000	0.024522  
1056.000000	0.024202  
1055.000000	0.024054  
1054.000000	0.024031  
1053.000000	0.023991  
1052.000000	0.023796  
1051.000000	0.023478  
1050.000000	0.023254  
1049.000000	0.023304  
1048.000000	0.023593  
1047.000000	0.023928  
1046.000000	0.024148  
1045.000000	0.024216  
1044.000000	0.024190  
1043.000000	0.024169  
1042.000000	0.024238  
1041.000000	0.024379  
1040.000000	0.024459  
1039.000000	0.024344  
1038.000000	0.024041  
1037.000000	0.023691  
1036.000000	0.023440  
1035.000000	0.023344  
1034.000000	0.023398  
1033.000000	0.023572  
1032.000000	0.023800  
1031.000000	0.023972  
1030.000000	0.024006  
1029.000000	0.023895  
1028.000000	0.023675  
1027.000000	0.023365  
1026.000000	0.022972  
1025.000000	0.022511  
1024.000000	0.021997  
1023.000000	0.021433  
1022.000000	0.020843  
1021.000000	0.020282  
1020.000000	0.019799  
1019.000000	0.019393  
1018.000000	0.019050  
1017.000000	0.018798  
1016.000000	0.018676  
1015.000000	0.018656  
1014.000000	0.018634  
1013.000000	0.018524  
1012.000000	0.018330  
1011.000000	0.018107  
1010.000000	0.017901  
1009.000000	0.017725  
1008.000000	0.017564  
1007.000000	0.017383  
1006.000000	0.017154  
1005.000000	0.016881  
1004.000000	0.016607  
1003.000000	0.016380  
1002.000000	0.016222  
1001.000000	0.016114  
1000.000000	0.015996  
999.000000	 0.015797  
998.000000	 0.015510  
997.000000	 0.015242  
996.000000	 0.015148  
995.000000	 0.015277  
994.000000	 0.015515  
993.000000	 0.015683  
992.000000	 0.015683  
991.000000	 0.015547  
990.000000	 0.015374  
989.000000	 0.015259  
988.000000	 0.015228  
987.000000	 0.015221  
986.000000	 0.015155  
985.000000	 0.015014  
984.000000	 0.014878  
983.000000	 0.014832  
982.000000	 0.014871  
981.000000	 0.014932  
980.000000	 0.014984  
979.000000	 0.015063  
978.000000	 0.015213  
977.000000	 0.015432  
976.000000	 0.015669  
975.000000	 0.015871  
974.000000	 0.016023  
973.000000	 0.016165  
972.000000	 0.016356  
971.000000	 0.016623  
970.000000	 0.016929  
969.000000	 0.017219  
968.000000	 0.017450  
967.000000	 0.017594  
966.000000	 0.017620  
965.000000	 0.017512  
964.000000	 0.017303  
963.000000	 0.017061  
962.000000	 0.016857  
961.000000	 0.016729  
960.000000	 0.016683  
959.000000	 0.016692  
958.000000	 0.016722  
957.000000	 0.016773  
956.000000	 0.016872  
955.000000	 0.017015  
954.000000	 0.017130  
953.000000	 0.017145  
952.000000	 0.017084  
951.000000	 0.017028  
950.000000	 0.017000  
949.000000	 0.016924  
948.000000	 0.016734  
947.000000	 0.016470  
946.000000	 0.016233  
945.000000	 0.016075  
944.000000	 0.015957  
943.000000	 0.015812  
942.000000	 0.015607  
941.000000	 0.015343  
940.000000	 0.015014  
939.000000	 0.014607  
938.000000	 0.014146  
937.000000	 0.013707  
936.000000	 0.013376  
935.000000	 0.013175  
934.000000	 0.013067  
933.000000	 0.013019  
932.000000	 0.013033  
931.000000	 0.013087  
930.000000	 0.013100  
929.000000	 0.013004  
928.000000	 0.012843  
927.000000	 0.012749  
926.000000	 0.012795  
925.000000	 0.012923  
924.000000	 0.013033  
923.000000	 0.013095  
922.000000	 0.013151  
921.000000	 0.013216  
920.000000	 0.013253  
919.000000	 0.013224  
918.000000	 0.013158  
917.000000	 0.013122  
916.000000	 0.013153  
915.000000	 0.013210  
914.000000	 0.013217  
913.000000	 0.013132  
912.000000	 0.012972  
911.000000	 0.012795  
910.000000	 0.012669  
909.000000	 0.012633  
908.000000	 0.012669  
907.000000	 0.012698  
906.000000	 0.012640  
905.000000	 0.012501  
904.000000	 0.012388  
903.000000	 0.012400  
902.000000	 0.012521  
901.000000	 0.012630  
900.000000	 0.012617  
899.000000	 0.012482  
898.000000	 0.012310  
897.000000	 0.012187  
896.000000	 0.012131  
895.000000	 0.012098  
894.000000	 0.012039  
893.000000	 0.011961  
892.000000	 0.011915  
891.000000	 0.011947  
890.000000	 0.012055  
889.000000	 0.012205  
888.000000	 0.012342  
887.000000	 0.012412  
886.000000	 0.012382  
885.000000	 0.012267  
884.000000	 0.012129  
883.000000	 0.012024  
882.000000	 0.011981  
881.000000	 0.012028  
880.000000	 0.012204  
879.000000	 0.012491  
878.000000	 0.012776  
877.000000	 0.012936  
876.000000	 0.012940  
875.000000	 0.012851  
874.000000	 0.012729  
873.000000	 0.012575  
872.000000	 0.012389  
871.000000	 0.012234  
870.000000	 0.012225  
869.000000	 0.012428  
868.000000	 0.012772  
867.000000	 0.013045  
866.000000	 0.013046  
865.000000	 0.012763  
864.000000	 0.012386  
863.000000	 0.012124  
862.000000	 0.012040  
861.000000	 0.012076  
860.000000	 0.012185  
859.000000	 0.012357  
858.000000	 0.012551  
857.000000	 0.012709  
856.000000	 0.012857  
855.000000	 0.013110  
854.000000	 0.013530  
853.000000	 0.014040  
852.000000	 0.014509  
851.000000	 0.014899  
850.000000	 0.015261  
849.000000	 0.015615  
848.000000	 0.015875  
847.000000	 0.015953  
846.000000	 0.015873  
845.000000	 0.015764  
844.000000	 0.015714  
843.000000	 0.015683  
842.000000	 0.015571  
841.000000	 0.015353  
840.000000	 0.015102  
839.000000	 0.014904  
838.000000	 0.014760  
837.000000	 0.014595  
836.000000	 0.014320  
835.000000	 0.013887  
834.000000	 0.013343  
833.000000	 0.012845  
832.000000	 0.012571  
831.000000	 0.012568  
830.000000	 0.012690  
829.000000	 0.012760  
828.000000	 0.012753  
827.000000	 0.012790  
826.000000	 0.012948  
825.000000	 0.013151  
824.000000	 0.013261  
823.000000	 0.013212  
822.000000	 0.013057  
821.000000	 0.012932  
820.000000	 0.012960  
819.000000	 0.013151  
818.000000	 0.013399  
817.000000	 0.013586  
816.000000	 0.013676  
815.000000	 0.013686  
814.000000	 0.013611  
813.000000	 0.013449  
812.000000	 0.013278  
811.000000	 0.013230  
810.000000	 0.013368  
809.000000	 0.013640  
808.000000	 0.013951  
807.000000	 0.014218  
806.000000	 0.014356  
805.000000	 0.014281  
804.000000	 0.013978  
803.000000	 0.013543  
802.000000	 0.013116  
801.000000	 0.012798  
800.000000	 0.012608  
799.000000	 0.012499  
798.000000	 0.012391  
797.000000	 0.012235  
796.000000	 0.012058  
795.000000	 0.011929  
794.000000	 0.011879  
793.000000	 0.011906  
792.000000	 0.012025  
791.000000	 0.012247  
790.000000	 0.012503  
789.000000	 0.012664  
788.000000	 0.012671  
787.000000	 0.012617  
786.000000	 0.012655  
785.000000	 0.012863  
784.000000	 0.013212  
783.000000	 0.013624  
782.000000	 0.014040  
781.000000	 0.014431  
780.000000	 0.014787  
779.000000	 0.015090  
778.000000	 0.015317  
777.000000	 0.015496  
776.000000	 0.015736  
775.000000	 0.016142  
774.000000	 0.016695  
773.000000	 0.017256  
772.000000	 0.017708  
771.000000	 0.018042  
770.000000	 0.018300  
769.000000	 0.018485  
768.000000	 0.018572  
767.000000	 0.018547  
766.000000	 0.018401  
765.000000	 0.018129  
764.000000	 0.017792  
763.000000	 0.017562  
762.000000	 0.017621  
761.000000	 0.017993  
760.000000	 0.018515  
759.000000	 0.018972  
758.000000	 0.019275  
757.000000	 0.019486  
756.000000	 0.019724  
755.000000	 0.020035  
754.000000	 0.020357  
753.000000	 0.020615  
752.000000	 0.020817  
751.000000	 0.021042  
750.000000	 0.021349  
749.000000	 0.021739  
748.000000	 0.022223  
747.000000	 0.022889  
746.000000	 0.023856  
745.000000	 0.025154  
744.000000	 0.026666  
743.000000	 0.028176  
742.000000	 0.029479  
741.000000	 0.030477  
740.000000	 0.031222  
739.000000	 0.031837  
738.000000	 0.032369  
737.000000	 0.032745  
736.000000	 0.032885  
735.000000	 0.032838  
734.000000	 0.032774  
733.000000	 0.032864  
732.000000	 0.033182  
731.000000	 0.033693  
730.000000	 0.034321  
729.000000	 0.035073  
728.000000	 0.036037  
727.000000	 0.037227  
726.000000	 0.038502  
725.000000	 0.039647  
724.000000	 0.040558  
723.000000	 0.041284  
722.000000	 0.041829  
721.000000	 0.041896  
720.000000	 0.041033  
719.000000	 0.039186  
718.000000	 0.036902  
717.000000	 0.034848  
716.000000	 0.033342  
715.000000	 0.032286  
714.000000	 0.031392  
713.000000	 0.030465  
712.000000	 0.029509  
711.000000	 0.028646  
710.000000	 0.027997  
709.000000	 0.027621  
708.000000	 0.027491  
707.000000	 0.027483  
706.000000	 0.027522  
705.000000	 0.027646  
704.000000	 0.027870  
703.000000	 0.028072  
702.000000	 0.028087  
701.000000	 0.027895  
700.000000	 0.027657  
699.000000	 0.027462  
698.000000	 0.027201  
697.000000	 0.026713  
696.000000	 0.026027  
695.000000	 0.025420  
694.000000	 0.025108  
693.000000	 0.024950  
692.000000	 0.024554  
691.000000	 0.023650  
690.000000	 0.022409  
689.000000	 0.021287  
688.000000	 0.020552  
687.000000	 0.020075  
686.000000	 0.019582  
685.000000	 0.019013  
684.000000	 0.018546  
683.000000	 0.018327  
682.000000	 0.018348  
681.000000	 0.018498  
680.000000	 0.018606  
679.000000	 0.018461  
678.000000	 0.018036  
677.000000	 0.017673  
676.000000	 0.017543  
675.000000	 0.017457  
674.000000	 0.017270  
673.000000	 0.016936  
672.000000	 0.015880  
671.000000	 0.012541  
670.000000	 0.005550  
669.000000	 -0.004987 
668.000000	 -0.012873 
667.000000	 -0.008738 
666.000000	 0.001728  
665.000000	 0.009488  
664.000000	 0.013440  
663.000000	 0.015073  
662.000000	 0.015544  
661.000000	 0.015262  
660.000000	 0.014661  
659.000000	 0.014391  
658.000000	 0.014594  
657.000000	 0.014712  
656.000000	 0.014078  
655.000000	 0.012852  
654.000000	 0.011951  
653.000000	 0.012033  
652.000000	 0.012862  
651.000000	 0.013720  
650.000000	 0.014141  

