PE IR                   SPECTRUM    ASCII       PEDS        1.60        
  -1
NB4-10~2.ASC
17/04/10
13:26:55.00
17/04/10
13:26:55.00
Admin

650.000000
6









SPECTRUM ONE,CPU32 MAIN 00.02.5000 17-APRIL-2002 13:00:00
MIR TGS
MIR
OPTKBR
68128
0.200000

4.000000
STRONG
RATIO
SPECTRUM
MAGNITUDE

DOUBLE

COMBINED


0


#HDR
-1
-1
#GR
CM-1
A
0.00000011920928955078
0.0
4000.000000
-1.000000
3351
8
0.214595
-0.011428
#DATA
4000.000000	0.001234  
3999.000000	0.001229  
3998.000000	0.001271  
3997.000000	0.001257  
3996.000000	0.001384  
3995.000000	0.001531  
3994.000000	0.001651  
3993.000000	0.001707  
3992.000000	0.001692  
3991.000000	0.001623  
3990.000000	0.001526  
3989.000000	0.001419  
3988.000000	0.001307  
3987.000000	0.001204  
3986.000000	0.001147  
3985.000000	0.001174  
3984.000000	0.001260  
3983.000000	0.001305  
3982.000000	0.001208  
3981.000000	0.000975  
3980.000000	0.000731  
3979.000000	0.000615  
3978.000000	0.000667  
3977.000000	0.000814  
3976.000000	0.000967  
3975.000000	0.001094  
3974.000000	0.001204  
3973.000000	0.001296  
3972.000000	0.001352  
3971.000000	0.001367  
3970.000000	0.001366  
3969.000000	0.001362  
3968.000000	0.001323  
3967.000000	0.001209  
3966.000000	0.001040  
3965.000000	0.000912  
3964.000000	0.000918  
3963.000000	0.001067  
3962.000000	0.001269  
3961.000000	0.001427  
3960.000000	0.001513  
3959.000000	0.001549  
3958.000000	0.001542  
3957.000000	0.001461  
3956.000000	0.001291  
3955.000000	0.001080  
3954.000000	0.000914  
3953.000000	0.000852  
3952.000000	0.000887  
3951.000000	0.000973  
3950.000000	0.001069  
3949.000000	0.001169  
3948.000000	0.001277  
3947.000000	0.001374  
3946.000000	0.001411  
3945.000000	0.001352  
3944.000000	0.001220  
3943.000000	0.001087  
3942.000000	0.001015  
3941.000000	0.001010  
3940.000000	0.001049  
3939.000000	0.001116  
3938.000000	0.001194  
3937.000000	0.001250  
3936.000000	0.001252  
3935.000000	0.001206  
3934.000000	0.001165  
3933.000000	0.001183  
3932.000000	0.001257  
3931.000000	0.001333  
3930.000000	0.001369  
3929.000000	0.001375  
3928.000000	0.001390  
3927.000000	0.001447  
3926.000000	0.001537  
3925.000000	0.001621  
3924.000000	0.001659  
3923.000000	0.001653  
3922.000000	0.001636  
3921.000000	0.001634  
3920.000000	0.001639  
3919.000000	0.001622  
3918.000000	0.001566  
3917.000000	0.001486  
3916.000000	0.001414  
3915.000000	0.001378  
3914.000000	0.001374  
3913.000000	0.001370  
3912.000000	0.001329  
3911.000000	0.001245  
3910.000000	0.001154  
3909.000000	0.001106  
3908.000000	0.001122  
3907.000000	0.001193  
3906.000000	0.001303  
3905.000000	0.001439  
3904.000000	0.001564  
3903.000000	0.001600  
3902.000000	0.001502  
3901.000000	0.001333  
3900.000000	0.001226  
3899.000000	0.001265  
3898.000000	0.001402  
3897.000000	0.001528  
3896.000000	0.001564  
3895.000000	0.001498  
3894.000000	0.001369  
3893.000000	0.001240  
3892.000000	0.001166  
3891.000000	0.001151  
3890.000000	0.001169  
3889.000000	0.001196  
3888.000000	0.001214  
3887.000000	0.001214  
3886.000000	0.001209  
3885.000000	0.001200  
3884.000000	0.001181  
3883.000000	0.001149  
3882.000000	0.001105  
3881.000000	0.001061  
3880.000000	0.001025  
3879.000000	0.001013  
3878.000000	0.001051  
3877.000000	0.001153  
3876.000000	0.001321  
3875.000000	0.001552  
3874.000000	0.001811  
3873.000000	0.002014  
3872.000000	0.002093  
3871.000000	0.002057  
3870.000000	0.001988  
3869.000000	0.001933  
3868.000000	0.001875  
3867.000000	0.001771  
3866.000000	0.001602  
3865.000000	0.001408  
3864.000000	0.001280  
3863.000000	0.001270  
3862.000000	0.001351  
3861.000000	0.001428  
3860.000000	0.001428  
3859.000000	0.001368  
3858.000000	0.001321  
3857.000000	0.001319  
3856.000000	0.001310  
3855.000000	0.001237  
3854.000000	0.001194  
3853.000000	0.001210  
3852.000000	0.001207  
3851.000000	0.001210  
3850.000000	0.001300  
3849.000000	0.001500  
3848.000000	0.001770  
3847.000000	0.002030  
3846.000000	0.002232  
3845.000000	0.002398  
3844.000000	0.002579  
3843.000000	0.002769  
3842.000000	0.002879  
3841.000000	0.002818  
3840.000000	0.002566  
3839.000000	0.002197  
3838.000000	0.001826  
3837.000000	0.001556  
3836.000000	0.001448  
3835.000000	0.001523  
3834.000000	0.001745  
3833.000000	0.002011  
3832.000000	0.002187  
3831.000000	0.002207  
3830.000000	0.002102  
3829.000000	0.001947  
3828.000000	0.001803  
3827.000000	0.001691  
3826.000000	0.001625  
3825.000000	0.001625  
3824.000000	0.001713  
3823.000000	0.001890  
3822.000000	0.002137  
3821.000000	0.002341  
3820.000000	0.002345  
3819.000000	0.002110  
3818.000000	0.001733  
3817.000000	0.001382  
3816.000000	0.001201  
3815.000000	0.001186  
3814.000000	0.001250  
3813.000000	0.001333  
3812.000000	0.001413  
3811.000000	0.001457  
3810.000000	0.001404  
3809.000000	0.001227  
3808.000000	0.001034  
3807.000000	0.001019  
3806.000000	0.001262  
3805.000000	0.001658  
3804.000000	0.002002  
3803.000000	0.002103  
3802.000000	0.001928  
3801.000000	0.001619  
3800.000000	0.001359  
3799.000000	0.001256  
3798.000000	0.001332  
3797.000000	0.001542  
3796.000000	0.001786  
3795.000000	0.001945  
3794.000000	0.001962  
3793.000000	0.001855  
3792.000000	0.001687  
3791.000000	0.001522  
3790.000000	0.001397  
3789.000000	0.001318  
3788.000000	0.001278  
3787.000000	0.001270  
3786.000000	0.001285  
3785.000000	0.001309  
3784.000000	0.001327  
3783.000000	0.001334  
3782.000000	0.001337  
3781.000000	0.001359  
3780.000000	0.001422  
3779.000000	0.001525  
3778.000000	0.001625  
3777.000000	0.001678  
3776.000000	0.001658  
3775.000000	0.001569  
3774.000000	0.001431  
3773.000000	0.001288  
3772.000000	0.001211  
3771.000000	0.001285  
3770.000000	0.001529  
3769.000000	0.001825  
3768.000000	0.001986  
3767.000000	0.001904  
3766.000000	0.001635  
3765.000000	0.001354  
3764.000000	0.001215  
3763.000000	0.001240  
3762.000000	0.001337  
3761.000000	0.001405  
3760.000000	0.001417  
3759.000000	0.001425  
3758.000000	0.001481  
3757.000000	0.001570  
3756.000000	0.001654  
3755.000000	0.001749  
3754.000000	0.001955  
3753.000000	0.002352  
3752.000000	0.002809  
3751.000000	0.002979  
3750.000000	0.002702  
3749.000000	0.002253  
3748.000000	0.001983  
3747.000000	0.002016  
3746.000000	0.002254  
3745.000000	0.002491  
3744.000000	0.002544  
3743.000000	0.002425  
3742.000000	0.002313  
3741.000000	0.002356  
3740.000000	0.002594  
3739.000000	0.002961  
3738.000000	0.003300  
3737.000000	0.003449  
3736.000000	0.003341  
3735.000000	0.003060  
3734.000000	0.002788  
3733.000000	0.002649  
3732.000000	0.002627  
3731.000000	0.002653  
3730.000000	0.002688  
3729.000000	0.002716  
3728.000000	0.002718  
3727.000000	0.002675  
3726.000000	0.002581  
3725.000000	0.002443  
3724.000000	0.002281  
3723.000000	0.002101  
3722.000000	0.001891  
3721.000000	0.001631  
3720.000000	0.001331  
3719.000000	0.001049  
3718.000000	0.000875  
3717.000000	0.000854  
3716.000000	0.000945  
3715.000000	0.001051  
3714.000000	0.001102  
3713.000000	0.001133  
3712.000000	0.001242  
3711.000000	0.001433  
3710.000000	0.001597  
3709.000000	0.001677  
3708.000000	0.001732  
3707.000000	0.001854  
3706.000000	0.002051  
3705.000000	0.002209  
3704.000000	0.002174  
3703.000000	0.001900  
3702.000000	0.001529  
3701.000000	0.001279  
3700.000000	0.001249  
3699.000000	0.001386  
3698.000000	0.001568  
3697.000000	0.001710  
3696.000000	0.001796  
3695.000000	0.001852  
3694.000000	0.001879  
3693.000000	0.001834  
3692.000000	0.001678  
3691.000000	0.001469  
3690.000000	0.001361  
3689.000000	0.001426  
3688.000000	0.001559  
3687.000000	0.001628  
3686.000000	0.001619  
3685.000000	0.001602  
3684.000000	0.001640  
3683.000000	0.001706  
3682.000000	0.001706  
3681.000000	0.001591  
3680.000000	0.001424  
3679.000000	0.001313  
3678.000000	0.001325  
3677.000000	0.001471  
3676.000000	0.001730  
3675.000000	0.001983  
3674.000000	0.002127  
3673.000000	0.002168  
3672.000000	0.002150  
3671.000000	0.002126  
3670.000000	0.002147  
3669.000000	0.002183  
3668.000000	0.002169  
3667.000000	0.002076  
3666.000000	0.001902  
3665.000000	0.001643  
3664.000000	0.001305  
3663.000000	0.000925  
3662.000000	0.000579  
3661.000000	0.000341  
3660.000000	0.000245  
3659.000000	0.000289  
3658.000000	0.000473  
3657.000000	0.000813  
3656.000000	0.001254  
3655.000000	0.001658  
3654.000000	0.001892  
3653.000000	0.001878  
3652.000000	0.001635  
3651.000000	0.001333  
3650.000000	0.001205  
3649.000000	0.001293  
3648.000000	0.001441  
3647.000000	0.001538  
3646.000000	0.001574  
3645.000000	0.001575  
3644.000000	0.001583  
3643.000000	0.001656  
3642.000000	0.001822  
3641.000000	0.002035  
3640.000000	0.002185  
3639.000000	0.002194  
3638.000000	0.002075  
3637.000000	0.001928  
3636.000000	0.001861  
3635.000000	0.001919  
3634.000000	0.002051  
3633.000000	0.002147  
3632.000000	0.002120  
3631.000000	0.001992  
3630.000000	0.001926  
3629.000000	0.002039  
3628.000000	0.002181  
3627.000000	0.002195  
3626.000000	0.002115  
3625.000000	0.002062  
3624.000000	0.002102  
3623.000000	0.002179  
3622.000000	0.002147  
3621.000000	0.001906  
3620.000000	0.001549  
3619.000000	0.001306  
3618.000000	0.001300  
3617.000000	0.001454  
3616.000000	0.001609  
3615.000000	0.001680  
3614.000000	0.001705  
3613.000000	0.001777  
3612.000000	0.001936  
3611.000000	0.002158  
3610.000000	0.002381  
3609.000000	0.002522  
3608.000000	0.002500  
3607.000000	0.002298  
3606.000000	0.001983  
3605.000000	0.001661  
3604.000000	0.001422  
3603.000000	0.001327  
3602.000000	0.001416  
3601.000000	0.001685  
3600.000000	0.002059  
3599.000000	0.002403  
3598.000000	0.002573  
3597.000000	0.002501  
3596.000000	0.002247  
3595.000000	0.001987  
3594.000000	0.001871  
3593.000000	0.001896  
3592.000000	0.001932  
3591.000000	0.001867  
3590.000000	0.001718  
3589.000000	0.001640  
3588.000000	0.001766  
3587.000000	0.002027  
3586.000000	0.002230  
3585.000000	0.002259  
3584.000000	0.002111  
3583.000000	0.001849  
3582.000000	0.001575  
3581.000000	0.001414  
3580.000000	0.001426  
3579.000000	0.001538  
3578.000000	0.001594  
3577.000000	0.001505  
3576.000000	0.001328  
3575.000000	0.001177  
3574.000000	0.001079  
3573.000000	0.000965  
3572.000000	0.000789  
3571.000000	0.000614  
3570.000000	0.000584  
3569.000000	0.000791  
3568.000000	0.001147  
3567.000000	0.001412  
3566.000000	0.001453  
3565.000000	0.001364  
3564.000000	0.001296  
3563.000000	0.001289  
3562.000000	0.001300  
3561.000000	0.001301  
3560.000000	0.001328  
3559.000000	0.001424  
3558.000000	0.001559  
3557.000000	0.001630  
3556.000000	0.001554  
3555.000000	0.001338  
3554.000000	0.001085  
3553.000000	0.000918  
3552.000000	0.000897  
3551.000000	0.000992  
3550.000000	0.001111  
3549.000000	0.001168  
3548.000000	0.001145  
3547.000000	0.001125  
3546.000000	0.001218  
3545.000000	0.001439  
3544.000000	0.001680  
3543.000000	0.001814  
3542.000000	0.001824  
3541.000000	0.001789  
3540.000000	0.001778  
3539.000000	0.001771  
3538.000000	0.001686  
3537.000000	0.001484  
3536.000000	0.001222  
3535.000000	0.001006  
3534.000000	0.000907  
3533.000000	0.000929  
3532.000000	0.001036  
3531.000000	0.001189  
3530.000000	0.001356  
3529.000000	0.001504  
3528.000000	0.001600  
3527.000000	0.001623  
3526.000000	0.001566  
3525.000000	0.001436  
3524.000000	0.001272  
3523.000000	0.001145  
3522.000000	0.001118  
3521.000000	0.001190  
3520.000000	0.001297  
3519.000000	0.001374  
3518.000000	0.001418  
3517.000000	0.001471  
3516.000000	0.001561  
3515.000000	0.001665  
3514.000000	0.001745  
3513.000000	0.001774  
3512.000000	0.001754  
3511.000000	0.001708  
3510.000000	0.001668  
3509.000000	0.001649  
3508.000000	0.001630  
3507.000000	0.001581  
3506.000000	0.001515  
3505.000000	0.001497  
3504.000000	0.001578  
3503.000000	0.001730  
3502.000000	0.001857  
3501.000000	0.001888  
3500.000000	0.001838  
3499.000000	0.001786  
3498.000000	0.001796  
3497.000000	0.001859  
3496.000000	0.001908  
3495.000000	0.001896  
3494.000000	0.001834  
3493.000000	0.001756  
3492.000000	0.001662  
3491.000000	0.001535  
3490.000000	0.001384  
3489.000000	0.001261  
3488.000000	0.001221  
3487.000000	0.001289  
3486.000000	0.001467  
3485.000000	0.001733  
3484.000000	0.002007  
3483.000000	0.002170  
3482.000000	0.002149  
3481.000000	0.001986  
3480.000000	0.001796  
3479.000000	0.001682  
3478.000000	0.001669  
3477.000000	0.001718  
3476.000000	0.001759  
3475.000000	0.001748  
3474.000000	0.001706  
3473.000000	0.001689  
3472.000000	0.001703  
3471.000000	0.001672  
3470.000000	0.001530  
3469.000000	0.001315  
3468.000000	0.001153  
3467.000000	0.001137  
3466.000000	0.001251  
3465.000000	0.001384  
3464.000000	0.001419  
3463.000000	0.001303  
3462.000000	0.001092  
3461.000000	0.000912  
3460.000000	0.000869  
3459.000000	0.000973  
3458.000000	0.001165  
3457.000000	0.001378  
3456.000000	0.001557  
3455.000000	0.001658  
3454.000000	0.001675  
3453.000000	0.001666  
3452.000000	0.001705  
3451.000000	0.001798  
3450.000000	0.001877  
3449.000000	0.001881  
3448.000000	0.001825  
3447.000000	0.001769  
3446.000000	0.001760  
3445.000000	0.001817  
3444.000000	0.001919  
3443.000000	0.002003  
3442.000000	0.002012  
3441.000000	0.001968  
3440.000000	0.001974  
3439.000000	0.002095  
3438.000000	0.002258  
3437.000000	0.002300  
3436.000000	0.002126  
3435.000000	0.001801  
3434.000000	0.001505  
3433.000000	0.001403  
3432.000000	0.001528  
3431.000000	0.001771  
3430.000000	0.001963  
3429.000000	0.001984  
3428.000000	0.001821  
3427.000000	0.001551  
3426.000000	0.001288  
3425.000000	0.001130  
3424.000000	0.001118  
3423.000000	0.001223  
3422.000000	0.001383  
3421.000000	0.001554  
3420.000000	0.001716  
3419.000000	0.001843  
3418.000000	0.001908  
3417.000000	0.001923  
3416.000000	0.001931  
3415.000000	0.001954  
3414.000000	0.001966  
3413.000000	0.001955  
3412.000000	0.001962  
3411.000000	0.002030  
3410.000000	0.002121  
3409.000000	0.002129  
3408.000000	0.001981  
3407.000000	0.001716  
3406.000000	0.001458  
3405.000000	0.001315  
3404.000000	0.001311  
3403.000000	0.001395  
3402.000000	0.001513  
3401.000000	0.001646  
3400.000000	0.001779  
3399.000000	0.001861  
3398.000000	0.001853  
3397.000000	0.001797  
3396.000000	0.001803  
3395.000000	0.001938  
3394.000000	0.002162  
3393.000000	0.002359  
3392.000000	0.002443  
3391.000000	0.002395  
3390.000000	0.002261  
3389.000000	0.002113  
3388.000000	0.002003  
3387.000000	0.001919  
3386.000000	0.001806  
3385.000000	0.001669  
3384.000000	0.001615  
3383.000000	0.001749  
3382.000000	0.002035  
3381.000000	0.002319  
3380.000000	0.002469  
3379.000000	0.002453  
3378.000000	0.002292  
3377.000000	0.002004  
3376.000000	0.001636  
3375.000000	0.001302  
3374.000000	0.001135  
3373.000000	0.001177  
3372.000000	0.001352  
3371.000000	0.001559  
3370.000000	0.001758  
3369.000000	0.001958  
3368.000000	0.002146  
3367.000000	0.002269  
3366.000000	0.002304  
3365.000000	0.002306  
3364.000000	0.002345  
3363.000000	0.002405  
3362.000000	0.002402  
3361.000000	0.002292  
3360.000000	0.002136  
3359.000000	0.002020  
3358.000000	0.001960  
3357.000000	0.001918  
3356.000000	0.001888  
3355.000000	0.001896  
3354.000000	0.001940  
3353.000000	0.001981  
3352.000000	0.001991  
3351.000000	0.001978  
3350.000000	0.001952  
3349.000000	0.001919  
3348.000000	0.001906  
3347.000000	0.001954  
3346.000000	0.002049  
3345.000000	0.002118  
3344.000000	0.002104  
3343.000000	0.002034  
3342.000000	0.001981  
3341.000000	0.001966  
3340.000000	0.001932  
3339.000000	0.001826  
3338.000000	0.001675  
3337.000000	0.001580  
3336.000000	0.001616  
3335.000000	0.001759  
3334.000000	0.001898  
3333.000000	0.001947  
3332.000000	0.001921  
3331.000000	0.001887  
3330.000000	0.001892  
3329.000000	0.001939  
3328.000000	0.002024  
3327.000000	0.002138  
3326.000000	0.002227  
3325.000000	0.002211  
3324.000000	0.002079  
3323.000000	0.001927  
3322.000000	0.001864  
3321.000000	0.001909  
3320.000000	0.002003  
3319.000000	0.002103  
3318.000000	0.002209  
3317.000000	0.002314  
3316.000000	0.002358  
3315.000000	0.002284  
3314.000000	0.002113  
3313.000000	0.001943  
3312.000000	0.001877  
3311.000000	0.001951  
3310.000000	0.002108  
3309.000000	0.002231  
3308.000000	0.002205  
3307.000000	0.002009  
3306.000000	0.001760  
3305.000000	0.001653  
3304.000000	0.001792  
3303.000000	0.002093  
3302.000000	0.002356  
3301.000000	0.002446  
3300.000000	0.002375  
3299.000000	0.002227  
3298.000000	0.002067  
3297.000000	0.001949  
3296.000000	0.001925  
3295.000000	0.002009  
3294.000000	0.002136  
3293.000000	0.002231  
3292.000000	0.002291  
3291.000000	0.002349  
3290.000000	0.002382  
3289.000000	0.002312  
3288.000000	0.002120  
3287.000000	0.001894  
3286.000000	0.001728  
3285.000000	0.001638  
3284.000000	0.001592  
3283.000000	0.001587  
3282.000000	0.001647  
3281.000000	0.001764  
3280.000000	0.001885  
3279.000000	0.001962  
3278.000000	0.001983  
3277.000000	0.001976  
3276.000000	0.001988  
3275.000000	0.002064  
3274.000000	0.002212  
3273.000000	0.002374  
3272.000000	0.002463  
3271.000000	0.002426  
3270.000000	0.002278  
3269.000000	0.002073  
3268.000000	0.001859  
3267.000000	0.001657  
3266.000000	0.001499  
3265.000000	0.001454  
3264.000000	0.001591  
3263.000000	0.001884  
3262.000000	0.002196  
3261.000000	0.002389  
3260.000000	0.002457  
3259.000000	0.002508  
3258.000000	0.002608  
3257.000000	0.002692  
3256.000000	0.002645  
3255.000000	0.002460  
3254.000000	0.002272  
3253.000000	0.002242  
3252.000000	0.002405  
3251.000000	0.002634  
3250.000000	0.002758  
3249.000000	0.002725  
3248.000000	0.002635  
3247.000000	0.002594  
3246.000000	0.002588  
3245.000000	0.002533  
3244.000000	0.002423  
3243.000000	0.002354  
3242.000000	0.002379  
3241.000000	0.002425  
3240.000000	0.002397  
3239.000000	0.002286  
3238.000000	0.002148  
3237.000000	0.002015  
3236.000000	0.001885  
3235.000000	0.001771  
3234.000000	0.001701  
3233.000000	0.001695  
3232.000000	0.001761  
3231.000000	0.001899  
3230.000000	0.002067  
3229.000000	0.002176  
3228.000000	0.002173  
3227.000000	0.002108  
3226.000000	0.002081  
3225.000000	0.002132  
3224.000000	0.002232  
3223.000000	0.002340  
3222.000000	0.002433  
3221.000000	0.002474  
3220.000000	0.002434  
3219.000000	0.002345  
3218.000000	0.002281  
3217.000000	0.002276  
3216.000000	0.002311  
3215.000000	0.002369  
3214.000000	0.002455  
3213.000000	0.002548  
3212.000000	0.002599  
3211.000000	0.002585  
3210.000000	0.002544  
3209.000000	0.002522  
3208.000000	0.002528  
3207.000000	0.002551  
3206.000000	0.002597  
3205.000000	0.002675  
3204.000000	0.002781  
3203.000000	0.002896  
3202.000000	0.002996  
3201.000000	0.003041  
3200.000000	0.002977  
3199.000000	0.002781  
3198.000000	0.002484  
3197.000000	0.002145  
3196.000000	0.001828  
3195.000000	0.001603  
3194.000000	0.001541  
3193.000000	0.001661  
3192.000000	0.001895  
3191.000000	0.002144  
3190.000000	0.002357  
3189.000000	0.002543  
3188.000000	0.002708  
3187.000000	0.002835  
3186.000000	0.002919  
3185.000000	0.002976  
3184.000000	0.003001  
3183.000000	0.002947  
3182.000000	0.002774  
3181.000000	0.002529  
3180.000000	0.002324  
3179.000000	0.002236  
3178.000000	0.002246  
3177.000000	0.002293  
3176.000000	0.002359  
3175.000000	0.002464  
3174.000000	0.002599  
3173.000000	0.002696  
3172.000000	0.002692  
3171.000000	0.002603  
3170.000000	0.002526  
3169.000000	0.002543  
3168.000000	0.002652  
3167.000000	0.002757  
3166.000000	0.002762  
3165.000000	0.002652  
3164.000000	0.002505  
3163.000000	0.002408  
3162.000000	0.002383  
3161.000000	0.002392  
3160.000000	0.002411  
3159.000000	0.002450  
3158.000000	0.002513  
3157.000000	0.002572  
3156.000000	0.002605  
3155.000000	0.002634  
3154.000000	0.002705  
3153.000000	0.002826  
3152.000000	0.002941  
3151.000000	0.002954  
3150.000000	0.002798  
3149.000000	0.002513  
3148.000000	0.002239  
3147.000000	0.002107  
3146.000000	0.002119  
3145.000000	0.002165  
3144.000000	0.002175  
3143.000000	0.002188  
3142.000000	0.002258  
3141.000000	0.002357  
3140.000000	0.002413  
3139.000000	0.002426  
3138.000000	0.002452  
3137.000000	0.002508  
3136.000000	0.002535  
3135.000000	0.002484  
3134.000000	0.002379  
3133.000000	0.002300  
3132.000000	0.002312  
3131.000000	0.002426  
3130.000000	0.002588  
3129.000000	0.002702  
3128.000000	0.002702  
3127.000000	0.002611  
3126.000000	0.002510  
3125.000000	0.002452  
3124.000000	0.002442  
3123.000000	0.002473  
3122.000000	0.002546  
3121.000000	0.002635  
3120.000000	0.002673  
3119.000000	0.002614  
3118.000000	0.002484  
3117.000000	0.002366  
3116.000000	0.002341  
3115.000000	0.002440  
3114.000000	0.002615  
3113.000000	0.002766  
3112.000000	0.002814  
3111.000000	0.002773  
3110.000000	0.002720  
3109.000000	0.002700  
3108.000000	0.002675  
3107.000000	0.002587  
3106.000000	0.002440  
3105.000000	0.002302  
3104.000000	0.002250  
3103.000000	0.002318  
3102.000000	0.002482  
3101.000000	0.002660  
3100.000000	0.002755  
3099.000000	0.002718  
3098.000000	0.002583  
3097.000000	0.002444  
3096.000000	0.002387  
3095.000000	0.002439  
3094.000000	0.002559  
3093.000000	0.002672  
3092.000000	0.002729  
3091.000000	0.002743  
3090.000000	0.002751  
3089.000000	0.002760  
3088.000000	0.002758  
3087.000000	0.002770  
3086.000000	0.002850  
3085.000000	0.002994  
3084.000000	0.003110  
3083.000000	0.003109  
3082.000000	0.003007  
3081.000000	0.002924  
3080.000000	0.002963  
3079.000000	0.003136  
3078.000000	0.003375  
3077.000000	0.003581  
3076.000000	0.003683  
3075.000000	0.003663  
3074.000000	0.003562  
3073.000000	0.003447  
3072.000000	0.003380  
3071.000000	0.003388  
3070.000000	0.003459  
3069.000000	0.003539  
3068.000000	0.003568  
3067.000000	0.003525  
3066.000000	0.003462  
3065.000000	0.003462  
3064.000000	0.003577  
3063.000000	0.003785  
3062.000000	0.003990  
3061.000000	0.004082  
3060.000000	0.004015  
3059.000000	0.003844  
3058.000000	0.003684  
3057.000000	0.003604  
3056.000000	0.003602  
3055.000000	0.003658  
3054.000000	0.003776  
3053.000000	0.003941  
3052.000000	0.004069  
3051.000000	0.004080  
3050.000000	0.004005  
3049.000000	0.003973  
3048.000000	0.004080  
3047.000000	0.004288  
3046.000000	0.004478  
3045.000000	0.004558  
3044.000000	0.004512  
3043.000000	0.004378  
3042.000000	0.004214  
3041.000000	0.004093  
3040.000000	0.004078  
3039.000000	0.004187  
3038.000000	0.004373  
3037.000000	0.004558  
3036.000000	0.004685  
3035.000000	0.004748  
3034.000000	0.004769  
3033.000000	0.004773  
3032.000000	0.004794  
3031.000000	0.004875  
3030.000000	0.005038  
3029.000000	0.005244  
3028.000000	0.005421  
3027.000000	0.005541  
3026.000000	0.005651  
3025.000000	0.005818  
3024.000000	0.006067  
3023.000000	0.006380  
3022.000000	0.006700  
3021.000000	0.006943  
3020.000000	0.007049  
3019.000000	0.007059  
3018.000000	0.007126  
3017.000000	0.007381  
3016.000000	0.007801  
3015.000000	0.008233  
3014.000000	0.008557  
3013.000000	0.008759  
3012.000000	0.008889  
3011.000000	0.008980  
3010.000000	0.009046  
3009.000000	0.009110  
3008.000000	0.009197  
3007.000000	0.009311  
3006.000000	0.009431  
3005.000000	0.009502  
3004.000000	0.009455  
3003.000000	0.009267  
3002.000000	0.009025  
3001.000000	0.008899  
3000.000000	0.009003  
2999.000000	0.009300  
2998.000000	0.009633  
2997.000000	0.009860  
2996.000000	0.009944  
2995.000000	0.009955  
2994.000000	0.010016  
2993.000000	0.010237  
2992.000000	0.010652  
2991.000000	0.011200  
2990.000000	0.011788  
2989.000000	0.012371  
2988.000000	0.012975  
2987.000000	0.013654  
2986.000000	0.014440  
2985.000000	0.015332  
2984.000000	0.016313  
2983.000000	0.017380  
2982.000000	0.018553  
2981.000000	0.019869  
2980.000000	0.021357  
2979.000000	0.023022  
2978.000000	0.024877  
2977.000000	0.026970  
2976.000000	0.029374  
2975.000000	0.032146  
2974.000000	0.035296  
2973.000000	0.038802  
2972.000000	0.042625  
2971.000000	0.046738  
2970.000000	0.051153  
2969.000000	0.055934  
2968.000000	0.061128  
2967.000000	0.066654  
2966.000000	0.072284  
2965.000000	0.077781  
2964.000000	0.083050  
2963.000000	0.088129  
2962.000000	0.093050  
2961.000000	0.097759  
2960.000000	0.102150  
2959.000000	0.106118  
2958.000000	0.109540  
2957.000000	0.112269  
2956.000000	0.114183  
2955.000000	0.115220  
2954.000000	0.115366  
2953.000000	0.114646  
2952.000000	0.113165  
2951.000000	0.111124  
2950.000000	0.108778  
2949.000000	0.106365  
2948.000000	0.104087  
2947.000000	0.102119  
2946.000000	0.100633  
2945.000000	0.099807  
2944.000000	0.099810  
2943.000000	0.100753  
2942.000000	0.102654  
2941.000000	0.105457  
2940.000000	0.109104  
2939.000000	0.113561  
2938.000000	0.118774  
2937.000000	0.124620  
2936.000000	0.130924  
2935.000000	0.137547  
2934.000000	0.144439  
2933.000000	0.151627  
2932.000000	0.159148  
2931.000000	0.166957  
2930.000000	0.174883  
2929.000000	0.182673  
2928.000000	0.190072  
2927.000000	0.196854  
2926.000000	0.202796  
2925.000000	0.207692  
2924.000000	0.211387  
2923.000000	0.213740  
2922.000000	0.214595  
2921.000000	0.213866  
2920.000000	0.211678  
2919.000000	0.208332  
2918.000000	0.204134  
2917.000000	0.199298  
2916.000000	0.193999  
2915.000000	0.188434  
2914.000000	0.182780  
2913.000000	0.177160  
2912.000000	0.171679  
2911.000000	0.166452  
2910.000000	0.161566  
2909.000000	0.157004  
2908.000000	0.152642  
2907.000000	0.148327  
2906.000000	0.143979  
2905.000000	0.139638  
2904.000000	0.135428  
2903.000000	0.131450  
2902.000000	0.127700  
2901.000000	0.124086  
2900.000000	0.120499  
2899.000000	0.116875  
2898.000000	0.113224  
2897.000000	0.109613  
2896.000000	0.106125  
2895.000000	0.102801  
2894.000000	0.099596  
2893.000000	0.096413  
2892.000000	0.093174  
2891.000000	0.089885  
2890.000000	0.086638  
2889.000000	0.083576  
2888.000000	0.080840  
2887.000000	0.078506  
2886.000000	0.076579  
2885.000000	0.075044  
2884.000000	0.073919  
2883.000000	0.073256  
2882.000000	0.073097  
2881.000000	0.073465  
2880.000000	0.074397  
2879.000000	0.075966  
2878.000000	0.078225  
2877.000000	0.081118  
2876.000000	0.084440  
2875.000000	0.087872  
2874.000000	0.091054  
2873.000000	0.093668  
2872.000000	0.095524  
2871.000000	0.096610  
2870.000000	0.097088  
2869.000000	0.097225  
2868.000000	0.097310  
2867.000000	0.097594  
2866.000000	0.098280  
2865.000000	0.099545  
2864.000000	0.101526  
2863.000000	0.104262  
2862.000000	0.107670  
2861.000000	0.111611  
2860.000000	0.115970  
2859.000000	0.120644  
2858.000000	0.125442  
2857.000000	0.130025  
2856.000000	0.133950  
2855.000000	0.136740  
2854.000000	0.137953  
2853.000000	0.137301  
2852.000000	0.134782  
2851.000000	0.130666  
2850.000000	0.125323  
2849.000000	0.119073  
2848.000000	0.112197  
2847.000000	0.104998  
2846.000000	0.097790  
2845.000000	0.090791  
2844.000000	0.084062  
2843.000000	0.077558  
2842.000000	0.071244  
2841.000000	0.065165  
2840.000000	0.059421  
2839.000000	0.054114  
2838.000000	0.049306  
2837.000000	0.045017  
2836.000000	0.041214  
2835.000000	0.037826  
2834.000000	0.034773  
2833.000000	0.032006  
2832.000000	0.029521  
2831.000000	0.027339  
2830.000000	0.025476  
2829.000000	0.023907  
2828.000000	0.022562  
2827.000000	0.021345  
2826.000000	0.020195  
2825.000000	0.019107  
2824.000000	0.018115  
2823.000000	0.017252  
2822.000000	0.016525  
2821.000000	0.015913  
2820.000000	0.015378  
2819.000000	0.014878  
2818.000000	0.014387  
2817.000000	0.013904  
2816.000000	0.013445  
2815.000000	0.013006  
2814.000000	0.012556  
2813.000000	0.012064  
2812.000000	0.011537  
2811.000000	0.011032  
2810.000000	0.010616  
2809.000000	0.010328  
2808.000000	0.010162  
2807.000000	0.010077  
2806.000000	0.010018  
2805.000000	0.009935  
2804.000000	0.009788  
2803.000000	0.009562  
2802.000000	0.009269  
2801.000000	0.008956  
2800.000000	0.008677  
2799.000000	0.008467  
2798.000000	0.008323  
2797.000000	0.008218  
2796.000000	0.008129  
2795.000000	0.008041  
2794.000000	0.007922  
2793.000000	0.007711  
2792.000000	0.007373  
2791.000000	0.006965  
2790.000000	0.006625  
2789.000000	0.006466  
2788.000000	0.006485  
2787.000000	0.006577  
2786.000000	0.006626  
2785.000000	0.006585  
2784.000000	0.006461  
2783.000000	0.006289  
2782.000000	0.006119  
2781.000000	0.006012  
2780.000000	0.006008  
2779.000000	0.006079  
2778.000000	0.006129  
2777.000000	0.006050  
2776.000000	0.005810  
2775.000000	0.005489  
2774.000000	0.005241  
2773.000000	0.005169  
2772.000000	0.005240  
2771.000000	0.005321  
2770.000000	0.005301  
2769.000000	0.005179  
2768.000000	0.005028  
2767.000000	0.004903  
2766.000000	0.004812  
2765.000000	0.004763  
2764.000000	0.004779  
2763.000000	0.004853  
2762.000000	0.004927  
2761.000000	0.004935  
2760.000000	0.004861  
2759.000000	0.004741  
2758.000000	0.004623  
2757.000000	0.004538  
2756.000000	0.004516  
2755.000000	0.004572  
2754.000000	0.004669  
2753.000000	0.004736  
2752.000000	0.004725  
2751.000000	0.004662  
2750.000000	0.004614  
2749.000000	0.004616  
2748.000000	0.004628  
2747.000000	0.004582  
2746.000000	0.004454  
2745.000000	0.004301  
2744.000000	0.004216  
2743.000000	0.004244  
2742.000000	0.004342  
2741.000000	0.004437  
2740.000000	0.004505  
2739.000000	0.004573  
2738.000000	0.004668  
2737.000000	0.004777  
2736.000000	0.004887  
2735.000000	0.005013  
2734.000000	0.005164  
2733.000000	0.005294  
2732.000000	0.005323  
2731.000000	0.005222  
2730.000000	0.005063  
2729.000000	0.004973  
2728.000000	0.005026  
2727.000000	0.005174  
2726.000000	0.005289  
2725.000000	0.005276  
2724.000000	0.005156  
2723.000000	0.005027  
2722.000000	0.004961  
2721.000000	0.004950  
2720.000000	0.004946  
2719.000000	0.004931  
2718.000000	0.004904  
2717.000000	0.004859  
2716.000000	0.004790  
2715.000000	0.004714  
2714.000000	0.004641  
2713.000000	0.004541  
2712.000000	0.004380  
2711.000000	0.004196  
2710.000000	0.004084  
2709.000000	0.004095  
2708.000000	0.004177  
2707.000000	0.004243  
2706.000000	0.004246  
2705.000000	0.004182  
2704.000000	0.004055  
2703.000000	0.003879  
2702.000000	0.003701  
2701.000000	0.003573  
2700.000000	0.003498  
2699.000000	0.003445  
2698.000000	0.003410  
2697.000000	0.003433  
2696.000000	0.003545  
2695.000000	0.003718  
2694.000000	0.003888  
2693.000000	0.003998  
2692.000000	0.004027  
2691.000000	0.003996  
2690.000000	0.003974  
2689.000000	0.004041  
2688.000000	0.004209  
2687.000000	0.004395  
2686.000000	0.004490  
2685.000000	0.004475  
2684.000000	0.004424  
2683.000000	0.004413  
2682.000000	0.004448  
2681.000000	0.004487  
2680.000000	0.004502  
2679.000000	0.004498  
2678.000000	0.004491  
2677.000000	0.004501  
2676.000000	0.004553  
2675.000000	0.004651  
2674.000000	0.004756  
2673.000000	0.004807  
2672.000000	0.004775  
2671.000000	0.004674  
2670.000000	0.004545  
2669.000000	0.004437  
2668.000000	0.004400  
2667.000000	0.004466  
2666.000000	0.004609  
2665.000000	0.004754  
2664.000000	0.004820  
2663.000000	0.004769  
2662.000000	0.004606  
2661.000000	0.004369  
2660.000000	0.004137  
2659.000000	0.003987  
2658.000000	0.003935  
2657.000000	0.003931  
2656.000000	0.003934  
2655.000000	0.003961  
2654.000000	0.004025  
2653.000000	0.004067  
2652.000000	0.004017  
2651.000000	0.003897  
2650.000000	0.003818  
2649.000000	0.003850  
2648.000000	0.003942  
2647.000000	0.004000  
2646.000000	0.003985  
2645.000000	0.003924  
2644.000000	0.003860  
2643.000000	0.003837  
2642.000000	0.003883  
2641.000000	0.003983  
2640.000000	0.004060  
2639.000000	0.004035  
2638.000000	0.003889  
2637.000000	0.003679  
2636.000000	0.003492  
2635.000000	0.003411  
2634.000000	0.003471  
2633.000000	0.003638  
2632.000000	0.003819  
2631.000000	0.003929  
2630.000000	0.003943  
2629.000000	0.003894  
2628.000000	0.003835  
2627.000000	0.003815  
2626.000000	0.003856  
2625.000000	0.003915  
2624.000000	0.003897  
2623.000000	0.003742  
2622.000000	0.003493  
2621.000000	0.003258  
2620.000000	0.003115  
2619.000000	0.003071  
2618.000000	0.003102  
2617.000000	0.003183  
2616.000000	0.003282  
2615.000000	0.003358  
2614.000000	0.003399  
2613.000000	0.003428  
2612.000000	0.003471  
2611.000000	0.003532  
2610.000000	0.003595  
2609.000000	0.003654  
2608.000000	0.003704  
2607.000000	0.003733  
2606.000000	0.003717  
2605.000000	0.003630  
2604.000000	0.003468  
2603.000000	0.003280  
2602.000000	0.003160  
2601.000000	0.003176  
2600.000000	0.003299  
2599.000000	0.003407  
2598.000000	0.003383  
2597.000000	0.003229  
2596.000000	0.003067  
2595.000000	0.003022  
2594.000000	0.003096  
2593.000000	0.003163  
2592.000000	0.003103  
2591.000000	0.002926  
2590.000000	0.002736  
2589.000000	0.002607  
2588.000000	0.002533  
2587.000000	0.002492  
2586.000000	0.002506  
2585.000000	0.002578  
2584.000000	0.002638  
2583.000000	0.002610  
2582.000000	0.002517  
2581.000000	0.002457  
2580.000000	0.002486  
2579.000000	0.002579  
2578.000000	0.002699  
2577.000000	0.002835  
2576.000000	0.002961  
2575.000000	0.002996  
2574.000000	0.002889  
2573.000000	0.002699  
2572.000000	0.002561  
2571.000000	0.002551  
2570.000000	0.002623  
2569.000000	0.002671  
2568.000000	0.002629  
2567.000000	0.002509  
2566.000000	0.002365  
2565.000000	0.002245  
2564.000000	0.002156  
2563.000000	0.002086  
2562.000000	0.002031  
2561.000000	0.002013  
2560.000000	0.002046  
2559.000000	0.002121  
2558.000000	0.002213  
2557.000000	0.002323  
2556.000000	0.002465  
2555.000000	0.002609  
2554.000000	0.002680  
2553.000000	0.002644  
2552.000000	0.002586  
2551.000000	0.002642  
2550.000000	0.002848  
2549.000000	0.003075  
2548.000000	0.003161  
2547.000000	0.003056  
2546.000000	0.002826  
2545.000000	0.002556  
2544.000000	0.002308  
2543.000000	0.002146  
2542.000000	0.002105  
2541.000000	0.002133  
2540.000000	0.002124  
2539.000000	0.002053  
2538.000000	0.002000  
2537.000000	0.002029  
2536.000000	0.002083  
2535.000000	0.002062  
2534.000000	0.001966  
2533.000000	0.001886  
2532.000000	0.001876  
2531.000000	0.001893  
2530.000000	0.001864  
2529.000000	0.001774  
2528.000000	0.001680  
2527.000000	0.001657  
2526.000000	0.001751  
2525.000000	0.001950  
2524.000000	0.002197  
2523.000000	0.002423  
2522.000000	0.002570  
2521.000000	0.002594  
2520.000000	0.002485  
2519.000000	0.002310  
2518.000000	0.002197  
2517.000000	0.002235  
2516.000000	0.002388  
2515.000000	0.002538  
2514.000000	0.002603  
2513.000000	0.002582  
2512.000000	0.002505  
2511.000000	0.002387  
2510.000000	0.002239  
2509.000000	0.002101  
2508.000000	0.002029  
2507.000000	0.002069  
2506.000000	0.002225  
2505.000000	0.002428  
2504.000000	0.002559  
2503.000000	0.002527  
2502.000000	0.002374  
2501.000000	0.002249  
2500.000000	0.002275  
2499.000000	0.002405  
2498.000000	0.002451  
2497.000000	0.002250  
2496.000000	0.001824  
2495.000000	0.001374  
2494.000000	0.001121  
2493.000000	0.001148  
2492.000000	0.001390  
2491.000000	0.001723  
2490.000000	0.002047  
2489.000000	0.002289  
2488.000000	0.002393  
2487.000000	0.002336  
2486.000000	0.002140  
2485.000000	0.001861  
2484.000000	0.001589  
2483.000000	0.001448  
2482.000000	0.001540  
2481.000000	0.001859  
2480.000000	0.002264  
2479.000000	0.002586  
2478.000000	0.002728  
2477.000000	0.002687  
2476.000000	0.002508  
2475.000000	0.002266  
2474.000000	0.002042  
2473.000000	0.001881  
2472.000000	0.001769  
2471.000000	0.001672  
2470.000000	0.001575  
2469.000000	0.001491  
2468.000000	0.001463  
2467.000000	0.001564  
2466.000000	0.001823  
2465.000000	0.002130  
2464.000000	0.002284  
2463.000000	0.002197  
2462.000000	0.001992  
2461.000000	0.001847  
2460.000000	0.001799  
2459.000000	0.001797  
2458.000000	0.001847  
2457.000000	0.001989  
2456.000000	0.002142  
2455.000000	0.002136  
2454.000000	0.001933  
2453.000000	0.001697  
2452.000000	0.001589  
2451.000000	0.001589  
2450.000000	0.001587  
2449.000000	0.001569  
2448.000000	0.001620  
2447.000000	0.001785  
2446.000000	0.001990  
2445.000000	0.002107  
2444.000000	0.002057  
2443.000000	0.001880  
2442.000000	0.001719  
2441.000000	0.001696  
2440.000000	0.001780  
2439.000000	0.001828  
2438.000000	0.001772  
2437.000000	0.001706  
2436.000000	0.001724  
2435.000000	0.001771  
2434.000000	0.001718  
2433.000000	0.001564  
2432.000000	0.001444  
2431.000000	0.001457  
2430.000000	0.001559  
2429.000000	0.001651  
2428.000000	0.001705  
2427.000000	0.001769  
2426.000000	0.001890  
2425.000000	0.002055  
2424.000000	0.002201  
2423.000000	0.002251  
2422.000000	0.002173  
2421.000000	0.002008  
2420.000000	0.001837  
2419.000000	0.001719  
2418.000000	0.001656  
2417.000000	0.001628  
2416.000000	0.001628  
2415.000000	0.001676  
2414.000000	0.001793  
2413.000000	0.001966  
2412.000000	0.002141  
2411.000000	0.002267  
2410.000000	0.002342  
2409.000000	0.002413  
2408.000000	0.002490  
2407.000000	0.002502  
2406.000000	0.002363  
2405.000000	0.002073  
2404.000000	0.001735  
2403.000000	0.001468  
2402.000000	0.001318  
2401.000000	0.001273  
2400.000000	0.001314  
2399.000000	0.001446  
2398.000000	0.001659  
2397.000000	0.001898  
2396.000000	0.002076  
2395.000000	0.002143  
2394.000000	0.002133  
2393.000000	0.002132  
2392.000000	0.002201  
2391.000000	0.002322  
2390.000000	0.002431  
2389.000000	0.002488  
2388.000000	0.002533  
2387.000000	0.002668  
2386.000000	0.003004  
2385.000000	0.003550  
2384.000000	0.004145  
2383.000000	0.004506  
2382.000000	0.004407  
2381.000000	0.003853  
2380.000000	0.003081  
2379.000000	0.002367  
2378.000000	0.001849  
2377.000000	0.001503  
2376.000000	0.001312  
2375.000000	0.001370  
2374.000000	0.001775  
2373.000000	0.002469  
2372.000000	0.003247  
2371.000000	0.003917  
2370.000000	0.004375  
2369.000000	0.004525  
2368.000000	0.004290  
2367.000000	0.003755  
2366.000000	0.003182  
2365.000000	0.002755  
2364.000000	0.002480  
2363.000000	0.002425  
2362.000000	0.002697  
2361.000000	0.003261  
2360.000000	0.004067  
2359.000000	0.004928  
2358.000000	0.005486  
2357.000000	0.005310  
2356.000000	0.004340  
2355.000000	0.003181  
2354.000000	0.002441  
2353.000000	0.002369  
2352.000000	0.002743  
2351.000000	0.003185  
2350.000000	0.003537  
2349.000000	0.003650  
2348.000000	0.003538  
2347.000000	0.003255  
2346.000000	0.003176  
2345.000000	0.003710  
2344.000000	0.004595  
2343.000000	0.005187  
2342.000000	0.004905  
2341.000000	0.004101  
2340.000000	0.003579  
2339.000000	0.003592  
2338.000000	0.003642  
2337.000000	0.003263  
2336.000000	0.002581  
2335.000000	0.002026  
2334.000000	0.001731  
2333.000000	0.001701  
2332.000000	0.002003  
2331.000000	0.002692  
2330.000000	0.003673  
2329.000000	0.004515  
2328.000000	0.005062  
2327.000000	0.005242  
2326.000000	0.005130  
2325.000000	0.004841  
2324.000000	0.004425  
2323.000000	0.004004  
2322.000000	0.003524  
2321.000000	0.003138  
2320.000000	0.003062  
2319.000000	0.003432  
2318.000000	0.004020  
2317.000000	0.004386  
2316.000000	0.004300  
2315.000000	0.003905  
2314.000000	0.003618  
2313.000000	0.003713  
2312.000000	0.004156  
2311.000000	0.004646  
2310.000000	0.004951  
2309.000000	0.005044  
2308.000000	0.005036  
2307.000000	0.004987  
2306.000000	0.004856  
2305.000000	0.004623  
2304.000000	0.004337  
2303.000000	0.004103  
2302.000000	0.003974  
2301.000000	0.003920  
2300.000000	0.003900  
2299.000000	0.003925  
2298.000000	0.004057  
2297.000000	0.004271  
2296.000000	0.004423  
2295.000000	0.004355  
2294.000000	0.004104  
2293.000000	0.003859  
2292.000000	0.003737  
2291.000000	0.003662  
2290.000000	0.003502  
2289.000000	0.003260  
2288.000000	0.002999  
2287.000000	0.002690  
2286.000000	0.002258  
2285.000000	0.001789  
2284.000000	0.001507  
2283.000000	0.001508  
2282.000000	0.001633  
2281.000000	0.001708  
2280.000000	0.001782  
2279.000000	0.002018  
2278.000000	0.002383  
2277.000000	0.002628  
2276.000000	0.002614  
2275.000000	0.002525  
2274.000000	0.002665  
2273.000000	0.003096  
2272.000000	0.003571  
2271.000000	0.003821  
2270.000000	0.003806  
2269.000000	0.003651  
2268.000000	0.003405  
2267.000000	0.002989  
2266.000000	0.002414  
2265.000000	0.001907  
2264.000000	0.001719  
2263.000000	0.001856  
2262.000000	0.002106  
2261.000000	0.002295  
2260.000000	0.002400  
2259.000000	0.002442  
2258.000000	0.002425  
2257.000000	0.002425  
2256.000000	0.002578  
2255.000000	0.002879  
2254.000000	0.003113  
2253.000000	0.003085  
2252.000000	0.002861  
2251.000000	0.002644  
2250.000000	0.002497  
2249.000000	0.002298  
2248.000000	0.001968  
2247.000000	0.001586  
2246.000000	0.001279  
2245.000000	0.001093  
2244.000000	0.001011  
2243.000000	0.001030  
2242.000000	0.001150  
2241.000000	0.001345  
2240.000000	0.001562  
2239.000000	0.001749  
2238.000000	0.001848  
2237.000000	0.001822  
2236.000000	0.001691  
2235.000000	0.001537  
2234.000000	0.001454  
2233.000000	0.001490  
2232.000000	0.001608  
2231.000000	0.001689  
2230.000000	0.001598  
2229.000000	0.001312  
2228.000000	0.000981  
2227.000000	0.000821  
2226.000000	0.000927  
2225.000000	0.001187  
2224.000000	0.001368  
2223.000000	0.001309  
2222.000000	0.001062  
2221.000000	0.000871  
2220.000000	0.000949  
2219.000000	0.001228  
2218.000000	0.001426  
2217.000000	0.001405  
2216.000000	0.001377  
2215.000000	0.001621  
2214.000000	0.002075  
2213.000000	0.002401  
2212.000000	0.002421  
2211.000000	0.002305  
2210.000000	0.002239  
2209.000000	0.002113  
2208.000000	0.001711  
2207.000000	0.001117  
2206.000000	0.000723  
2205.000000	0.000841  
2204.000000	0.001407  
2203.000000	0.002100  
2202.000000	0.002650  
2201.000000	0.002976  
2200.000000	0.003127  
2199.000000	0.003162  
2198.000000	0.003113  
2197.000000	0.003006  
2196.000000	0.002879  
2195.000000	0.002762  
2194.000000	0.002643  
2193.000000	0.002485  
2192.000000	0.002270  
2191.000000	0.002013  
2190.000000	0.001749  
2189.000000	0.001542  
2188.000000	0.001465  
2187.000000	0.001509  
2186.000000	0.001530  
2185.000000	0.001369  
2184.000000	0.001065  
2183.000000	0.000876  
2182.000000	0.001050  
2181.000000	0.001594  
2180.000000	0.002285  
2179.000000	0.002852  
2178.000000	0.003115  
2177.000000	0.003060  
2176.000000	0.002828  
2175.000000	0.002559  
2174.000000	0.002213  
2173.000000	0.001676  
2172.000000	0.001060  
2171.000000	0.000739  
2170.000000	0.000934  
2169.000000	0.001373  
2168.000000	0.001567  
2167.000000	0.001415  
2166.000000	0.001348  
2165.000000	0.001776  
2164.000000	0.002535  
2163.000000	0.003040  
2162.000000	0.002892  
2161.000000	0.002221  
2160.000000	0.001494  
2159.000000	0.001064  
2158.000000	0.000965  
2157.000000	0.001053  
2156.000000	0.001223  
2155.000000	0.001443  
2154.000000	0.001695  
2153.000000	0.001957  
2152.000000	0.002214  
2151.000000	0.002408  
2150.000000	0.002401  
2149.000000	0.002095  
2148.000000	0.001625  
2147.000000	0.001324  
2146.000000	0.001426  
2145.000000	0.001837  
2144.000000	0.002259  
2143.000000	0.002465  
2142.000000	0.002382  
2141.000000	0.002018  
2140.000000	0.001462  
2139.000000	0.000945  
2138.000000	0.000753  
2137.000000	0.000973  
2136.000000	0.001382  
2135.000000	0.001630  
2134.000000	0.001545  
2133.000000	0.001250  
2132.000000	0.001031  
2131.000000	0.001111  
2130.000000	0.001483  
2129.000000	0.001947  
2128.000000	0.002288  
2127.000000	0.002426  
2126.000000	0.002373  
2125.000000	0.002132  
2124.000000	0.001735  
2123.000000	0.001366  
2122.000000	0.001311  
2121.000000	0.001679  
2120.000000	0.002239  
2119.000000	0.002610  
2118.000000	0.002625  
2117.000000	0.002466  
2116.000000	0.002454  
2115.000000	0.002701  
2114.000000	0.002966  
2113.000000	0.002881  
2112.000000	0.002334  
2111.000000	0.001643  
2110.000000	0.001265  
2109.000000	0.001349  
2108.000000	0.001622  
2107.000000	0.001741  
2106.000000	0.001634  
2105.000000	0.001452  
2104.000000	0.001304  
2103.000000	0.001191  
2102.000000	0.001130  
2101.000000	0.001174  
2100.000000	0.001275  
2099.000000	0.001267  
2098.000000	0.001063  
2097.000000	0.000786  
2096.000000	0.000635  
2095.000000	0.000683  
2094.000000	0.000849  
2093.000000	0.001040  
2092.000000	0.001212  
2091.000000	0.001330  
2090.000000	0.001346  
2089.000000	0.001274  
2088.000000	0.001251  
2087.000000	0.001433  
2086.000000	0.001816  
2085.000000	0.002175  
2084.000000	0.002236  
2083.000000	0.001937  
2082.000000	0.001491  
2081.000000	0.001204  
2080.000000	0.001225  
2079.000000	0.001480  
2078.000000	0.001756  
2077.000000	0.001839  
2076.000000	0.001662  
2075.000000	0.001390  
2074.000000	0.001322  
2073.000000	0.001603  
2072.000000	0.002037  
2071.000000	0.002296  
2070.000000	0.002276  
2069.000000	0.002137  
2068.000000	0.002035  
2067.000000	0.001959  
2066.000000	0.001878  
2065.000000	0.001865  
2064.000000	0.001982  
2063.000000	0.002128  
2062.000000	0.002155  
2061.000000	0.002034  
2060.000000	0.001836  
2059.000000	0.001618  
2058.000000	0.001437  
2057.000000	0.001391  
2056.000000	0.001500  
2055.000000	0.001586  
2054.000000	0.001446  
2053.000000	0.001120  
2052.000000	0.000857  
2051.000000	0.000818  
2050.000000	0.000961  
2049.000000	0.001229  
2048.000000	0.001639  
2047.000000	0.002089  
2046.000000	0.002266  
2045.000000	0.001968  
2044.000000	0.001415  
2043.000000	0.001036  
2042.000000	0.001006  
2041.000000	0.001160  
2040.000000	0.001327  
2039.000000	0.001531  
2038.000000	0.001791  
2037.000000	0.001955  
2036.000000	0.001899  
2035.000000	0.001762  
2034.000000	0.001804  
2033.000000	0.002060  
2032.000000	0.002269  
2031.000000	0.002160  
2030.000000	0.001672  
2029.000000	0.000927  
2028.000000	0.000122  
2027.000000	-0.000524 
2026.000000	-0.000836 
2025.000000	-0.000782 
2024.000000	-0.000488 
2023.000000	-0.000063 
2022.000000	0.000483  
2021.000000	0.001102  
2020.000000	0.001591  
2019.000000	0.001760  
2018.000000	0.001642  
2017.000000	0.001428  
2016.000000	0.001218  
2015.000000	0.001005  
2014.000000	0.000895  
2013.000000	0.001093  
2012.000000	0.001513  
2011.000000	0.001628  
2010.000000	0.000955  
2009.000000	-0.000315 
2008.000000	-0.001380 
2007.000000	-0.001597 
2006.000000	-0.001023 
2005.000000	-0.000183 
2004.000000	0.000501  
2003.000000	0.000964  
2002.000000	0.001367  
2001.000000	0.001874  
2000.000000	0.002449  
1999.000000	0.002792  
1998.000000	0.002556  
1997.000000	0.001756  
1996.000000	0.000877  
1995.000000	0.000453  
1994.000000	0.000606  
1993.000000	0.001037  
1992.000000	0.001386  
1991.000000	0.001512  
1990.000000	0.001459  
1989.000000	0.001339  
1988.000000	0.001307  
1987.000000	0.001462  
1986.000000	0.001723  
1985.000000	0.001905  
1984.000000	0.001966  
1983.000000	0.002036  
1982.000000	0.002164  
1981.000000	0.002217  
1980.000000	0.002134  
1979.000000	0.002086  
1978.000000	0.002176  
1977.000000	0.002110  
1976.000000	0.001511  
1975.000000	0.000511  
1974.000000	-0.000310 
1973.000000	-0.000561 
1972.000000	-0.000392 
1971.000000	-0.000156 
1970.000000	0.000018  
1969.000000	0.000211  
1968.000000	0.000451  
1967.000000	0.000668  
1966.000000	0.000840  
1965.000000	0.001032  
1964.000000	0.001288  
1963.000000	0.001563  
1962.000000	0.001756  
1961.000000	0.001772  
1960.000000	0.001621  
1959.000000	0.001442  
1958.000000	0.001377  
1957.000000	0.001387  
1956.000000	0.001283  
1955.000000	0.000978  
1954.000000	0.000623  
1953.000000	0.000457  
1952.000000	0.000583  
1951.000000	0.000950  
1950.000000	0.001453  
1949.000000	0.001944  
1948.000000	0.002218  
1947.000000	0.002148  
1946.000000	0.001839  
1945.000000	0.001548  
1944.000000	0.001444  
1943.000000	0.001493  
1942.000000	0.001582  
1941.000000	0.001652  
1940.000000	0.001674  
1939.000000	0.001615  
1938.000000	0.001516  
1937.000000	0.001518  
1936.000000	0.001723  
1935.000000	0.002049  
1934.000000	0.002319  
1933.000000	0.002453  
1932.000000	0.002514  
1931.000000	0.002574  
1930.000000	0.002595  
1929.000000	0.002494  
1928.000000	0.002264  
1927.000000	0.001986  
1926.000000	0.001737  
1925.000000	0.001542  
1924.000000	0.001388  
1923.000000	0.001286  
1922.000000	0.001295  
1921.000000	0.001467  
1920.000000	0.001762  
1919.000000	0.002016  
1918.000000	0.002064  
1917.000000	0.001937  
1916.000000	0.001823  
1915.000000	0.001791  
1914.000000	0.001716  
1913.000000	0.001496  
1912.000000	0.001234  
1911.000000	0.001136  
1910.000000	0.001264  
1909.000000	0.001473  
1908.000000	0.001612  
1907.000000	0.001661  
1906.000000	0.001654  
1905.000000	0.001603  
1904.000000	0.001536  
1903.000000	0.001527  
1902.000000	0.001617  
1901.000000	0.001757  
1900.000000	0.001847  
1899.000000	0.001837  
1898.000000	0.001749  
1897.000000	0.001653  
1896.000000	0.001629  
1895.000000	0.001724  
1894.000000	0.001903  
1893.000000	0.002093  
1892.000000	0.002255  
1891.000000	0.002402  
1890.000000	0.002520  
1889.000000	0.002548  
1888.000000	0.002453  
1887.000000	0.002277  
1886.000000	0.002090  
1885.000000	0.001948  
1884.000000	0.001872  
1883.000000	0.001846  
1882.000000	0.001834  
1881.000000	0.001810  
1880.000000	0.001782  
1879.000000	0.001769  
1878.000000	0.001760  
1877.000000	0.001745  
1876.000000	0.001754  
1875.000000	0.001840  
1874.000000	0.002003  
1873.000000	0.002169  
1872.000000	0.002265  
1871.000000	0.002266  
1870.000000	0.002172  
1869.000000	0.001998  
1868.000000	0.001825  
1867.000000	0.001752  
1866.000000	0.001782  
1865.000000	0.001844  
1864.000000	0.001900  
1863.000000	0.001969  
1862.000000	0.002049  
1861.000000	0.002081  
1860.000000	0.002030  
1859.000000	0.001967  
1858.000000	0.001996  
1857.000000	0.002119  
1856.000000	0.002228  
1855.000000	0.002215  
1854.000000	0.002080  
1853.000000	0.001923  
1852.000000	0.001861  
1851.000000	0.001929  
1850.000000	0.002027  
1849.000000	0.001999  
1848.000000	0.001794  
1847.000000	0.001551  
1846.000000	0.001471  
1845.000000	0.001623  
1844.000000	0.001863  
1843.000000	0.002004  
1842.000000	0.002017  
1841.000000	0.001971  
1840.000000	0.001914  
1839.000000	0.001872  
1838.000000	0.001866  
1837.000000	0.001885  
1836.000000	0.001878  
1835.000000	0.001825  
1834.000000	0.001762  
1833.000000	0.001712  
1832.000000	0.001644  
1831.000000	0.001556  
1830.000000	0.001540  
1829.000000	0.001672  
1828.000000	0.001884  
1827.000000	0.002044  
1826.000000	0.002089  
1825.000000	0.002045  
1824.000000	0.002002  
1823.000000	0.002040  
1822.000000	0.002147  
1821.000000	0.002204  
1820.000000	0.002089  
1819.000000	0.001830  
1818.000000	0.001617  
1817.000000	0.001609  
1816.000000	0.001763  
1815.000000	0.001919  
1814.000000	0.001972  
1813.000000	0.001922  
1812.000000	0.001829  
1811.000000	0.001774  
1810.000000	0.001828  
1809.000000	0.001982  
1808.000000	0.002149  
1807.000000	0.002233  
1806.000000	0.002197  
1805.000000	0.002087  
1804.000000	0.001996  
1803.000000	0.002007  
1802.000000	0.002143  
1801.000000	0.002343  
1800.000000	0.002516  
1799.000000	0.002617  
1798.000000	0.002642  
1797.000000	0.002620  
1796.000000	0.002590  
1795.000000	0.002574  
1794.000000	0.002562  
1793.000000	0.002519  
1792.000000	0.002435  
1791.000000	0.002346  
1790.000000	0.002287  
1789.000000	0.002257  
1788.000000	0.002238  
1787.000000	0.002233  
1786.000000	0.002251  
1785.000000	0.002284  
1784.000000	0.002289  
1783.000000	0.002243  
1782.000000	0.002181  
1781.000000	0.002191  
1780.000000	0.002327  
1779.000000	0.002540  
1778.000000	0.002726  
1777.000000	0.002827  
1776.000000	0.002853  
1775.000000	0.002846  
1774.000000	0.002834  
1773.000000	0.002808  
1772.000000	0.002732  
1771.000000	0.002609  
1770.000000	0.002519  
1769.000000	0.002548  
1768.000000	0.002688  
1767.000000	0.002849  
1766.000000	0.002962  
1765.000000	0.003054  
1764.000000	0.003189  
1763.000000	0.003402  
1762.000000	0.003671  
1761.000000	0.003940  
1760.000000	0.004166  
1759.000000	0.004361  
1758.000000	0.004590  
1757.000000	0.004920  
1756.000000	0.005334  
1755.000000	0.005767  
1754.000000	0.006259  
1753.000000	0.006988  
1752.000000	0.008139  
1751.000000	0.009724  
1750.000000	0.011687  
1749.000000	0.014111  
1748.000000	0.017031  
1747.000000	0.020269  
1746.000000	0.023625  
1745.000000	0.026959  
1744.000000	0.029948  
1743.000000	0.032092  
1742.000000	0.033070  
1741.000000	0.032783  
1740.000000	0.031214  
1739.000000	0.028734  
1738.000000	0.026095  
1737.000000	0.023650  
1736.000000	0.021117  
1735.000000	0.018023  
1734.000000	0.014693  
1733.000000	0.012109  
1732.000000	0.010440  
1731.000000	0.009239  
1730.000000	0.008286  
1729.000000	0.007571  
1728.000000	0.007055  
1727.000000	0.006636  
1726.000000	0.006248  
1725.000000	0.005883  
1724.000000	0.005540  
1723.000000	0.005221  
1722.000000	0.004943  
1721.000000	0.004698  
1720.000000	0.004445  
1719.000000	0.004175  
1718.000000	0.003945  
1717.000000	0.003768  
1716.000000	0.003628  
1715.000000	0.003569  
1714.000000	0.003585  
1713.000000	0.003618  
1712.000000	0.003606  
1711.000000	0.003530  
1710.000000	0.003418  
1709.000000	0.003299  
1708.000000	0.003196  
1707.000000	0.003151  
1706.000000	0.003207  
1705.000000	0.003335  
1704.000000	0.003512  
1703.000000	0.003767  
1702.000000	0.004097  
1701.000000	0.004264  
1700.000000	0.004040  
1699.000000	0.003654  
1698.000000	0.003416  
1697.000000	0.003332  
1696.000000	0.003301  
1695.000000	0.003294  
1694.000000	0.003283  
1693.000000	0.003230  
1692.000000	0.003118  
1691.000000	0.002980  
1690.000000	0.002894  
1689.000000	0.002889  
1688.000000	0.002930  
1687.000000	0.002971  
1686.000000	0.002987  
1685.000000	0.002961  
1684.000000	0.002924  
1683.000000	0.002941  
1682.000000	0.003026  
1681.000000	0.003149  
1680.000000	0.003245  
1679.000000	0.003283  
1678.000000	0.003249  
1677.000000	0.003145  
1676.000000	0.003002  
1675.000000	0.002928  
1674.000000	0.003004  
1673.000000	0.003181  
1672.000000	0.003359  
1671.000000	0.003457  
1670.000000	0.003466  
1669.000000	0.003439  
1668.000000	0.003416  
1667.000000	0.003398  
1666.000000	0.003410  
1665.000000	0.003476  
1664.000000	0.003578  
1663.000000	0.003673  
1662.000000	0.003731  
1661.000000	0.003769  
1660.000000	0.003801  
1659.000000	0.003808  
1658.000000	0.003743  
1657.000000	0.003618  
1656.000000	0.003478  
1655.000000	0.003398  
1654.000000	0.003460  
1653.000000	0.003685  
1652.000000	0.003866  
1651.000000	0.003880  
1650.000000	0.003883  
1649.000000	0.003932  
1648.000000	0.004025  
1647.000000	0.004057  
1646.000000	0.003980  
1645.000000	0.003853  
1644.000000	0.003741  
1643.000000	0.003672  
1642.000000	0.003674  
1641.000000	0.003718  
1640.000000	0.003758  
1639.000000	0.003767  
1638.000000	0.003764  
1637.000000	0.003773  
1636.000000	0.003789  
1635.000000	0.003781  
1634.000000	0.003750  
1633.000000	0.003733  
1632.000000	0.003730  
1631.000000	0.003723  
1630.000000	0.003693  
1629.000000	0.003654  
1628.000000	0.003620  
1627.000000	0.003605  
1626.000000	0.003638  
1625.000000	0.003746  
1624.000000	0.003898  
1623.000000	0.003996  
1622.000000	0.003996  
1621.000000	0.003961  
1620.000000	0.003956  
1619.000000	0.003975  
1618.000000	0.003993  
1617.000000	0.004023  
1616.000000	0.004094  
1615.000000	0.004173  
1614.000000	0.004237  
1613.000000	0.004307  
1612.000000	0.004393  
1611.000000	0.004479  
1610.000000	0.004545  
1609.000000	0.004588  
1608.000000	0.004609  
1607.000000	0.004590  
1606.000000	0.004530  
1605.000000	0.004454  
1604.000000	0.004380  
1603.000000	0.004307  
1602.000000	0.004231  
1601.000000	0.004158  
1600.000000	0.004074  
1599.000000	0.003946  
1598.000000	0.003789  
1597.000000	0.003671  
1596.000000	0.003650  
1595.000000	0.003716  
1594.000000	0.003810  
1593.000000	0.003890  
1592.000000	0.003950  
1591.000000	0.003993  
1590.000000	0.004020  
1589.000000	0.004033  
1588.000000	0.004039  
1587.000000	0.004029  
1586.000000	0.004001  
1585.000000	0.003965  
1584.000000	0.003933  
1583.000000	0.003915  
1582.000000	0.003914  
1581.000000	0.003932  
1580.000000	0.003977  
1579.000000	0.004045  
1578.000000	0.004105  
1577.000000	0.004089  
1576.000000	0.003962  
1575.000000	0.003814  
1574.000000	0.003790  
1573.000000	0.003926  
1572.000000	0.004131  
1571.000000	0.004265  
1570.000000	0.004250  
1569.000000	0.004162  
1568.000000	0.004089  
1567.000000	0.004021  
1566.000000	0.003913  
1565.000000	0.003769  
1564.000000	0.003588  
1563.000000	0.003397  
1562.000000	0.003226  
1561.000000	0.003137  
1560.000000	0.003187  
1559.000000	0.003304  
1558.000000	0.003321  
1557.000000	0.003369  
1556.000000	0.003559  
1555.000000	0.003756  
1554.000000	0.003932  
1553.000000	0.003977  
1552.000000	0.003909  
1551.000000	0.003760  
1550.000000	0.003637  
1549.000000	0.003600  
1548.000000	0.003621  
1547.000000	0.003643  
1546.000000	0.003668  
1545.000000	0.003704  
1544.000000	0.003719  
1543.000000	0.003692  
1542.000000	0.003685  
1541.000000	0.003719  
1540.000000	0.003737  
1539.000000	0.003752  
1538.000000	0.003830  
1537.000000	0.003975  
1536.000000	0.004112  
1535.000000	0.004174  
1534.000000	0.004121  
1533.000000	0.004000  
1532.000000	0.003891  
1531.000000	0.003824  
1530.000000	0.003762  
1529.000000	0.003684  
1528.000000	0.003623  
1527.000000	0.003663  
1526.000000	0.003861  
1525.000000	0.004135  
1524.000000	0.004338  
1523.000000	0.004412  
1522.000000	0.004426  
1521.000000	0.004457  
1520.000000	0.004495  
1519.000000	0.004516  
1518.000000	0.004555  
1517.000000	0.004650  
1516.000000	0.004780  
1515.000000	0.004931  
1514.000000	0.005125  
1513.000000	0.005340  
1512.000000	0.005472  
1511.000000	0.005467  
1510.000000	0.005419  
1509.000000	0.005506  
1508.000000	0.005841  
1507.000000	0.006400  
1506.000000	0.007016  
1505.000000	0.007446  
1504.000000	0.007603  
1503.000000	0.007585  
1502.000000	0.007553  
1501.000000	0.007557  
1500.000000	0.007566  
1499.000000	0.007593  
1498.000000	0.007839  
1497.000000	0.008380  
1496.000000	0.008904  
1495.000000	0.009170  
1494.000000	0.009334  
1493.000000	0.009546  
1492.000000	0.009719  
1491.000000	0.009740  
1490.000000	0.009764  
1489.000000	0.010002  
1488.000000	0.010389  
1487.000000	0.010784  
1486.000000	0.011200  
1485.000000	0.011697  
1484.000000	0.012257  
1483.000000	0.012892  
1482.000000	0.013715  
1481.000000	0.014747  
1480.000000	0.015834  
1479.000000	0.016918  
1478.000000	0.018211  
1477.000000	0.019902  
1476.000000	0.021907  
1475.000000	0.024281  
1474.000000	0.027777  
1473.000000	0.033269  
1472.000000	0.040239  
1471.000000	0.047255  
1470.000000	0.053754  
1469.000000	0.059751  
1468.000000	0.065049  
1467.000000	0.069465  
1466.000000	0.073137  
1465.000000	0.076196  
1464.000000	0.078464  
1463.000000	0.079946  
1462.000000	0.081000  
1461.000000	0.081892  
1460.000000	0.082679  
1459.000000	0.083436  
1458.000000	0.084214  
1457.000000	0.084334  
1456.000000	0.083053  
1455.000000	0.080869  
1454.000000	0.078459  
1453.000000	0.075859  
1452.000000	0.073047  
1451.000000	0.070236  
1450.000000	0.067613  
1449.000000	0.065009  
1448.000000	0.062218  
1447.000000	0.059359  
1446.000000	0.056579  
1445.000000	0.053724  
1444.000000	0.050618  
1443.000000	0.047329  
1442.000000	0.044089  
1441.000000	0.041094  
1440.000000	0.038401  
1439.000000	0.035892  
1438.000000	0.033295  
1437.000000	0.030498  
1436.000000	0.027920  
1435.000000	0.025969  
1434.000000	0.024413  
1433.000000	0.022825  
1432.000000	0.021088  
1431.000000	0.019364  
1430.000000	0.017832  
1429.000000	0.016550  
1428.000000	0.015550  
1427.000000	0.014819  
1426.000000	0.014239  
1425.000000	0.013693  
1424.000000	0.013201  
1423.000000	0.012836  
1422.000000	0.012552  
1421.000000	0.012206  
1420.000000	0.011739  
1419.000000	0.011256  
1418.000000	0.010891  
1417.000000	0.010652  
1416.000000	0.010493  
1415.000000	0.010373  
1414.000000	0.010233  
1413.000000	0.010024  
1412.000000	0.009770  
1411.000000	0.009529  
1410.000000	0.009326  
1409.000000	0.009164  
1408.000000	0.009074  
1407.000000	0.009082  
1406.000000	0.009164  
1405.000000	0.009276  
1404.000000	0.009419  
1403.000000	0.009605  
1402.000000	0.009786  
1401.000000	0.009909  
1400.000000	0.010007  
1399.000000	0.010144  
1398.000000	0.010319  
1397.000000	0.010510  
1396.000000	0.010755  
1395.000000	0.011111  
1394.000000	0.011565  
1393.000000	0.012069  
1392.000000	0.012615  
1391.000000	0.013246  
1390.000000	0.014046  
1389.000000	0.015197  
1388.000000	0.016945  
1387.000000	0.019313  
1386.000000	0.021980  
1385.000000	0.024676  
1384.000000	0.027464  
1383.000000	0.030563  
1382.000000	0.034112  
1381.000000	0.038061  
1380.000000	0.042062  
1379.000000	0.045398  
1378.000000	0.047276  
1377.000000	0.047320  
1376.000000	0.045628  
1375.000000	0.042553  
1374.000000	0.038743  
1373.000000	0.035037  
1372.000000	0.031975  
1371.000000	0.029638  
1370.000000	0.027986  
1369.000000	0.027026  
1368.000000	0.026635  
1367.000000	0.026430  
1366.000000	0.025952  
1365.000000	0.024910  
1364.000000	0.023294  
1363.000000	0.021403  
1362.000000	0.019703  
1361.000000	0.018491  
1360.000000	0.017733  
1359.000000	0.017240  
1358.000000	0.016868  
1357.000000	0.016574  
1356.000000	0.016381  
1355.000000	0.016301  
1354.000000	0.016295  
1353.000000	0.016285  
1352.000000	0.016221  
1351.000000	0.016097  
1350.000000	0.015922  
1349.000000	0.015720  
1348.000000	0.015506  
1347.000000	0.015277  
1346.000000	0.015033  
1345.000000	0.014812  
1344.000000	0.014675  
1343.000000	0.014622  
1342.000000	0.014574  
1341.000000	0.014450  
1340.000000	0.014228  
1339.000000	0.013936  
1338.000000	0.013614  
1337.000000	0.013288  
1336.000000	0.012980  
1335.000000	0.012701  
1334.000000	0.012438  
1333.000000	0.012179  
1332.000000	0.011951  
1331.000000	0.011788  
1330.000000	0.011678  
1329.000000	0.011581  
1328.000000	0.011485  
1327.000000	0.011404  
1326.000000	0.011345  
1325.000000	0.011314  
1324.000000	0.011323  
1323.000000	0.011373  
1322.000000	0.011429  
1321.000000	0.011459  
1320.000000	0.011473  
1319.000000	0.011513  
1318.000000	0.011592  
1317.000000	0.011686  
1316.000000	0.011776  
1315.000000	0.011871  
1314.000000	0.011991  
1313.000000	0.012134  
1312.000000	0.012290  
1311.000000	0.012452  
1310.000000	0.012619  
1309.000000	0.012784  
1308.000000	0.012936  
1307.000000	0.013065  
1306.000000	0.013155  
1305.000000	0.013190  
1304.000000	0.013168  
1303.000000	0.013099  
1302.000000	0.013011  
1301.000000	0.012932  
1300.000000	0.012873  
1299.000000	0.012815  
1298.000000	0.012731  
1297.000000	0.012617  
1296.000000	0.012492  
1295.000000	0.012362  
1294.000000	0.012204  
1293.000000	0.011998  
1292.000000	0.011772  
1291.000000	0.011587  
1290.000000	0.011482  
1289.000000	0.011447  
1288.000000	0.011453  
1287.000000	0.011489  
1286.000000	0.011564  
1285.000000	0.011678  
1284.000000	0.011805  
1283.000000	0.011909  
1282.000000	0.011971  
1281.000000	0.012004  
1280.000000	0.012038  
1279.000000	0.012101  
1278.000000	0.012195  
1277.000000	0.012311  
1276.000000	0.012433  
1275.000000	0.012548  
1274.000000	0.012648  
1273.000000	0.012742  
1272.000000	0.012837  
1271.000000	0.012921  
1270.000000	0.012973  
1269.000000	0.012990  
1268.000000	0.012991  
1267.000000	0.012978  
1266.000000	0.012920  
1265.000000	0.012805  
1264.000000	0.012673  
1263.000000	0.012599  
1262.000000	0.012624  
1261.000000	0.012722  
1260.000000	0.012832  
1259.000000	0.012907  
1258.000000	0.012934  
1257.000000	0.012919  
1256.000000	0.012876  
1255.000000	0.012834  
1254.000000	0.012842  
1253.000000	0.012947  
1252.000000	0.013154  
1251.000000	0.013405  
1250.000000	0.013622  
1249.000000	0.013783  
1248.000000	0.013931  
1247.000000	0.014112  
1246.000000	0.014318  
1245.000000	0.014489  
1244.000000	0.014573  
1243.000000	0.014559  
1242.000000	0.014470  
1241.000000	0.014344  
1240.000000	0.014208  
1239.000000	0.014068  
1238.000000	0.013912  
1237.000000	0.013732  
1236.000000	0.013550  
1235.000000	0.013393  
1234.000000	0.013250  
1233.000000	0.013082  
1232.000000	0.012872  
1231.000000	0.012645  
1230.000000	0.012434  
1229.000000	0.012241  
1228.000000	0.012057  
1227.000000	0.011905  
1226.000000	0.011813  
1225.000000	0.011771  
1224.000000	0.011737  
1223.000000	0.011689  
1222.000000	0.011635  
1221.000000	0.011575  
1220.000000	0.011489  
1219.000000	0.011383  
1218.000000	0.011319  
1217.000000	0.011361  
1216.000000	0.011501  
1215.000000	0.011658  
1214.000000	0.011753  
1213.000000	0.011765  
1212.000000	0.011737  
1211.000000	0.011737  
1210.000000	0.011814  
1209.000000	0.011952  
1208.000000	0.012073  
1207.000000	0.012122  
1206.000000	0.012132  
1205.000000	0.012186  
1204.000000	0.012317  
1203.000000	0.012482  
1202.000000	0.012639  
1201.000000	0.012800  
1200.000000	0.012997  
1199.000000	0.013236  
1198.000000	0.013511  
1197.000000	0.013827  
1196.000000	0.014185  
1195.000000	0.014567  
1194.000000	0.014962  
1193.000000	0.015384  
1192.000000	0.015828  
1191.000000	0.016244  
1190.000000	0.016584  
1189.000000	0.016865  
1188.000000	0.017147  
1187.000000	0.017463  
1186.000000	0.017814  
1185.000000	0.018206  
1184.000000	0.018652  
1183.000000	0.019144  
1182.000000	0.019644  
1181.000000	0.020110  
1180.000000	0.020518  
1179.000000	0.020851  
1178.000000	0.021117  
1177.000000	0.021357  
1176.000000	0.021603  
1175.000000	0.021844  
1174.000000	0.022036  
1173.000000	0.022157  
1172.000000	0.022213  
1171.000000	0.022204  
1170.000000	0.022118  
1169.000000	0.021946  
1168.000000	0.021695  
1167.000000	0.021376  
1166.000000	0.021003  
1165.000000	0.020591  
1164.000000	0.020146  
1163.000000	0.019663  
1162.000000	0.019162  
1161.000000	0.018699  
1160.000000	0.018321  
1159.000000	0.017995  
1158.000000	0.017646  
1157.000000	0.017248  
1156.000000	0.016847  
1155.000000	0.016480  
1154.000000	0.016123  
1153.000000	0.015733  
1152.000000	0.015311  
1151.000000	0.014908  
1150.000000	0.014588  
1149.000000	0.014378  
1148.000000	0.014254  
1147.000000	0.014143  
1146.000000	0.013973  
1145.000000	0.013714  
1144.000000	0.013386  
1143.000000	0.013017  
1142.000000	0.012633  
1141.000000	0.012269  
1140.000000	0.011957  
1139.000000	0.011692  
1138.000000	0.011459  
1137.000000	0.011278  
1136.000000	0.011177  
1135.000000	0.011109  
1134.000000	0.010979  
1133.000000	0.010752  
1132.000000	0.010506  
1131.000000	0.010337  
1130.000000	0.010260  
1129.000000	0.010248  
1128.000000	0.010300  
1127.000000	0.010423  
1126.000000	0.010573  
1125.000000	0.010693  
1124.000000	0.010772  
1123.000000	0.010838  
1122.000000	0.010893  
1121.000000	0.010925  
1120.000000	0.010952  
1119.000000	0.010996  
1118.000000	0.011032  
1117.000000	0.011011  
1116.000000	0.010927  
1115.000000	0.010821  
1114.000000	0.010715  
1113.000000	0.010593  
1112.000000	0.010456  
1111.000000	0.010329  
1110.000000	0.010213  
1109.000000	0.010081  
1108.000000	0.009945  
1107.000000	0.009882  
1106.000000	0.009945  
1105.000000	0.010079  
1104.000000	0.010160  
1103.000000	0.010116  
1102.000000	0.009990  
1101.000000	0.009900  
1100.000000	0.009935  
1099.000000	0.010085  
1098.000000	0.010261  
1097.000000	0.010390  
1096.000000	0.010488  
1095.000000	0.010604  
1094.000000	0.010720  
1093.000000	0.010757  
1092.000000	0.010693  
1091.000000	0.010596  
1090.000000	0.010528  
1089.000000	0.010454  
1088.000000	0.010302  
1087.000000	0.010081  
1086.000000	0.009890  
1085.000000	0.009798  
1084.000000	0.009775  
1083.000000	0.009736  
1082.000000	0.009634  
1081.000000	0.009503  
1080.000000	0.009425  
1079.000000	0.009468  
1078.000000	0.009640  
1077.000000	0.009887  
1076.000000	0.010148  
1075.000000	0.010406  
1074.000000	0.010661  
1073.000000	0.010883  
1072.000000	0.011015  
1071.000000	0.011046  
1070.000000	0.011049  
1069.000000	0.011107  
1068.000000	0.011220  
1067.000000	0.011297  
1066.000000	0.011273  
1065.000000	0.011192  
1064.000000	0.011149  
1063.000000	0.011163  
1062.000000	0.011135  
1061.000000	0.010965  
1060.000000	0.010672  
1059.000000	0.010387  
1058.000000	0.010223  
1057.000000	0.010186  
1056.000000	0.010206  
1055.000000	0.010224  
1054.000000	0.010199  
1053.000000	0.010070  
1052.000000	0.009791  
1051.000000	0.009430  
1050.000000	0.009175  
1049.000000	0.009165  
1048.000000	0.009335  
1047.000000	0.009495  
1046.000000	0.009531  
1045.000000	0.009480  
1044.000000	0.009447  
1043.000000	0.009503  
1042.000000	0.009659  
1041.000000	0.009876  
1040.000000	0.010071  
1039.000000	0.010151  
1038.000000	0.010091  
1037.000000	0.009959  
1036.000000	0.009864  
1035.000000	0.009878  
1034.000000	0.010010  
1033.000000	0.010227  
1032.000000	0.010458  
1031.000000	0.010613  
1030.000000	0.010651  
1029.000000	0.010615  
1028.000000	0.010591  
1027.000000	0.010624  
1026.000000	0.010694  
1025.000000	0.010746  
1024.000000	0.010738  
1023.000000	0.010651  
1022.000000	0.010509  
1021.000000	0.010368  
1020.000000	0.010256  
1019.000000	0.010146  
1018.000000	0.010009  
1017.000000	0.009884  
1016.000000	0.009839  
1015.000000	0.009876  
1014.000000	0.009910  
1013.000000	0.009861  
1012.000000	0.009733  
1011.000000	0.009585  
1010.000000	0.009475  
1009.000000	0.009433  
1008.000000	0.009454  
1007.000000	0.009502  
1006.000000	0.009526  
1005.000000	0.009514  
1004.000000	0.009492  
1003.000000	0.009479  
1002.000000	0.009466  
1001.000000	0.009438  
1000.000000	0.009372  
999.000000	 0.009225  
998.000000	 0.008980  
997.000000	 0.008717  
996.000000	 0.008583  
995.000000	 0.008651  
994.000000	 0.008839  
993.000000	 0.008995  
992.000000	 0.009034  
991.000000	 0.008987  
990.000000	 0.008947  
989.000000	 0.009005  
988.000000	 0.009177  
987.000000	 0.009374  
986.000000	 0.009465  
985.000000	 0.009412  
984.000000	 0.009319  
983.000000	 0.009308  
982.000000	 0.009390  
981.000000	 0.009490  
980.000000	 0.009573  
979.000000	 0.009680  
978.000000	 0.009853  
977.000000	 0.010077  
976.000000	 0.010300  
975.000000	 0.010478  
974.000000	 0.010595  
973.000000	 0.010671  
972.000000	 0.010752  
971.000000	 0.010882  
970.000000	 0.011053  
969.000000	 0.011225  
968.000000	 0.011357  
967.000000	 0.011418  
966.000000	 0.011377  
965.000000	 0.011224  
964.000000	 0.011012  
963.000000	 0.010828  
962.000000	 0.010724  
961.000000	 0.010686  
960.000000	 0.010663  
959.000000	 0.010615  
958.000000	 0.010535  
957.000000	 0.010450  
956.000000	 0.010407  
955.000000	 0.010427  
954.000000	 0.010475  
953.000000	 0.010493  
952.000000	 0.010473  
951.000000	 0.010452  
950.000000	 0.010457  
949.000000	 0.010475  
948.000000	 0.010488  
947.000000	 0.010506  
946.000000	 0.010546  
945.000000	 0.010590  
944.000000	 0.010599  
943.000000	 0.010553  
942.000000	 0.010461  
941.000000	 0.010339  
940.000000	 0.010183  
939.000000	 0.009978  
938.000000	 0.009730  
937.000000	 0.009484  
936.000000	 0.009289  
935.000000	 0.009154  
934.000000	 0.009058  
933.000000	 0.009013  
932.000000	 0.009067  
931.000000	 0.009213  
930.000000	 0.009346  
929.000000	 0.009353  
928.000000	 0.009250  
927.000000	 0.009160  
926.000000	 0.009166  
925.000000	 0.009236  
924.000000	 0.009300  
923.000000	 0.009349  
922.000000	 0.009412  
921.000000	 0.009481  
920.000000	 0.009506  
919.000000	 0.009463  
918.000000	 0.009392  
917.000000	 0.009357  
916.000000	 0.009391  
915.000000	 0.009474  
914.000000	 0.009546  
913.000000	 0.009549  
912.000000	 0.009450  
911.000000	 0.009269  
910.000000	 0.009077  
909.000000	 0.008974  
908.000000	 0.009009  
907.000000	 0.009118  
906.000000	 0.009174  
905.000000	 0.009120  
904.000000	 0.009040  
903.000000	 0.009053  
902.000000	 0.009165  
901.000000	 0.009274  
900.000000	 0.009310  
899.000000	 0.009320  
898.000000	 0.009379  
897.000000	 0.009479  
896.000000	 0.009545  
895.000000	 0.009531  
894.000000	 0.009471  
893.000000	 0.009436  
892.000000	 0.009475  
891.000000	 0.009589  
890.000000	 0.009738  
889.000000	 0.009865  
888.000000	 0.009933  
887.000000	 0.009939  
886.000000	 0.009908  
885.000000	 0.009865  
884.000000	 0.009812  
883.000000	 0.009729  
882.000000	 0.009608  
881.000000	 0.009481  
880.000000	 0.009402  
879.000000	 0.009394  
878.000000	 0.009415  
877.000000	 0.009413  
876.000000	 0.009392  
875.000000	 0.009395  
874.000000	 0.009419  
873.000000	 0.009381  
872.000000	 0.009202  
871.000000	 0.008930  
870.000000	 0.008736  
869.000000	 0.008777  
868.000000	 0.009035  
867.000000	 0.009304  
866.000000	 0.009359  
865.000000	 0.009156  
864.000000	 0.008857  
863.000000	 0.008666  
862.000000	 0.008658  
861.000000	 0.008776  
860.000000	 0.008933  
859.000000	 0.009070  
858.000000	 0.009145  
857.000000	 0.009140  
856.000000	 0.009110  
855.000000	 0.009178  
854.000000	 0.009422  
853.000000	 0.009787  
852.000000	 0.010128  
851.000000	 0.010347  
850.000000	 0.010457  
849.000000	 0.010526  
848.000000	 0.010578  
847.000000	 0.010588  
846.000000	 0.010541  
845.000000	 0.010471  
844.000000	 0.010413  
843.000000	 0.010361  
842.000000	 0.010285  
841.000000	 0.010189  
840.000000	 0.010121  
839.000000	 0.010116  
838.000000	 0.010157  
837.000000	 0.010179  
836.000000	 0.010089  
835.000000	 0.009808  
834.000000	 0.009348  
833.000000	 0.008869  
832.000000	 0.008595  
831.000000	 0.008619  
830.000000	 0.008816  
829.000000	 0.008986  
828.000000	 0.009069  
827.000000	 0.009167  
826.000000	 0.009368  
825.000000	 0.009634  
824.000000	 0.009855  
823.000000	 0.009948  
822.000000	 0.009903  
821.000000	 0.009801  
820.000000	 0.009791  
819.000000	 0.009976  
818.000000	 0.010317  
817.000000	 0.010683  
816.000000	 0.010964  
815.000000	 0.011114  
814.000000	 0.011109  
813.000000	 0.010948  
812.000000	 0.010714  
811.000000	 0.010577  
810.000000	 0.010666  
809.000000	 0.010963  
808.000000	 0.011330  
807.000000	 0.011630  
806.000000	 0.011790  
805.000000	 0.011793  
804.000000	 0.011641  
803.000000	 0.011349  
802.000000	 0.010964  
801.000000	 0.010570  
800.000000	 0.010251  
799.000000	 0.010027  
798.000000	 0.009839  
797.000000	 0.009623  
796.000000	 0.009378  
795.000000	 0.009135  
794.000000	 0.008911  
793.000000	 0.008729  
792.000000	 0.008673  
791.000000	 0.008825  
790.000000	 0.009132  
789.000000	 0.009398  
788.000000	 0.009476  
787.000000	 0.009431  
786.000000	 0.009477  
785.000000	 0.009749  
784.000000	 0.010179  
783.000000	 0.010598  
782.000000	 0.010912  
781.000000	 0.011158  
780.000000	 0.011411  
779.000000	 0.011682  
778.000000	 0.011929  
777.000000	 0.012150  
776.000000	 0.012410  
775.000000	 0.012775  
774.000000	 0.013240  
773.000000	 0.013741  
772.000000	 0.014220  
771.000000	 0.014629  
770.000000	 0.014915  
769.000000	 0.015049  
768.000000	 0.015056  
767.000000	 0.014978  
766.000000	 0.014803  
765.000000	 0.014485  
764.000000	 0.014060  
763.000000	 0.013693  
762.000000	 0.013566  
761.000000	 0.013711  
760.000000	 0.013987  
759.000000	 0.014215  
758.000000	 0.014335  
757.000000	 0.014426  
756.000000	 0.014594  
755.000000	 0.014844  
754.000000	 0.015081  
753.000000	 0.015225  
752.000000	 0.015292  
751.000000	 0.015354  
750.000000	 0.015449  
749.000000	 0.015595  
748.000000	 0.015858  
747.000000	 0.016353  
746.000000	 0.017190  
745.000000	 0.018401  
744.000000	 0.019913  
743.000000	 0.021504  
742.000000	 0.022829  
741.000000	 0.023588  
740.000000	 0.023750  
739.000000	 0.023566  
738.000000	 0.023328  
737.000000	 0.023146  
736.000000	 0.022969  
735.000000	 0.022760  
734.000000	 0.022603  
733.000000	 0.022635  
732.000000	 0.022905  
731.000000	 0.023318  
730.000000	 0.023741  
729.000000	 0.024197  
728.000000	 0.024890  
727.000000	 0.025976  
726.000000	 0.027352  
725.000000	 0.028703  
724.000000	 0.029780  
723.000000	 0.030526  
722.000000	 0.030908  
721.000000	 0.030698  
720.000000	 0.029603  
719.000000	 0.027672  
718.000000	 0.025392  
717.000000	 0.023325  
716.000000	 0.021787  
715.000000	 0.020754  
714.000000	 0.019961  
713.000000	 0.019132  
712.000000	 0.018199  
711.000000	 0.017322  
710.000000	 0.016704  
709.000000	 0.016416  
708.000000	 0.016368  
707.000000	 0.016411  
706.000000	 0.016478  
705.000000	 0.016607  
704.000000	 0.016829  
703.000000	 0.017089  
702.000000	 0.017297  
701.000000	 0.017430  
700.000000	 0.017550  
699.000000	 0.017638  
698.000000	 0.017490  
697.000000	 0.016875  
696.000000	 0.015859  
695.000000	 0.014884  
694.000000	 0.014358  
693.000000	 0.014190  
692.000000	 0.013877  
691.000000	 0.013061  
690.000000	 0.011936  
689.000000	 0.011000  
688.000000	 0.010459  
687.000000	 0.010089  
686.000000	 0.009652  
685.000000	 0.009201  
684.000000	 0.008913  
683.000000	 0.008817  
682.000000	 0.008830  
681.000000	 0.008894  
680.000000	 0.008941  
679.000000	 0.008819  
678.000000	 0.008484  
677.000000	 0.008214  
676.000000	 0.008185  
675.000000	 0.008243  
674.000000	 0.008162  
673.000000	 0.007836  
672.000000	 0.006962  
671.000000	 0.004669  
670.000000	 0.000179  
669.000000	 -0.006364 
668.000000	 -0.011428 
667.000000	 -0.009360 
666.000000	 -0.002951 
665.000000	 0.002235  
664.000000	 0.005156  
663.000000	 0.006615  
662.000000	 0.007247  
661.000000	 0.007239  
660.000000	 0.006897  
659.000000	 0.006747  
658.000000	 0.006918  
657.000000	 0.006966  
656.000000	 0.006399  
655.000000	 0.005451  
654.000000	 0.004916  
653.000000	 0.005228  
652.000000	 0.005998  
651.000000	 0.006515  
650.000000	 0.006501  

