PE IR                   SPECTRUM    ASCII       PEDS        1.60        
  -1
NB4-20~1.ASC
17/04/10
13:45:28.00
17/04/10
13:45:28.00
Admin

650.000000
6









SPECTRUM ONE,CPU32 MAIN 00.02.5000 17-APRIL-2002 13:00:00
MIR TGS
MIR
OPTKBR
68128
0.200000

4.000000
STRONG
RATIO
SPECTRUM
MAGNITUDE

DOUBLE

COMBINED


0


#HDR
-1
-1
#GR
CM-1
A
0.00000011920928955078
0.0
4000.000000
-1.000000
3351
8
0.210371
-0.016596
#DATA
4000.000000	0.002094  
3999.000000	0.002040  
3998.000000	0.002054  
3997.000000	0.001965  
3996.000000	0.002112  
3995.000000	0.002299  
3994.000000	0.002453  
3993.000000	0.002512  
3992.000000	0.002451  
3991.000000	0.002296  
3990.000000	0.002113  
3989.000000	0.001962  
3988.000000	0.001865  
3987.000000	0.001819  
3986.000000	0.001828  
3985.000000	0.001903  
3984.000000	0.002011  
3983.000000	0.002067  
3982.000000	0.001999  
3981.000000	0.001821  
3980.000000	0.001643  
3979.000000	0.001577  
3978.000000	0.001650  
3977.000000	0.001806  
3976.000000	0.001966  
3975.000000	0.002090  
3974.000000	0.002167  
3973.000000	0.002183  
3972.000000	0.002125  
3971.000000	0.002012  
3970.000000	0.001908  
3969.000000	0.001867  
3968.000000	0.001884  
3967.000000	0.001903  
3966.000000	0.001881  
3965.000000	0.001838  
3964.000000	0.001837  
3963.000000	0.001920  
3962.000000	0.002061  
3961.000000	0.002183  
3960.000000	0.002220  
3959.000000	0.002157  
3958.000000	0.002035  
3957.000000	0.001912  
3956.000000	0.001826  
3955.000000	0.001783  
3954.000000	0.001773  
3953.000000	0.001793  
3952.000000	0.001844  
3951.000000	0.001919  
3950.000000	0.002006  
3949.000000	0.002102  
3948.000000	0.002211  
3947.000000	0.002316  
3946.000000	0.002367  
3945.000000	0.002306  
3944.000000	0.002130  
3943.000000	0.001909  
3942.000000	0.001729  
3941.000000	0.001632  
3940.000000	0.001624  
3939.000000	0.001704  
3938.000000	0.001861  
3937.000000	0.002045  
3936.000000	0.002177  
3935.000000	0.002217  
3934.000000	0.002201  
3933.000000	0.002197  
3932.000000	0.002228  
3931.000000	0.002248  
3930.000000	0.002219  
3929.000000	0.002154  
3928.000000	0.002112  
3927.000000	0.002145  
3926.000000	0.002259  
3925.000000	0.002409  
3924.000000	0.002538  
3923.000000	0.002618  
3922.000000	0.002667  
3921.000000	0.002712  
3920.000000	0.002759  
3919.000000	0.002781  
3918.000000	0.002747  
3917.000000	0.002661  
3916.000000	0.002572  
3915.000000	0.002524  
3914.000000	0.002520  
3913.000000	0.002516  
3912.000000	0.002462  
3911.000000	0.002356  
3910.000000	0.002256  
3909.000000	0.002233  
3908.000000	0.002304  
3907.000000	0.002423  
3906.000000	0.002522  
3905.000000	0.002586  
3904.000000	0.002634  
3903.000000	0.002649  
3902.000000	0.002589  
3901.000000	0.002475  
3900.000000	0.002404  
3899.000000	0.002446  
3898.000000	0.002556  
3897.000000	0.002636  
3896.000000	0.002633  
3895.000000	0.002565  
3894.000000	0.002479  
3893.000000	0.002410  
3892.000000	0.002366  
3891.000000	0.002326  
3890.000000	0.002274  
3889.000000	0.002216  
3888.000000	0.002167  
3887.000000	0.002135  
3886.000000	0.002148  
3885.000000	0.002215  
3884.000000	0.002300  
3883.000000	0.002341  
3882.000000	0.002307  
3881.000000	0.002236  
3880.000000	0.002197  
3879.000000	0.002222  
3878.000000	0.002296  
3877.000000	0.002395  
3876.000000	0.002507  
3875.000000	0.002660  
3874.000000	0.002892  
3873.000000	0.003173  
3872.000000	0.003404  
3871.000000	0.003511  
3870.000000	0.003512  
3869.000000	0.003456  
3868.000000	0.003368  
3867.000000	0.003244  
3866.000000	0.003063  
3865.000000	0.002835  
3864.000000	0.002628  
3863.000000	0.002511  
3862.000000	0.002486  
3861.000000	0.002480  
3860.000000	0.002426  
3859.000000	0.002350  
3858.000000	0.002350  
3857.000000	0.002486  
3856.000000	0.002665  
3855.000000	0.002707  
3854.000000	0.002679  
3853.000000	0.002756  
3852.000000	0.002883  
3851.000000	0.002961  
3850.000000	0.003000  
3849.000000	0.003031  
3848.000000	0.003072  
3847.000000	0.003118  
3846.000000	0.003163  
3845.000000	0.003236  
3844.000000	0.003381  
3843.000000	0.003590  
3842.000000	0.003808  
3841.000000	0.003965  
3840.000000	0.004018  
3839.000000	0.003945  
3838.000000	0.003762  
3837.000000	0.003536  
3836.000000	0.003375  
3835.000000	0.003343  
3834.000000	0.003417  
3833.000000	0.003486  
3832.000000	0.003444  
3831.000000	0.003280  
3830.000000	0.003080  
3829.000000	0.002931  
3828.000000	0.002856  
3827.000000	0.002827  
3826.000000	0.002846  
3825.000000	0.002966  
3824.000000	0.003232  
3823.000000	0.003588  
3822.000000	0.003904  
3821.000000	0.004037  
3820.000000	0.003894  
3819.000000	0.003509  
3818.000000	0.003032  
3817.000000	0.002646  
3816.000000	0.002472  
3815.000000	0.002464  
3814.000000	0.002488  
3813.000000	0.002462  
3812.000000	0.002386  
3811.000000	0.002301  
3810.000000	0.002244  
3809.000000	0.002231  
3808.000000	0.002287  
3807.000000	0.002439  
3806.000000	0.002678  
3805.000000	0.002967  
3804.000000	0.003239  
3803.000000	0.003380  
3802.000000	0.003339  
3801.000000	0.003181  
3800.000000	0.003011  
3799.000000	0.002906  
3798.000000	0.002886  
3797.000000	0.002923  
3796.000000	0.002968  
3795.000000	0.002970  
3794.000000	0.002903  
3793.000000	0.002784  
3792.000000	0.002648  
3791.000000	0.002535  
3790.000000	0.002465  
3789.000000	0.002428  
3788.000000	0.002392  
3787.000000	0.002338  
3786.000000	0.002271  
3785.000000	0.002209  
3784.000000	0.002161  
3783.000000	0.002113  
3782.000000	0.002050  
3781.000000	0.001985  
3780.000000	0.001977  
3779.000000	0.002081  
3778.000000	0.002280  
3777.000000	0.002498  
3776.000000	0.002656  
3775.000000	0.002701  
3774.000000	0.002632  
3773.000000	0.002496  
3772.000000	0.002382  
3771.000000	0.002399  
3770.000000	0.002602  
3769.000000	0.002905  
3768.000000	0.003120  
3767.000000	0.003099  
3766.000000	0.002844  
3765.000000	0.002515  
3764.000000	0.002309  
3763.000000	0.002311  
3762.000000	0.002469  
3761.000000	0.002665  
3760.000000	0.002817  
3759.000000	0.002930  
3758.000000	0.003033  
3757.000000	0.003111  
3756.000000	0.003141  
3755.000000	0.003166  
3754.000000	0.003329  
3753.000000	0.003790  
3752.000000	0.004500  
3751.000000	0.005073  
3750.000000	0.005137  
3749.000000	0.004785  
3748.000000	0.004396  
3747.000000	0.004253  
3746.000000	0.004372  
3745.000000	0.004552  
3744.000000	0.004519  
3743.000000	0.004211  
3742.000000	0.003849  
3741.000000	0.003686  
3740.000000	0.003844  
3739.000000	0.004275  
3738.000000	0.004777  
3737.000000	0.005097  
3736.000000	0.005112  
3735.000000	0.004924  
3734.000000	0.004743  
3733.000000	0.004673  
3732.000000	0.004652  
3731.000000	0.004607  
3730.000000	0.004534  
3729.000000	0.004444  
3728.000000	0.004310  
3727.000000	0.004121  
3726.000000	0.003938  
3725.000000	0.003832  
3724.000000	0.003782  
3723.000000	0.003677  
3722.000000	0.003438  
3721.000000	0.003100  
3720.000000	0.002779  
3719.000000	0.002575  
3718.000000	0.002511  
3717.000000	0.002538  
3716.000000	0.002577  
3715.000000	0.002577  
3714.000000	0.002557  
3713.000000	0.002622  
3712.000000	0.002871  
3711.000000	0.003222  
3710.000000	0.003465  
3709.000000	0.003517  
3708.000000	0.003482  
3707.000000	0.003514  
3706.000000	0.003645  
3705.000000	0.003730  
3704.000000	0.003566  
3703.000000	0.003099  
3702.000000	0.002535  
3701.000000	0.002172  
3700.000000	0.002118  
3699.000000	0.002269  
3698.000000	0.002455  
3697.000000	0.002592  
3696.000000	0.002721  
3695.000000	0.002930  
3694.000000	0.003224  
3693.000000	0.003467  
3692.000000	0.003476  
3691.000000	0.003216  
3690.000000	0.002898  
3689.000000	0.002764  
3688.000000	0.002789  
3687.000000	0.002807  
3686.000000	0.002765  
3685.000000	0.002749  
3684.000000	0.002844  
3683.000000	0.003021  
3682.000000	0.003134  
3681.000000	0.003075  
3680.000000	0.002903  
3679.000000	0.002787  
3678.000000	0.002850  
3677.000000	0.003069  
3676.000000	0.003349  
3675.000000	0.003565  
3674.000000	0.003653  
3673.000000	0.003661  
3672.000000	0.003658  
3671.000000	0.003648  
3670.000000	0.003631  
3669.000000	0.003586  
3668.000000	0.003466  
3667.000000	0.003269  
3666.000000	0.003021  
3665.000000	0.002724  
3664.000000	0.002374  
3663.000000	0.001999  
3662.000000	0.001670  
3661.000000	0.001465  
3660.000000	0.001412  
3659.000000	0.001488  
3658.000000	0.001667  
3657.000000	0.001950  
3656.000000	0.002319  
3655.000000	0.002680  
3654.000000	0.002922  
3653.000000	0.002973  
3652.000000	0.002829  
3651.000000	0.002640  
3650.000000	0.002644  
3649.000000	0.002866  
3648.000000	0.003095  
3647.000000	0.003204  
3646.000000	0.003222  
3645.000000	0.003206  
3644.000000	0.003189  
3643.000000	0.003196  
3642.000000	0.003239  
3641.000000	0.003290  
3640.000000	0.003286  
3639.000000	0.003190  
3638.000000	0.003043  
3637.000000	0.002956  
3636.000000	0.003030  
3635.000000	0.003274  
3634.000000	0.003588  
3633.000000	0.003834  
3632.000000	0.003929  
3631.000000	0.003887  
3630.000000	0.003839  
3629.000000	0.003893  
3628.000000	0.003925  
3627.000000	0.003791  
3626.000000	0.003567  
3625.000000	0.003413  
3624.000000	0.003386  
3623.000000	0.003394  
3622.000000	0.003274  
3621.000000	0.002960  
3620.000000	0.002597  
3619.000000	0.002414  
3618.000000	0.002457  
3617.000000	0.002597  
3616.000000	0.002717  
3615.000000	0.002811  
3614.000000	0.002951  
3613.000000	0.003198  
3612.000000	0.003521  
3611.000000	0.003838  
3610.000000	0.004058  
3609.000000	0.004092  
3608.000000	0.003909  
3607.000000	0.003558  
3606.000000	0.003144  
3605.000000	0.002771  
3604.000000	0.002514  
3603.000000	0.002431  
3602.000000	0.002567  
3601.000000	0.002910  
3600.000000	0.003360  
3599.000000	0.003757  
3598.000000	0.003959  
3597.000000	0.003921  
3596.000000	0.003717  
3595.000000	0.003504  
3594.000000	0.003394  
3593.000000	0.003359  
3592.000000	0.003279  
3591.000000	0.003072  
3590.000000	0.002783  
3589.000000	0.002586  
3588.000000	0.002651  
3587.000000	0.002936  
3586.000000	0.003211  
3585.000000	0.003296  
3584.000000	0.003163  
3583.000000	0.002888  
3582.000000	0.002604  
3581.000000	0.002451  
3580.000000	0.002486  
3579.000000	0.002627  
3578.000000	0.002719  
3577.000000	0.002673  
3576.000000	0.002544  
3575.000000	0.002437  
3574.000000	0.002373  
3573.000000	0.002278  
3572.000000	0.002099  
3571.000000	0.001902  
3570.000000	0.001851  
3569.000000	0.002066  
3568.000000	0.002474  
3567.000000	0.002819  
3566.000000	0.002920  
3565.000000	0.002838  
3564.000000	0.002728  
3563.000000	0.002661  
3562.000000	0.002632  
3561.000000	0.002644  
3560.000000	0.002727  
3559.000000	0.002887  
3558.000000	0.003057  
3557.000000	0.003133  
3556.000000	0.003063  
3555.000000	0.002883  
3554.000000	0.002678  
3553.000000	0.002527  
3552.000000	0.002467  
3551.000000	0.002486  
3550.000000	0.002539  
3549.000000	0.002568  
3548.000000	0.002529  
3547.000000	0.002433  
3546.000000	0.002363  
3545.000000	0.002400  
3544.000000	0.002553  
3543.000000	0.002760  
3542.000000	0.002961  
3541.000000	0.003139  
3540.000000	0.003275  
3539.000000	0.003314  
3538.000000	0.003190  
3537.000000	0.002909  
3536.000000	0.002579  
3535.000000	0.002336  
3534.000000	0.002250  
3533.000000	0.002307  
3532.000000	0.002460  
3531.000000	0.002658  
3530.000000	0.002858  
3529.000000	0.003017  
3528.000000	0.003105  
3527.000000	0.003107  
3526.000000	0.003009  
3525.000000	0.002815  
3524.000000	0.002581  
3523.000000	0.002417  
3522.000000	0.002405  
3521.000000	0.002526  
3520.000000	0.002681  
3519.000000	0.002787  
3518.000000	0.002849  
3517.000000	0.002914  
3516.000000	0.003007  
3515.000000	0.003112  
3514.000000	0.003202  
3513.000000	0.003270  
3512.000000	0.003313  
3511.000000	0.003329  
3510.000000	0.003325  
3509.000000	0.003317  
3508.000000	0.003307  
3507.000000	0.003281  
3506.000000	0.003235  
3505.000000	0.003185  
3504.000000	0.003156  
3503.000000	0.003152  
3502.000000	0.003159  
3501.000000	0.003162  
3500.000000	0.003170  
3499.000000	0.003209  
3498.000000	0.003298  
3497.000000	0.003416  
3496.000000	0.003507  
3495.000000	0.003522  
3494.000000	0.003455  
3493.000000	0.003320  
3492.000000	0.003118  
3491.000000	0.002865  
3490.000000	0.002634  
3489.000000	0.002524  
3488.000000	0.002583  
3487.000000	0.002781  
3486.000000	0.003059  
3485.000000	0.003350  
3484.000000	0.003564  
3483.000000	0.003595  
3482.000000	0.003423  
3481.000000	0.003166  
3480.000000	0.002990  
3479.000000	0.002969  
3478.000000	0.003060  
3477.000000	0.003174  
3476.000000	0.003243  
3475.000000	0.003255  
3474.000000	0.003245  
3473.000000	0.003263  
3472.000000	0.003313  
3471.000000	0.003329  
3470.000000	0.003242  
3469.000000	0.003073  
3468.000000	0.002927  
3467.000000	0.002903  
3466.000000	0.003004  
3465.000000	0.003138  
3464.000000	0.003189  
3463.000000	0.003099  
3462.000000	0.002923  
3461.000000	0.002786  
3460.000000	0.002782  
3459.000000	0.002900  
3458.000000	0.003062  
3457.000000	0.003216  
3456.000000	0.003352  
3455.000000	0.003456  
3454.000000	0.003513  
3453.000000	0.003539  
3452.000000	0.003585  
3451.000000	0.003663  
3450.000000	0.003729  
3449.000000	0.003740  
3448.000000	0.003707  
3447.000000	0.003670  
3446.000000	0.003647  
3445.000000	0.003638  
3444.000000	0.003649  
3443.000000	0.003672  
3442.000000	0.003680  
3441.000000	0.003671  
3440.000000	0.003706  
3439.000000	0.003847  
3438.000000	0.004053  
3437.000000	0.004177  
3436.000000	0.004096  
3435.000000	0.003842  
3434.000000	0.003597  
3433.000000	0.003530  
3432.000000	0.003646  
3431.000000	0.003796  
3430.000000	0.003835  
3429.000000	0.003740  
3428.000000	0.003578  
3427.000000	0.003400  
3426.000000	0.003216  
3425.000000	0.003055  
3424.000000	0.002993  
3423.000000	0.003079  
3422.000000	0.003290  
3421.000000	0.003550  
3420.000000	0.003789  
3419.000000	0.003950  
3418.000000	0.004004  
3417.000000	0.003968  
3416.000000	0.003902  
3415.000000	0.003858  
3414.000000	0.003842  
3413.000000	0.003845  
3412.000000	0.003886  
3411.000000	0.003982  
3410.000000	0.004090  
3409.000000	0.004109  
3408.000000	0.003965  
3407.000000	0.003693  
3406.000000	0.003426  
3405.000000	0.003307  
3404.000000	0.003387  
3403.000000	0.003599  
3402.000000	0.003839  
3401.000000	0.004037  
3400.000000	0.004162  
3399.000000	0.004187  
3398.000000	0.004106  
3397.000000	0.003996  
3396.000000	0.003996  
3395.000000	0.004183  
3394.000000	0.004483  
3393.000000	0.004730  
3392.000000	0.004807  
3391.000000	0.004707  
3390.000000	0.004511  
3389.000000	0.004313  
3388.000000	0.004175  
3387.000000	0.004089  
3386.000000	0.004004  
3385.000000	0.003916  
3384.000000	0.003903  
3383.000000	0.004036  
3382.000000	0.004276  
3381.000000	0.004488  
3380.000000	0.004575  
3379.000000	0.004531  
3378.000000	0.004395  
3377.000000	0.004181  
3376.000000	0.003920  
3375.000000	0.003699  
3374.000000	0.003626  
3373.000000	0.003727  
3372.000000	0.003923  
3371.000000	0.004115  
3370.000000	0.004265  
3369.000000	0.004390  
3368.000000	0.004498  
3367.000000	0.004570  
3366.000000	0.004592  
3365.000000	0.004584  
3364.000000	0.004566  
3363.000000	0.004518  
3362.000000	0.004418  
3361.000000	0.004301  
3360.000000	0.004241  
3359.000000	0.004259  
3358.000000	0.004292  
3357.000000	0.004278  
3356.000000	0.004236  
3355.000000	0.004218  
3354.000000	0.004215  
3353.000000	0.004179  
3352.000000	0.004101  
3351.000000	0.004033  
3350.000000	0.004007  
3349.000000	0.004011  
3348.000000	0.004041  
3347.000000	0.004139  
3346.000000	0.004312  
3345.000000	0.004473  
3344.000000	0.004512  
3343.000000	0.004418  
3342.000000	0.004295  
3341.000000	0.004237  
3340.000000	0.004236  
3339.000000	0.004217  
3338.000000	0.004141  
3337.000000	0.004054  
3336.000000	0.004025  
3335.000000	0.004068  
3334.000000	0.004142  
3333.000000	0.004209  
3332.000000	0.004269  
3331.000000	0.004338  
3330.000000	0.004405  
3329.000000	0.004443  
3328.000000	0.004452  
3327.000000	0.004458  
3326.000000	0.004466  
3325.000000	0.004445  
3324.000000	0.004376  
3323.000000	0.004288  
3322.000000	0.004231  
3321.000000	0.004231  
3320.000000	0.004280  
3319.000000	0.004376  
3318.000000	0.004521  
3317.000000	0.004682  
3316.000000	0.004777  
3315.000000	0.004746  
3314.000000	0.004614  
3313.000000	0.004487  
3312.000000	0.004458  
3311.000000	0.004541  
3310.000000	0.004672  
3309.000000	0.004760  
3308.000000	0.004724  
3307.000000	0.004537  
3306.000000	0.004272  
3305.000000	0.004093  
3304.000000	0.004130  
3303.000000	0.004365  
3302.000000	0.004647  
3301.000000	0.004835  
3300.000000	0.004894  
3299.000000	0.004858  
3298.000000	0.004759  
3297.000000	0.004632  
3296.000000	0.004535  
3295.000000	0.004510  
3294.000000	0.004536  
3293.000000	0.004562  
3292.000000	0.004568  
3291.000000	0.004570  
3290.000000	0.004563  
3289.000000	0.004521  
3288.000000	0.004449  
3287.000000	0.004391  
3286.000000	0.004370  
3285.000000	0.004363  
3284.000000	0.004348  
3283.000000	0.004346  
3282.000000	0.004386  
3281.000000	0.004450  
3280.000000	0.004480  
3279.000000	0.004445  
3278.000000	0.004378  
3277.000000	0.004346  
3276.000000	0.004399  
3275.000000	0.004548  
3274.000000	0.004755  
3273.000000	0.004951  
3272.000000	0.005058  
3271.000000	0.005030  
3270.000000	0.004892  
3269.000000	0.004712  
3268.000000	0.004545  
3267.000000	0.004388  
3266.000000	0.004242  
3265.000000	0.004165  
3264.000000	0.004241  
3263.000000	0.004462  
3262.000000	0.004713  
3261.000000	0.004880  
3260.000000	0.004962  
3259.000000	0.005021  
3258.000000	0.005062  
3257.000000	0.005018  
3256.000000	0.004844  
3255.000000	0.004605  
3254.000000	0.004441  
3253.000000	0.004468  
3252.000000	0.004693  
3251.000000	0.004984  
3250.000000	0.005163  
3249.000000	0.005150  
3248.000000	0.005022  
3247.000000	0.004899  
3246.000000	0.004800  
3245.000000	0.004675  
3244.000000	0.004546  
3243.000000	0.004527  
3242.000000	0.004667  
3241.000000	0.004866  
3240.000000	0.004963  
3239.000000	0.004881  
3238.000000	0.004653  
3237.000000	0.004362  
3236.000000	0.004101  
3235.000000	0.003953  
3234.000000	0.003938  
3233.000000	0.004012  
3232.000000	0.004122  
3231.000000	0.004250  
3230.000000	0.004373  
3229.000000	0.004450  
3228.000000	0.004471  
3227.000000	0.004505  
3226.000000	0.004622  
3225.000000	0.004805  
3224.000000	0.004971  
3223.000000	0.005059  
3222.000000	0.005056  
3221.000000	0.004956  
3220.000000	0.004776  
3219.000000	0.004599  
3218.000000	0.004528  
3217.000000	0.004593  
3216.000000	0.004730  
3215.000000	0.004858  
3214.000000	0.004939  
3213.000000	0.004964  
3212.000000	0.004927  
3211.000000	0.004847  
3210.000000	0.004775  
3209.000000	0.004743  
3208.000000	0.004756  
3207.000000	0.004806  
3206.000000	0.004896  
3205.000000	0.005012  
3204.000000	0.005119  
3203.000000	0.005193  
3202.000000	0.005222  
3201.000000	0.005174  
3200.000000	0.004999  
3199.000000	0.004696  
3198.000000	0.004355  
3197.000000	0.004088  
3196.000000	0.003929  
3195.000000	0.003852  
3194.000000	0.003843  
3193.000000	0.003923  
3192.000000	0.004086  
3191.000000	0.004284  
3190.000000	0.004477  
3189.000000	0.004666  
3188.000000	0.004848  
3187.000000	0.004982  
3186.000000	0.005029  
3185.000000	0.005009  
3184.000000	0.004973  
3183.000000	0.004927  
3182.000000	0.004836  
3181.000000	0.004695  
3180.000000	0.004559  
3179.000000	0.004483  
3178.000000	0.004459  
3177.000000	0.004466  
3176.000000	0.004516  
3175.000000	0.004631  
3174.000000	0.004766  
3173.000000	0.004819  
3172.000000	0.004738  
3171.000000	0.004573  
3170.000000	0.004423  
3169.000000	0.004358  
3168.000000	0.004387  
3167.000000	0.004475  
3166.000000	0.004575  
3165.000000	0.004651  
3164.000000	0.004698  
3163.000000	0.004719  
3162.000000	0.004706  
3161.000000	0.004649  
3160.000000	0.004572  
3159.000000	0.004528  
3158.000000	0.004547  
3157.000000	0.004611  
3156.000000	0.004695  
3155.000000	0.004793  
3154.000000	0.004912  
3153.000000	0.005030  
3152.000000	0.005087  
3151.000000	0.005016  
3150.000000	0.004797  
3149.000000	0.004497  
3148.000000	0.004247  
3147.000000	0.004142  
3146.000000	0.004157  
3145.000000	0.004192  
3144.000000	0.004199  
3143.000000	0.004214  
3142.000000	0.004274  
3141.000000	0.004349  
3140.000000	0.004396  
3139.000000	0.004432  
3138.000000	0.004503  
3137.000000	0.004607  
3136.000000	0.004687  
3135.000000	0.004688  
3134.000000	0.004602  
3133.000000	0.004485  
3132.000000	0.004429  
3131.000000	0.004500  
3130.000000	0.004660  
3129.000000	0.004781  
3128.000000	0.004765  
3127.000000	0.004631  
3126.000000	0.004466  
3125.000000	0.004329  
3124.000000	0.004256  
3123.000000	0.004288  
3122.000000	0.004444  
3121.000000	0.004647  
3120.000000	0.004763  
3119.000000	0.004724  
3118.000000	0.004584  
3117.000000	0.004451  
3116.000000	0.004397  
3115.000000	0.004437  
3114.000000	0.004539  
3113.000000	0.004644  
3112.000000	0.004707  
3111.000000	0.004733  
3110.000000	0.004752  
3109.000000	0.004759  
3108.000000	0.004715  
3107.000000	0.004607  
3106.000000	0.004482  
3105.000000	0.004400  
3104.000000	0.004392  
3103.000000	0.004455  
3102.000000	0.004564  
3101.000000	0.004660  
3100.000000	0.004668  
3099.000000	0.004549  
3098.000000	0.004349  
3097.000000	0.004169  
3096.000000	0.004100  
3095.000000	0.004176  
3094.000000	0.004356  
3093.000000	0.004547  
3092.000000	0.004665  
3091.000000	0.004690  
3090.000000	0.004665  
3089.000000	0.004630  
3088.000000	0.004596  
3087.000000	0.004572  
3086.000000	0.004583  
3085.000000	0.004631  
3084.000000	0.004673  
3083.000000	0.004663  
3082.000000	0.004633  
3081.000000	0.004673  
3080.000000	0.004842  
3079.000000	0.005096  
3078.000000	0.005330  
3077.000000	0.005457  
3076.000000	0.005453  
3075.000000	0.005339  
3074.000000	0.005157  
3073.000000	0.004968  
3072.000000	0.004857  
3071.000000	0.004890  
3070.000000	0.005059  
3069.000000	0.005265  
3068.000000	0.005385  
3067.000000	0.005376  
3066.000000	0.005304  
3065.000000	0.005289  
3064.000000	0.005397  
3063.000000	0.005592  
3062.000000	0.005769  
3061.000000	0.005835  
3060.000000	0.005775  
3059.000000	0.005644  
3058.000000	0.005509  
3057.000000	0.005401  
3056.000000	0.005332  
3055.000000	0.005332  
3054.000000	0.005425  
3053.000000	0.005575  
3052.000000	0.005686  
3051.000000	0.005693  
3050.000000	0.005628  
3049.000000	0.005592  
3048.000000	0.005655  
3047.000000	0.005799  
3046.000000	0.005944  
3045.000000	0.006012  
3044.000000	0.005973  
3043.000000	0.005859  
3042.000000	0.005740  
3041.000000	0.005686  
3040.000000	0.005737  
3039.000000	0.005890  
3038.000000	0.006099  
3037.000000	0.006291  
3036.000000	0.006403  
3035.000000	0.006419  
3034.000000	0.006367  
3033.000000	0.006294  
3032.000000	0.006260  
3031.000000	0.006333  
3030.000000	0.006550  
3029.000000	0.006864  
3028.000000	0.007161  
3027.000000	0.007360  
3026.000000	0.007483  
3025.000000	0.007626  
3024.000000	0.007866  
3023.000000	0.008207  
3022.000000	0.008586  
3021.000000	0.008923  
3020.000000	0.009172  
3019.000000	0.009364  
3018.000000	0.009591  
3017.000000	0.009925  
3016.000000	0.010355  
3015.000000	0.010814  
3014.000000	0.011231  
3013.000000	0.011569  
3012.000000	0.011817  
3011.000000	0.011982  
3010.000000	0.012102  
3009.000000	0.012216  
3008.000000	0.012329  
3007.000000	0.012406  
3006.000000	0.012394  
3005.000000	0.012260  
3004.000000	0.011998  
3003.000000	0.011650  
3002.000000	0.011316  
3001.000000	0.011123  
3000.000000	0.011149  
2999.000000	0.011365  
2998.000000	0.011644  
2997.000000	0.011841  
2996.000000	0.011891  
2995.000000	0.011861  
2994.000000	0.011902  
2993.000000	0.012135  
2992.000000	0.012566  
2991.000000	0.013105  
2990.000000	0.013660  
2989.000000	0.014203  
2988.000000	0.014763  
2987.000000	0.015396  
2986.000000	0.016151  
2985.000000	0.017052  
2984.000000	0.018082  
2983.000000	0.019200  
2982.000000	0.020383  
2981.000000	0.021653  
2980.000000	0.023059  
2979.000000	0.024652  
2978.000000	0.026475  
2977.000000	0.028568  
2976.000000	0.030964  
2975.000000	0.033695  
2974.000000	0.036778  
2973.000000	0.040210  
2972.000000	0.043945  
2971.000000	0.047930  
2970.000000	0.052175  
2969.000000	0.056763  
2968.000000	0.061757  
2967.000000	0.067068  
2966.000000	0.072462  
2965.000000	0.077718  
2964.000000	0.082765  
2963.000000	0.087641  
2962.000000	0.092358  
2961.000000	0.096843  
2960.000000	0.100981  
2959.000000	0.104662  
2958.000000	0.107755  
2957.000000	0.110126  
2956.000000	0.111696  
2955.000000	0.112475  
2954.000000	0.112509  
2953.000000	0.111837  
2952.000000	0.110526  
2951.000000	0.108727  
2950.000000	0.106675  
2949.000000	0.104619  
2948.000000	0.102757  
2947.000000	0.101232  
2946.000000	0.100162  
2945.000000	0.099673  
2944.000000	0.099919  
2943.000000	0.101035  
2942.000000	0.103094  
2941.000000	0.106066  
2940.000000	0.109850  
2939.000000	0.114321  
2938.000000	0.119391  
2937.000000	0.125024  
2936.000000	0.131184  
2935.000000	0.137777  
2934.000000	0.144645  
2933.000000	0.151656  
2932.000000	0.158791  
2931.000000	0.166087  
2930.000000	0.173509  
2929.000000	0.180882  
2928.000000	0.187941  
2927.000000	0.194408  
2926.000000	0.200034  
2925.000000	0.204612  
2924.000000	0.207978  
2923.000000	0.209956  
2922.000000	0.210371  
2921.000000	0.209182  
2920.000000	0.206611  
2919.000000	0.203038  
2918.000000	0.198771  
2917.000000	0.193970  
2916.000000	0.188753  
2915.000000	0.183285  
2914.000000	0.177728  
2913.000000	0.172187  
2912.000000	0.166757  
2911.000000	0.161570  
2910.000000	0.156749  
2909.000000	0.152305  
2908.000000	0.148107  
2907.000000	0.143963  
2906.000000	0.139748  
2905.000000	0.135477  
2904.000000	0.131277  
2903.000000	0.127288  
2902.000000	0.123567  
2901.000000	0.120081  
2900.000000	0.116726  
2899.000000	0.113388  
2898.000000	0.110004  
2897.000000	0.106602  
2896.000000	0.103270  
2895.000000	0.100081  
2894.000000	0.097019  
2893.000000	0.094005  
2892.000000	0.090964  
2891.000000	0.087882  
2890.000000	0.084823  
2889.000000	0.081925  
2888.000000	0.079336  
2887.000000	0.077144  
2886.000000	0.075349  
2885.000000	0.073922  
2884.000000	0.072892  
2883.000000	0.072331  
2882.000000	0.072277  
2881.000000	0.072707  
2880.000000	0.073615  
2879.000000	0.075081  
2878.000000	0.077209  
2877.000000	0.079988  
2876.000000	0.083213  
2875.000000	0.086527  
2874.000000	0.089551  
2873.000000	0.091987  
2872.000000	0.093683  
2871.000000	0.094652  
2870.000000	0.095062  
2869.000000	0.095186  
2868.000000	0.095321  
2867.000000	0.095706  
2866.000000	0.096502  
2865.000000	0.097843  
2864.000000	0.099869  
2863.000000	0.102664  
2862.000000	0.106183  
2861.000000	0.110266  
2860.000000	0.114747  
2859.000000	0.119490  
2858.000000	0.124298  
2857.000000	0.128820  
2856.000000	0.132584  
2855.000000	0.135127  
2854.000000	0.136096  
2853.000000	0.135305  
2852.000000	0.132769  
2851.000000	0.128675  
2850.000000	0.123314  
2849.000000	0.117009  
2848.000000	0.110105  
2847.000000	0.102951  
2846.000000	0.095854  
2845.000000	0.089000  
2844.000000	0.082435  
2843.000000	0.076124  
2842.000000	0.070058  
2841.000000	0.064290  
2840.000000	0.058898  
2839.000000	0.053937  
2838.000000	0.049451  
2837.000000	0.045472  
2836.000000	0.041984  
2835.000000	0.038883  
2834.000000	0.036031  
2833.000000	0.033357  
2832.000000	0.030902  
2831.000000	0.028767  
2830.000000	0.027010  
2829.000000	0.025592  
2828.000000	0.024397  
2827.000000	0.023298  
2826.000000	0.022237  
2825.000000	0.021227  
2824.000000	0.020308  
2823.000000	0.019501  
2822.000000	0.018803  
2821.000000	0.018202  
2820.000000	0.017679  
2819.000000	0.017194  
2818.000000	0.016704  
2817.000000	0.016198  
2816.000000	0.015693  
2815.000000	0.015198  
2814.000000	0.014695  
2813.000000	0.014165  
2812.000000	0.013626  
2811.000000	0.013137  
2810.000000	0.012754  
2809.000000	0.012497  
2808.000000	0.012336  
2807.000000	0.012216  
2806.000000	0.012088  
2805.000000	0.011924  
2804.000000	0.011706  
2803.000000	0.011419  
2802.000000	0.011082  
2801.000000	0.010759  
2800.000000	0.010523  
2799.000000	0.010398  
2798.000000	0.010343  
2797.000000	0.010304  
2796.000000	0.010263  
2795.000000	0.010212  
2794.000000	0.010109  
2793.000000	0.009887  
2792.000000	0.009531  
2791.000000	0.009125  
2790.000000	0.008799  
2789.000000	0.008636  
2788.000000	0.008611  
2787.000000	0.008634  
2786.000000	0.008628  
2785.000000	0.008571  
2784.000000	0.008480  
2783.000000	0.008377  
2782.000000	0.008281  
2781.000000	0.008227  
2780.000000	0.008246  
2779.000000	0.008327  
2778.000000	0.008398  
2777.000000	0.008370  
2776.000000	0.008199  
2775.000000	0.007928  
2774.000000	0.007661  
2773.000000	0.007486  
2772.000000	0.007413  
2771.000000	0.007376  
2770.000000	0.007303  
2769.000000	0.007175  
2768.000000	0.007018  
2767.000000	0.006860  
2766.000000	0.006713  
2765.000000	0.006603  
2764.000000	0.006572  
2763.000000	0.006633  
2762.000000	0.006729  
2761.000000	0.006778  
2760.000000	0.006738  
2759.000000	0.006630  
2758.000000	0.006496  
2757.000000	0.006367  
2756.000000	0.006260  
2755.000000	0.006191  
2754.000000	0.006163  
2753.000000	0.006160  
2752.000000	0.006164  
2751.000000	0.006166  
2750.000000	0.006175  
2749.000000	0.006198  
2748.000000	0.006215  
2747.000000	0.006186  
2746.000000	0.006097  
2745.000000	0.005989  
2744.000000	0.005928  
2743.000000	0.005938  
2742.000000	0.005990  
2741.000000	0.006048  
2740.000000	0.006114  
2739.000000	0.006198  
2738.000000	0.006273  
2737.000000	0.006303  
2736.000000	0.006298  
2735.000000	0.006313  
2734.000000	0.006390  
2733.000000	0.006504  
2732.000000	0.006590  
2731.000000	0.006597  
2730.000000	0.006531  
2729.000000	0.006461  
2728.000000	0.006464  
2727.000000	0.006544  
2726.000000	0.006608  
2725.000000	0.006557  
2724.000000	0.006388  
2723.000000	0.006203  
2722.000000	0.006109  
2721.000000	0.006141  
2720.000000	0.006270  
2719.000000	0.006432  
2718.000000	0.006545  
2717.000000	0.006543  
2716.000000	0.006428  
2715.000000	0.006262  
2714.000000	0.006093  
2713.000000	0.005905  
2712.000000	0.005677  
2711.000000	0.005451  
2710.000000	0.005303  
2709.000000	0.005263  
2708.000000	0.005292  
2707.000000	0.005341  
2706.000000	0.005377  
2705.000000	0.005374  
2704.000000	0.005309  
2703.000000	0.005189  
2702.000000	0.005066  
2701.000000	0.004989  
2700.000000	0.004969  
2699.000000	0.004984  
2698.000000	0.005013  
2697.000000	0.005053  
2696.000000	0.005110  
2695.000000	0.005181  
2694.000000	0.005242  
2693.000000	0.005253  
2692.000000	0.005200  
2691.000000	0.005127  
2690.000000	0.005118  
2689.000000	0.005236  
2688.000000	0.005457  
2687.000000	0.005676  
2686.000000	0.005786  
2685.000000	0.005757  
2684.000000	0.005662  
2683.000000	0.005600  
2682.000000	0.005613  
2681.000000	0.005663  
2680.000000	0.005689  
2679.000000	0.005669  
2678.000000	0.005627  
2677.000000	0.005611  
2676.000000	0.005663  
2675.000000	0.005782  
2674.000000	0.005916  
2673.000000	0.005986  
2672.000000	0.005946  
2671.000000	0.005826  
2670.000000	0.005700  
2669.000000	0.005630  
2668.000000	0.005646  
2667.000000	0.005742  
2666.000000	0.005869  
2665.000000	0.005960  
2664.000000	0.005963  
2663.000000	0.005872  
2662.000000	0.005701  
2661.000000	0.005479  
2660.000000	0.005261  
2659.000000	0.005117  
2658.000000	0.005071  
2657.000000	0.005066  
2656.000000	0.005043  
2655.000000	0.005018  
2654.000000	0.005038  
2653.000000	0.005087  
2652.000000	0.005098  
2651.000000	0.005055  
2650.000000	0.005021  
2649.000000	0.005039  
2648.000000	0.005072  
2647.000000	0.005066  
2646.000000	0.005015  
2645.000000	0.004942  
2644.000000	0.004862  
2643.000000	0.004803  
2642.000000	0.004819  
2641.000000	0.004921  
2640.000000	0.005023  
2639.000000	0.005003  
2638.000000	0.004827  
2637.000000	0.004570  
2636.000000	0.004349  
2635.000000	0.004262  
2634.000000	0.004349  
2633.000000	0.004570  
2632.000000	0.004803  
2631.000000	0.004925  
2630.000000	0.004893  
2629.000000	0.004765  
2628.000000	0.004633  
2627.000000	0.004577  
2626.000000	0.004626  
2625.000000	0.004726  
2624.000000	0.004759  
2623.000000	0.004650  
2622.000000	0.004450  
2621.000000	0.004276  
2620.000000	0.004176  
2619.000000	0.004099  
2618.000000	0.004016  
2617.000000	0.003970  
2616.000000	0.004011  
2615.000000	0.004119  
2614.000000	0.004232  
2613.000000	0.004323  
2612.000000	0.004406  
2611.000000	0.004492  
2610.000000	0.004575  
2609.000000	0.004652  
2608.000000	0.004717  
2607.000000	0.004759  
2606.000000	0.004768  
2605.000000	0.004742  
2604.000000	0.004674  
2603.000000	0.004560  
2602.000000	0.004433  
2601.000000	0.004363  
2600.000000	0.004389  
2599.000000	0.004454  
2598.000000	0.004454  
2597.000000	0.004348  
2596.000000	0.004204  
2595.000000	0.004109  
2594.000000	0.004059  
2593.000000	0.003964  
2592.000000	0.003766  
2591.000000	0.003533  
2590.000000	0.003395  
2589.000000	0.003404  
2588.000000	0.003485  
2587.000000	0.003542  
2586.000000	0.003577  
2585.000000	0.003648  
2584.000000	0.003751  
2583.000000	0.003802  
2582.000000	0.003754  
2581.000000	0.003668  
2580.000000	0.003638  
2579.000000	0.003693  
2578.000000	0.003792  
2577.000000	0.003875  
2576.000000	0.003883  
2575.000000	0.003766  
2574.000000	0.003549  
2573.000000	0.003362  
2572.000000	0.003347  
2571.000000	0.003502  
2570.000000	0.003674  
2569.000000	0.003704  
2568.000000	0.003568  
2567.000000	0.003347  
2566.000000	0.003135  
2565.000000	0.002987  
2564.000000	0.002920  
2563.000000	0.002924  
2562.000000	0.002955  
2561.000000	0.002968  
2560.000000	0.002958  
2559.000000	0.002961  
2558.000000	0.003023  
2557.000000	0.003178  
2556.000000	0.003412  
2555.000000	0.003634  
2554.000000	0.003721  
2553.000000	0.003634  
2552.000000	0.003497  
2551.000000	0.003484  
2550.000000	0.003640  
2549.000000	0.003837  
2548.000000	0.003922  
2547.000000	0.003839  
2546.000000	0.003609  
2545.000000	0.003282  
2544.000000	0.002955  
2543.000000	0.002781  
2542.000000	0.002847  
2541.000000	0.003053  
2540.000000	0.003202  
2539.000000	0.003217  
2538.000000	0.003207  
2537.000000	0.003287  
2536.000000	0.003420  
2535.000000	0.003461  
2534.000000	0.003335  
2533.000000	0.003107  
2532.000000	0.002901  
2531.000000	0.002782  
2530.000000	0.002718  
2529.000000	0.002643  
2528.000000	0.002549  
2527.000000	0.002513  
2526.000000	0.002608  
2525.000000	0.002811  
2524.000000	0.003022  
2523.000000	0.003175  
2522.000000	0.003270  
2521.000000	0.003291  
2520.000000	0.003175  
2519.000000	0.002926  
2518.000000	0.002697  
2517.000000	0.002674  
2516.000000	0.002886  
2515.000000	0.003187  
2514.000000	0.003413  
2513.000000	0.003502  
2512.000000	0.003483  
2511.000000	0.003406  
2510.000000	0.003305  
2509.000000	0.003199  
2508.000000	0.003097  
2507.000000	0.003026  
2506.000000	0.003033  
2505.000000	0.003122  
2504.000000	0.003213  
2503.000000	0.003203  
2502.000000	0.003087  
2501.000000	0.002989  
2500.000000	0.003024  
2499.000000	0.003161  
2498.000000	0.003226  
2497.000000	0.003059  
2496.000000	0.002666  
2495.000000	0.002222  
2494.000000	0.001949  
2493.000000	0.001958  
2492.000000	0.002209  
2491.000000	0.002582  
2490.000000	0.002968  
2489.000000	0.003283  
2488.000000	0.003449  
2487.000000	0.003416  
2486.000000	0.003216  
2485.000000	0.002943  
2484.000000	0.002700  
2483.000000	0.002570  
2482.000000	0.002615  
2481.000000	0.002856  
2480.000000	0.003218  
2479.000000	0.003550  
2478.000000	0.003713  
2477.000000	0.003663  
2476.000000	0.003450  
2475.000000	0.003177  
2474.000000	0.002932  
2473.000000	0.002753  
2472.000000	0.002622  
2471.000000	0.002512  
2470.000000	0.002415  
2469.000000	0.002345  
2468.000000	0.002322  
2467.000000	0.002391  
2466.000000	0.002588  
2465.000000	0.002867  
2464.000000	0.003081  
2463.000000	0.003108  
2462.000000	0.002974  
2461.000000	0.002818  
2460.000000	0.002745  
2459.000000	0.002781  
2458.000000	0.002923  
2457.000000	0.003133  
2456.000000	0.003277  
2455.000000	0.003207  
2454.000000	0.002947  
2453.000000	0.002701  
2452.000000	0.002617  
2451.000000	0.002615  
2450.000000	0.002535  
2449.000000	0.002379  
2448.000000	0.002306  
2447.000000	0.002397  
2446.000000	0.002553  
2445.000000	0.002629  
2444.000000	0.002589  
2443.000000	0.002513  
2442.000000	0.002500  
2441.000000	0.002579  
2440.000000	0.002690  
2439.000000	0.002732  
2438.000000	0.002667  
2437.000000	0.002566  
2436.000000	0.002527  
2435.000000	0.002550  
2434.000000	0.002537  
2433.000000	0.002431  
2432.000000	0.002275  
2431.000000	0.002164  
2430.000000	0.002151  
2429.000000	0.002239  
2428.000000	0.002407  
2427.000000	0.002601  
2426.000000	0.002749  
2425.000000	0.002807  
2424.000000	0.002792  
2423.000000	0.002746  
2422.000000	0.002685  
2421.000000	0.002608  
2420.000000	0.002529  
2419.000000	0.002473  
2418.000000	0.002452  
2417.000000	0.002451  
2416.000000	0.002463  
2415.000000	0.002503  
2414.000000	0.002598  
2413.000000	0.002747  
2412.000000	0.002897  
2411.000000	0.002986  
2410.000000	0.003005  
2409.000000	0.003018  
2408.000000	0.003084  
2407.000000	0.003168  
2406.000000	0.003144  
2405.000000	0.002929  
2404.000000	0.002591  
2403.000000	0.002301  
2402.000000	0.002174  
2401.000000	0.002188  
2400.000000	0.002253  
2399.000000	0.002335  
2398.000000	0.002479  
2397.000000	0.002704  
2396.000000	0.002938  
2395.000000	0.003074  
2394.000000	0.003088  
2393.000000	0.003068  
2392.000000	0.003126  
2391.000000	0.003296  
2390.000000	0.003522  
2389.000000	0.003730  
2388.000000	0.003918  
2387.000000	0.004172  
2386.000000	0.004589  
2385.000000	0.005155  
2384.000000	0.005665  
2383.000000	0.005809  
2382.000000	0.005362  
2381.000000	0.004343  
2380.000000	0.003012  
2379.000000	0.001703  
2378.000000	0.000670  
2377.000000	0.000028  
2376.000000	-0.000164 
2375.000000	0.000123  
2374.000000	0.000828  
2373.000000	0.001732  
2372.000000	0.002589  
2371.000000	0.003295  
2370.000000	0.003856  
2369.000000	0.004192  
2368.000000	0.004172  
2367.000000	0.003878  
2366.000000	0.003625  
2365.000000	0.003600  
2364.000000	0.003678  
2363.000000	0.003691  
2362.000000	0.003597  
2361.000000	0.003539  
2360.000000	0.003890  
2359.000000	0.004666  
2358.000000	0.005268  
2357.000000	0.005033  
2356.000000	0.004107  
2355.000000	0.003249  
2354.000000	0.002736  
2353.000000	0.002521  
2352.000000	0.002647  
2351.000000	0.003140  
2350.000000	0.003754  
2349.000000	0.003965  
2348.000000	0.003611  
2347.000000	0.003001  
2346.000000	0.003030  
2345.000000	0.004187  
2344.000000	0.005727  
2343.000000	0.006535  
2342.000000	0.005968  
2341.000000	0.004580  
2340.000000	0.003427  
2339.000000	0.002939  
2338.000000	0.002588  
2337.000000	0.001849  
2336.000000	0.000941  
2335.000000	0.000448  
2334.000000	0.000447  
2333.000000	0.000711  
2332.000000	0.001152  
2331.000000	0.001924  
2330.000000	0.003116  
2329.000000	0.004426  
2328.000000	0.005652  
2327.000000	0.006512  
2326.000000	0.006816  
2325.000000	0.006507  
2324.000000	0.005746  
2323.000000	0.004937  
2322.000000	0.004279  
2321.000000	0.003974  
2320.000000	0.004120  
2319.000000	0.004740  
2318.000000	0.005546  
2317.000000	0.006092  
2316.000000	0.006098  
2315.000000	0.005655  
2314.000000	0.005172  
2313.000000	0.005042  
2312.000000	0.005391  
2311.000000	0.005991  
2310.000000	0.006530  
2309.000000	0.006844  
2308.000000	0.006952  
2307.000000	0.006895  
2306.000000	0.006683  
2305.000000	0.006393  
2304.000000	0.006176  
2303.000000	0.006151  
2302.000000	0.006266  
2301.000000	0.006361  
2300.000000	0.006320  
2299.000000	0.006185  
2298.000000	0.006112  
2297.000000	0.006177  
2296.000000	0.006290  
2295.000000	0.006243  
2294.000000	0.005950  
2293.000000	0.005525  
2292.000000	0.005153  
2291.000000	0.004892  
2290.000000	0.004669  
2289.000000	0.004433  
2288.000000	0.004199  
2287.000000	0.003953  
2286.000000	0.003633  
2285.000000	0.003258  
2284.000000	0.002962  
2283.000000	0.002838  
2282.000000	0.002817  
2281.000000	0.002782  
2280.000000	0.002742  
2279.000000	0.002800  
2278.000000	0.002954  
2277.000000	0.003070  
2276.000000	0.003104  
2275.000000	0.003222  
2274.000000	0.003629  
2273.000000	0.004266  
2272.000000	0.004800  
2271.000000	0.004915  
2270.000000	0.004602  
2269.000000	0.004112  
2268.000000	0.003663  
2267.000000	0.003260  
2266.000000	0.002848  
2265.000000	0.002523  
2264.000000	0.002480  
2263.000000	0.002751  
2262.000000	0.003140  
2261.000000	0.003436  
2260.000000	0.003583  
2259.000000	0.003614  
2258.000000	0.003551  
2257.000000	0.003472  
2256.000000	0.003515  
2255.000000	0.003697  
2254.000000	0.003805  
2253.000000	0.003641  
2252.000000	0.003325  
2251.000000	0.003168  
2250.000000	0.003259  
2249.000000	0.003338  
2248.000000	0.003125  
2247.000000	0.002628  
2246.000000	0.002091  
2245.000000	0.001739  
2244.000000	0.001654  
2243.000000	0.001793  
2242.000000	0.002032  
2241.000000	0.002223  
2240.000000	0.002290  
2239.000000	0.002273  
2238.000000	0.002247  
2237.000000	0.002241  
2236.000000	0.002260  
2235.000000	0.002325  
2234.000000	0.002430  
2233.000000	0.002504  
2232.000000	0.002461  
2231.000000	0.002277  
2230.000000	0.002010  
2229.000000	0.001757  
2228.000000	0.001622  
2227.000000	0.001661  
2226.000000	0.001811  
2225.000000	0.001887  
2224.000000	0.001735  
2223.000000	0.001389  
2222.000000	0.001080  
2221.000000	0.001060  
2220.000000	0.001389  
2219.000000	0.001862  
2218.000000	0.002177  
2217.000000	0.002226  
2216.000000	0.002228  
2215.000000	0.002474  
2214.000000	0.002947  
2213.000000	0.003303  
2212.000000	0.003273  
2211.000000	0.002958  
2210.000000	0.002640  
2209.000000	0.002419  
2208.000000	0.002190  
2207.000000	0.001936  
2206.000000	0.001861  
2205.000000	0.002155  
2204.000000	0.002753  
2203.000000	0.003394  
2202.000000	0.003869  
2201.000000	0.004135  
2200.000000	0.004266  
2199.000000	0.004355  
2198.000000	0.004460  
2197.000000	0.004559  
2196.000000	0.004544  
2195.000000	0.004301  
2194.000000	0.003833  
2193.000000	0.003293  
2192.000000	0.002843  
2191.000000	0.002512  
2190.000000	0.002242  
2189.000000	0.002045  
2188.000000	0.002043  
2187.000000	0.002276  
2186.000000	0.002559  
2185.000000	0.002617  
2184.000000	0.002384  
2183.000000	0.002096  
2182.000000	0.002073  
2181.000000	0.002434  
2180.000000	0.003013  
2179.000000	0.003503  
2178.000000	0.003675  
2177.000000	0.003557  
2176.000000	0.003382  
2175.000000	0.003287  
2174.000000	0.003100  
2173.000000	0.002598  
2172.000000	0.001961  
2171.000000	0.001714  
2170.000000	0.002100  
2169.000000	0.002677  
2168.000000	0.002767  
2167.000000	0.002252  
2166.000000	0.001703  
2165.000000	0.001692  
2164.000000	0.002172  
2163.000000	0.002652  
2162.000000	0.002781  
2161.000000	0.002613  
2160.000000	0.002413  
2159.000000	0.002372  
2158.000000	0.002510  
2157.000000	0.002714  
2156.000000	0.002831  
2155.000000	0.002781  
2154.000000	0.002608  
2153.000000	0.002439  
2152.000000	0.002375  
2151.000000	0.002409  
2150.000000	0.002444  
2149.000000	0.002385  
2148.000000	0.002241  
2147.000000	0.002136  
2146.000000	0.002211  
2145.000000	0.002494  
2144.000000	0.002875  
2143.000000	0.003177  
2142.000000	0.003247  
2141.000000	0.003016  
2140.000000	0.002568  
2139.000000	0.002145  
2138.000000	0.002029  
2137.000000	0.002312  
2136.000000	0.002763  
2135.000000	0.002989  
2134.000000	0.002790  
2133.000000	0.002343  
2132.000000	0.002032  
2131.000000	0.002083  
2130.000000	0.002407  
2129.000000	0.002758  
2128.000000	0.002985  
2127.000000	0.003078  
2126.000000	0.003040  
2125.000000	0.002832  
2124.000000	0.002486  
2123.000000	0.002189  
2122.000000	0.002150  
2121.000000	0.002402  
2120.000000	0.002759  
2119.000000	0.002981  
2118.000000	0.002970  
2117.000000	0.002833  
2116.000000	0.002793  
2115.000000	0.002978  
2114.000000	0.003251  
2113.000000	0.003293  
2112.000000	0.002942  
2111.000000	0.002418  
2110.000000	0.002131  
2109.000000	0.002249  
2108.000000	0.002559  
2107.000000	0.002755  
2106.000000	0.002752  
2105.000000	0.002655  
2104.000000	0.002547  
2103.000000	0.002429  
2102.000000	0.002308  
2101.000000	0.002211  
2100.000000	0.002114  
2099.000000	0.001950  
2098.000000	0.001717  
2097.000000	0.001497  
2096.000000	0.001366  
2095.000000	0.001320  
2094.000000	0.001337  
2093.000000	0.001436  
2092.000000	0.001637  
2091.000000	0.001882  
2090.000000	0.002055  
2089.000000	0.002095  
2088.000000	0.002084  
2087.000000	0.002193  
2086.000000	0.002497  
2085.000000	0.002851  
2084.000000	0.002981  
2083.000000	0.002760  
2082.000000	0.002360  
2081.000000	0.002112  
2080.000000	0.002204  
2079.000000	0.002536  
2078.000000	0.002833  
2077.000000	0.002873  
2076.000000	0.002645  
2075.000000	0.002355  
2074.000000	0.002270  
2073.000000	0.002477  
2072.000000	0.002793  
2071.000000	0.002958  
2070.000000	0.002904  
2069.000000	0.002757  
2068.000000	0.002608  
2067.000000	0.002418  
2066.000000	0.002186  
2065.000000	0.002078  
2064.000000	0.002255  
2063.000000	0.002650  
2062.000000	0.003017  
2061.000000	0.003151  
2060.000000	0.003012  
2059.000000	0.002684  
2058.000000	0.002327  
2057.000000	0.002113  
2056.000000	0.002078  
2055.000000	0.002046  
2054.000000	0.001819  
2053.000000	0.001456  
2052.000000	0.001237  
2051.000000	0.001352  
2050.000000	0.001762  
2049.000000	0.002363  
2048.000000	0.003109  
2047.000000	0.003839  
2046.000000	0.004162  
2045.000000	0.003792  
2044.000000	0.002956  
2043.000000	0.002232  
2042.000000	0.001974  
2041.000000	0.002054  
2040.000000	0.002203  
2039.000000	0.002356  
2038.000000	0.002567  
2037.000000	0.002770  
2036.000000	0.002872  
2035.000000	0.002979  
2034.000000	0.003312  
2033.000000	0.003870  
2032.000000	0.004337  
2031.000000	0.004358  
2030.000000	0.003811  
2029.000000	0.002860  
2028.000000	0.001851  
2027.000000	0.001140  
2026.000000	0.000886  
2025.000000	0.000938  
2024.000000	0.001027  
2023.000000	0.001104  
2022.000000	0.001375  
2021.000000	0.001934  
2020.000000	0.002526  
2019.000000	0.002809  
2018.000000	0.002736  
2017.000000	0.002533  
2016.000000	0.002362  
2015.000000	0.002222  
2014.000000	0.002154  
2013.000000	0.002281  
2012.000000	0.002500  
2011.000000	0.002369  
2010.000000	0.001534  
2009.000000	0.000238  
2008.000000	-0.000808 
2007.000000	-0.001111 
2006.000000	-0.000764 
2005.000000	-0.000155 
2004.000000	0.000488  
2003.000000	0.001185  
2002.000000	0.002005  
2001.000000	0.002889  
2000.000000	0.003600  
1999.000000	0.003797  
1998.000000	0.003281  
1997.000000	0.002272  
1996.000000	0.001343  
1995.000000	0.000954  
1994.000000	0.001116  
1993.000000	0.001512  
1992.000000	0.001872  
1991.000000	0.002129  
1990.000000	0.002302  
1989.000000	0.002419  
1988.000000	0.002575  
1987.000000	0.002845  
1986.000000	0.003120  
1985.000000	0.003194  
1984.000000	0.003061  
1983.000000	0.002955  
1982.000000	0.003016  
1981.000000	0.003069  
1980.000000	0.002878  
1979.000000	0.002490  
1978.000000	0.002145  
1977.000000	0.001906  
1976.000000	0.001631  
1975.000000	0.001274  
1974.000000	0.000973  
1973.000000	0.000812  
1972.000000	0.000730  
1971.000000	0.000691  
1970.000000	0.000763  
1969.000000	0.000964  
1968.000000	0.001174  
1967.000000	0.001316  
1966.000000	0.001461  
1965.000000	0.001675  
1964.000000	0.001886  
1963.000000	0.002011  
1962.000000	0.002078  
1961.000000	0.002147  
1960.000000	0.002207  
1959.000000	0.002243  
1958.000000	0.002292  
1957.000000	0.002326  
1956.000000	0.002183  
1955.000000	0.001760  
1954.000000	0.001233  
1953.000000	0.000940  
1952.000000	0.001071  
1951.000000	0.001529  
1950.000000	0.002063  
1949.000000	0.002438  
1948.000000	0.002526  
1947.000000	0.002370  
1946.000000	0.002181  
1945.000000	0.002177  
1944.000000	0.002362  
1943.000000	0.002526  
1942.000000	0.002492  
1941.000000	0.002318  
1940.000000	0.002169  
1939.000000	0.002135  
1938.000000	0.002235  
1937.000000	0.002471  
1936.000000	0.002789  
1935.000000	0.003064  
1934.000000	0.003196  
1933.000000	0.003207  
1932.000000	0.003202  
1931.000000	0.003222  
1930.000000	0.003192  
1929.000000	0.003036  
1928.000000	0.002803  
1927.000000	0.002605  
1926.000000	0.002493  
1925.000000	0.002426  
1924.000000	0.002371  
1923.000000	0.002374  
1922.000000	0.002507  
1921.000000	0.002762  
1920.000000	0.003032  
1919.000000	0.003193  
1918.000000	0.003205  
1917.000000	0.003162  
1916.000000	0.003158  
1915.000000	0.003133  
1914.000000	0.002948  
1913.000000	0.002579  
1912.000000	0.002204  
1911.000000	0.002043  
1910.000000	0.002137  
1909.000000	0.002333  
1908.000000	0.002470  
1907.000000	0.002507  
1906.000000	0.002483  
1905.000000	0.002443  
1904.000000	0.002421  
1903.000000	0.002436  
1902.000000	0.002475  
1901.000000	0.002518  
1900.000000	0.002558  
1899.000000	0.002597  
1898.000000	0.002623  
1897.000000	0.002632  
1896.000000	0.002657  
1895.000000	0.002744  
1894.000000	0.002886  
1893.000000	0.003021  
1892.000000	0.003108  
1891.000000	0.003144  
1890.000000	0.003136  
1889.000000	0.003082  
1888.000000	0.002992  
1887.000000	0.002874  
1886.000000	0.002742  
1885.000000	0.002636  
1884.000000	0.002593  
1883.000000	0.002591  
1882.000000	0.002567  
1881.000000	0.002504  
1880.000000	0.002454  
1879.000000	0.002447  
1878.000000	0.002446  
1877.000000	0.002432  
1876.000000	0.002484  
1875.000000	0.002679  
1874.000000	0.002958  
1873.000000	0.003165  
1872.000000	0.003220  
1871.000000	0.003180  
1870.000000	0.003094  
1869.000000	0.002931  
1868.000000	0.002722  
1867.000000	0.002602  
1866.000000	0.002621  
1865.000000	0.002692  
1864.000000	0.002728  
1863.000000	0.002738  
1862.000000	0.002777  
1861.000000	0.002842  
1860.000000	0.002884  
1859.000000	0.002896  
1858.000000	0.002927  
1857.000000	0.003002  
1856.000000	0.003066  
1855.000000	0.003020  
1854.000000	0.002831  
1853.000000	0.002610  
1852.000000	0.002531  
1851.000000	0.002652  
1850.000000	0.002834  
1849.000000	0.002870  
1848.000000	0.002708  
1847.000000	0.002513  
1846.000000	0.002491  
1845.000000	0.002679  
1844.000000	0.002907  
1843.000000	0.002996  
1842.000000	0.002934  
1841.000000	0.002808  
1840.000000	0.002691  
1839.000000	0.002622  
1838.000000	0.002620  
1837.000000	0.002667  
1836.000000	0.002715  
1835.000000	0.002725  
1834.000000	0.002693  
1833.000000	0.002611  
1832.000000	0.002453  
1831.000000	0.002263  
1830.000000	0.002189  
1829.000000	0.002328  
1828.000000	0.002581  
1827.000000	0.002787  
1826.000000	0.002876  
1825.000000	0.002871  
1824.000000	0.002849  
1823.000000	0.002891  
1822.000000	0.003001  
1821.000000	0.003076  
1820.000000	0.002992  
1819.000000	0.002769  
1818.000000	0.002589  
1817.000000	0.002605  
1816.000000	0.002767  
1815.000000	0.002910  
1814.000000	0.002923  
1813.000000	0.002809  
1812.000000	0.002651  
1811.000000	0.002573  
1810.000000	0.002654  
1809.000000	0.002839  
1808.000000	0.003016  
1807.000000	0.003121  
1806.000000	0.003155  
1805.000000	0.003157  
1804.000000	0.003165  
1803.000000	0.003208  
1802.000000	0.003292  
1801.000000	0.003386  
1800.000000	0.003474  
1799.000000	0.003559  
1798.000000	0.003617  
1797.000000	0.003625  
1796.000000	0.003606  
1795.000000	0.003587  
1794.000000	0.003554  
1793.000000	0.003467  
1792.000000	0.003342  
1791.000000	0.003274  
1790.000000	0.003301  
1789.000000	0.003364  
1788.000000	0.003411  
1787.000000	0.003446  
1786.000000	0.003491  
1785.000000	0.003546  
1784.000000	0.003569  
1783.000000	0.003530  
1782.000000	0.003463  
1781.000000	0.003470  
1780.000000	0.003630  
1779.000000	0.003898  
1778.000000	0.004152  
1777.000000	0.004309  
1776.000000	0.004370  
1775.000000	0.004362  
1774.000000	0.004318  
1773.000000	0.004275  
1772.000000	0.004235  
1771.000000	0.004191  
1770.000000	0.004184  
1769.000000	0.004270  
1768.000000	0.004438  
1767.000000	0.004614  
1766.000000	0.004747  
1765.000000	0.004865  
1764.000000	0.005020  
1763.000000	0.005234  
1762.000000	0.005521  
1761.000000	0.005887  
1760.000000	0.006284  
1759.000000	0.006658  
1758.000000	0.007055  
1757.000000	0.007613  
1756.000000	0.008365  
1755.000000	0.009197  
1754.000000	0.010098  
1753.000000	0.011300  
1752.000000	0.013082  
1751.000000	0.015490  
1750.000000	0.018463  
1749.000000	0.022141  
1748.000000	0.026585  
1747.000000	0.031528  
1746.000000	0.036711  
1745.000000	0.042019  
1744.000000	0.047044  
1743.000000	0.050995  
1742.000000	0.053272  
1741.000000	0.053654  
1740.000000	0.052035  
1739.000000	0.048833  
1738.000000	0.045094  
1737.000000	0.041366  
1736.000000	0.037250  
1735.000000	0.032014  
1734.000000	0.026286  
1733.000000	0.021845  
1732.000000	0.018979  
1731.000000	0.016828  
1730.000000	0.014969  
1729.000000	0.013424  
1728.000000	0.012227  
1727.000000	0.011282  
1726.000000	0.010485  
1725.000000	0.009785  
1724.000000	0.009142  
1723.000000	0.008557  
1722.000000	0.008071  
1721.000000	0.007686  
1720.000000	0.007340  
1719.000000	0.007007  
1718.000000	0.006717  
1717.000000	0.006409  
1716.000000	0.006094  
1715.000000	0.005908  
1714.000000	0.005864  
1713.000000	0.005854  
1712.000000	0.005779  
1711.000000	0.005620  
1710.000000	0.005434  
1709.000000	0.005265  
1708.000000	0.005126  
1707.000000	0.005051  
1706.000000	0.005063  
1705.000000	0.005102  
1704.000000	0.005148  
1703.000000	0.005263  
1702.000000	0.005486  
1701.000000	0.005649  
1700.000000	0.005589  
1699.000000	0.005488  
1698.000000	0.005495  
1697.000000	0.005480  
1696.000000	0.005329  
1695.000000	0.005174  
1694.000000	0.005096  
1693.000000	0.005017  
1692.000000	0.004907  
1691.000000	0.004807  
1690.000000	0.004777  
1689.000000	0.004789  
1688.000000	0.004778  
1687.000000	0.004708  
1686.000000	0.004596  
1685.000000	0.004467  
1684.000000	0.004410  
1683.000000	0.004513  
1682.000000	0.004687  
1681.000000	0.004818  
1680.000000	0.004852  
1679.000000	0.004810  
1678.000000	0.004701  
1677.000000	0.004551  
1676.000000	0.004422  
1675.000000	0.004440  
1674.000000	0.004644  
1673.000000	0.004915  
1672.000000	0.005137  
1671.000000	0.005259  
1670.000000	0.005282  
1669.000000	0.005271  
1668.000000	0.005273  
1667.000000	0.005285  
1666.000000	0.005337  
1665.000000	0.005466  
1664.000000	0.005659  
1663.000000	0.005849  
1662.000000	0.005981  
1661.000000	0.006091  
1660.000000	0.006225  
1659.000000	0.006368  
1658.000000	0.006424  
1657.000000	0.006377  
1656.000000	0.006258  
1655.000000	0.006191  
1654.000000	0.006283  
1653.000000	0.006576  
1652.000000	0.006905  
1651.000000	0.007011  
1650.000000	0.007010  
1649.000000	0.007036  
1648.000000	0.007151  
1647.000000	0.007236  
1646.000000	0.007215  
1645.000000	0.007122  
1644.000000	0.007003  
1643.000000	0.006904  
1642.000000	0.006895  
1641.000000	0.006936  
1640.000000	0.006947  
1639.000000	0.006886  
1638.000000	0.006810  
1637.000000	0.006799  
1636.000000	0.006854  
1635.000000	0.006887  
1634.000000	0.006865  
1633.000000	0.006826  
1632.000000	0.006798  
1631.000000	0.006778  
1630.000000	0.006726  
1629.000000	0.006651  
1628.000000	0.006599  
1627.000000	0.006598  
1626.000000	0.006627  
1625.000000	0.006651  
1624.000000	0.006636  
1623.000000	0.006561  
1622.000000	0.006470  
1621.000000	0.006439  
1620.000000	0.006470  
1619.000000	0.006502  
1618.000000	0.006466  
1617.000000	0.006371  
1616.000000	0.006318  
1615.000000	0.006312  
1614.000000	0.006295  
1613.000000	0.006267  
1612.000000	0.006262  
1611.000000	0.006286  
1610.000000	0.006314  
1609.000000	0.006330  
1608.000000	0.006327  
1607.000000	0.006289  
1606.000000	0.006226  
1605.000000	0.006174  
1604.000000	0.006140  
1603.000000	0.006086  
1602.000000	0.005992  
1601.000000	0.005894  
1600.000000	0.005807  
1599.000000	0.005700  
1598.000000	0.005573  
1597.000000	0.005485  
1596.000000	0.005491  
1595.000000	0.005582  
1594.000000	0.005701  
1593.000000	0.005819  
1592.000000	0.005939  
1591.000000	0.006041  
1590.000000	0.006098  
1589.000000	0.006118  
1588.000000	0.006143  
1587.000000	0.006191  
1586.000000	0.006264  
1585.000000	0.006357  
1584.000000	0.006452  
1583.000000	0.006521  
1582.000000	0.006560  
1581.000000	0.006603  
1580.000000	0.006690  
1579.000000	0.006809  
1578.000000	0.006907  
1577.000000	0.006921  
1576.000000	0.006849  
1575.000000	0.006776  
1574.000000	0.006804  
1573.000000	0.006965  
1572.000000	0.007180  
1571.000000	0.007304  
1570.000000	0.007244  
1569.000000	0.007129  
1568.000000	0.007093  
1567.000000	0.007077  
1566.000000	0.006968  
1565.000000	0.006780  
1564.000000	0.006543  
1563.000000	0.006312  
1562.000000	0.006095  
1561.000000	0.005958  
1560.000000	0.005994  
1559.000000	0.006015  
1558.000000	0.005903  
1557.000000	0.005970  
1556.000000	0.006225  
1555.000000	0.006406  
1554.000000	0.006525  
1553.000000	0.006477  
1552.000000	0.006300  
1551.000000	0.006020  
1550.000000	0.005772  
1549.000000	0.005647  
1548.000000	0.005628  
1547.000000	0.005641  
1546.000000	0.005691  
1545.000000	0.005780  
1544.000000	0.005846  
1543.000000	0.005857  
1542.000000	0.005888  
1541.000000	0.005886  
1540.000000	0.005707  
1539.000000	0.005536  
1538.000000	0.005576  
1537.000000	0.005738  
1536.000000	0.005875  
1535.000000	0.005912  
1534.000000	0.005794  
1533.000000	0.005589  
1532.000000	0.005435  
1531.000000	0.005392  
1530.000000	0.005389  
1529.000000	0.005375  
1528.000000	0.005364  
1527.000000	0.005428  
1526.000000	0.005614  
1525.000000	0.005837  
1524.000000	0.005961  
1523.000000	0.005971  
1522.000000	0.005976  
1521.000000	0.006044  
1520.000000	0.006125  
1519.000000	0.006144  
1518.000000	0.006119  
1517.000000	0.006117  
1516.000000	0.006177  
1515.000000	0.006331  
1514.000000	0.006589  
1513.000000	0.006895  
1512.000000	0.007107  
1511.000000	0.007158  
1510.000000	0.007158  
1509.000000	0.007307  
1508.000000	0.007640  
1507.000000	0.007977  
1506.000000	0.008356  
1505.000000	0.008771  
1504.000000	0.008978  
1503.000000	0.008965  
1502.000000	0.008916  
1501.000000	0.008883  
1500.000000	0.008848  
1499.000000	0.008838  
1498.000000	0.009089  
1497.000000	0.009644  
1496.000000	0.010129  
1495.000000	0.010331  
1494.000000	0.010468  
1493.000000	0.010705  
1492.000000	0.010923  
1491.000000	0.010973  
1490.000000	0.010991  
1489.000000	0.011198  
1488.000000	0.011572  
1487.000000	0.012000  
1486.000000	0.012464  
1485.000000	0.013005  
1484.000000	0.013613  
1483.000000	0.014306  
1482.000000	0.015196  
1481.000000	0.016287  
1480.000000	0.017414  
1479.000000	0.018528  
1478.000000	0.019866  
1477.000000	0.021628  
1476.000000	0.023735  
1475.000000	0.026234  
1474.000000	0.029830  
1473.000000	0.035290  
1472.000000	0.042062  
1471.000000	0.048873  
1470.000000	0.055283  
1469.000000	0.061288  
1468.000000	0.066628  
1467.000000	0.071063  
1466.000000	0.074671  
1465.000000	0.077552  
1464.000000	0.079577  
1463.000000	0.080848  
1462.000000	0.081745  
1461.000000	0.082504  
1460.000000	0.083160  
1459.000000	0.083785  
1458.000000	0.084448  
1457.000000	0.084499  
1456.000000	0.083213  
1455.000000	0.081044  
1454.000000	0.078604  
1453.000000	0.075916  
1452.000000	0.073005  
1451.000000	0.070141  
1450.000000	0.067538  
1449.000000	0.064984  
1448.000000	0.062220  
1447.000000	0.059387  
1446.000000	0.056685  
1445.000000	0.053972  
1444.000000	0.051044  
1443.000000	0.047961  
1442.000000	0.044952  
1441.000000	0.042199  
1440.000000	0.039735  
1439.000000	0.037435  
1438.000000	0.035062  
1437.000000	0.032517  
1436.000000	0.030173  
1435.000000	0.028407  
1434.000000	0.027006  
1433.000000	0.025550  
1432.000000	0.023900  
1431.000000	0.022178  
1430.000000	0.020574  
1429.000000	0.019206  
1428.000000	0.018163  
1427.000000	0.017449  
1426.000000	0.016944  
1425.000000	0.016520  
1424.000000	0.016146  
1423.000000	0.015844  
1422.000000	0.015586  
1421.000000	0.015283  
1420.000000	0.014887  
1419.000000	0.014463  
1418.000000	0.014117  
1417.000000	0.013856  
1416.000000	0.013620  
1415.000000	0.013376  
1414.000000	0.013112  
1413.000000	0.012828  
1412.000000	0.012551  
1411.000000	0.012306  
1410.000000	0.012110  
1409.000000	0.011978  
1408.000000	0.011941  
1407.000000	0.012016  
1406.000000	0.012179  
1405.000000	0.012384  
1404.000000	0.012619  
1403.000000	0.012885  
1402.000000	0.013144  
1401.000000	0.013358  
1400.000000	0.013564  
1399.000000	0.013825  
1398.000000	0.014142  
1397.000000	0.014481  
1396.000000	0.014824  
1395.000000	0.015170  
1394.000000	0.015535  
1393.000000	0.015947  
1392.000000	0.016412  
1391.000000	0.016951  
1390.000000	0.017643  
1389.000000	0.018660  
1388.000000	0.020207  
1387.000000	0.022276  
1386.000000	0.024595  
1385.000000	0.026969  
1384.000000	0.029481  
1383.000000	0.032328  
1382.000000	0.035615  
1381.000000	0.039254  
1380.000000	0.042898  
1379.000000	0.045880  
1378.000000	0.047493  
1377.000000	0.047427  
1376.000000	0.045791  
1375.000000	0.042902  
1374.000000	0.039346  
1373.000000	0.035925  
1372.000000	0.033159  
1371.000000	0.031109  
1370.000000	0.029694  
1369.000000	0.028883  
1368.000000	0.028543  
1367.000000	0.028335  
1366.000000	0.027880  
1365.000000	0.026962  
1364.000000	0.025596  
1363.000000	0.024012  
1362.000000	0.022556  
1361.000000	0.021484  
1360.000000	0.020806  
1359.000000	0.020373  
1358.000000	0.020039  
1357.000000	0.019754  
1356.000000	0.019551  
1355.000000	0.019462  
1354.000000	0.019453  
1353.000000	0.019443  
1352.000000	0.019395  
1351.000000	0.019315  
1350.000000	0.019196  
1349.000000	0.019020  
1348.000000	0.018783  
1347.000000	0.018500  
1346.000000	0.018200  
1345.000000	0.017933  
1344.000000	0.017745  
1343.000000	0.017620  
1342.000000	0.017486  
1341.000000	0.017285  
1340.000000	0.017005  
1339.000000	0.016650  
1338.000000	0.016242  
1337.000000	0.015834  
1336.000000	0.015481  
1335.000000	0.015206  
1334.000000	0.014974  
1333.000000	0.014742  
1332.000000	0.014525  
1331.000000	0.014361  
1330.000000	0.014246  
1329.000000	0.014152  
1328.000000	0.014088  
1327.000000	0.014079  
1326.000000	0.014104  
1325.000000	0.014132  
1324.000000	0.014166  
1323.000000	0.014235  
1322.000000	0.014348  
1321.000000	0.014478  
1320.000000	0.014602  
1319.000000	0.014714  
1318.000000	0.014819  
1317.000000	0.014916  
1316.000000	0.015010  
1315.000000	0.015119  
1314.000000	0.015263  
1313.000000	0.015438  
1312.000000	0.015616  
1311.000000	0.015770  
1310.000000	0.015899  
1309.000000	0.016024  
1308.000000	0.016166  
1307.000000	0.016324  
1306.000000	0.016476  
1305.000000	0.016594  
1304.000000	0.016649  
1303.000000	0.016614  
1302.000000	0.016493  
1301.000000	0.016332  
1300.000000	0.016188  
1299.000000	0.016085  
1298.000000	0.015997  
1297.000000	0.015886  
1296.000000	0.015729  
1295.000000	0.015520  
1294.000000	0.015264  
1293.000000	0.014989  
1292.000000	0.014750  
1291.000000	0.014593  
1290.000000	0.014528  
1289.000000	0.014531  
1288.000000	0.014583  
1287.000000	0.014681  
1286.000000	0.014828  
1285.000000	0.015016  
1284.000000	0.015229  
1283.000000	0.015443  
1282.000000	0.015647  
1281.000000	0.015833  
1280.000000	0.015993  
1279.000000	0.016114  
1278.000000	0.016201  
1277.000000	0.016297  
1276.000000	0.016452  
1275.000000	0.016672  
1274.000000	0.016913  
1273.000000	0.017129  
1272.000000	0.017302  
1271.000000	0.017428  
1270.000000	0.017504  
1269.000000	0.017546  
1268.000000	0.017586  
1267.000000	0.017636  
1266.000000	0.017673  
1265.000000	0.017666  
1264.000000	0.017622  
1263.000000	0.017593  
1262.000000	0.017636  
1261.000000	0.017758  
1260.000000	0.017908  
1259.000000	0.018017  
1258.000000	0.018059  
1257.000000	0.018066  
1256.000000	0.018081  
1255.000000	0.018128  
1254.000000	0.018228  
1253.000000	0.018417  
1252.000000	0.018709  
1251.000000	0.019045  
1250.000000	0.019337  
1249.000000	0.019561  
1248.000000	0.019782  
1247.000000	0.020064  
1246.000000	0.020394  
1245.000000	0.020702  
1244.000000	0.020918  
1243.000000	0.021010  
1242.000000	0.020980  
1241.000000	0.020857  
1240.000000	0.020687  
1239.000000	0.020493  
1238.000000	0.020270  
1237.000000	0.020010  
1236.000000	0.019734  
1235.000000	0.019469  
1234.000000	0.019205  
1233.000000	0.018902  
1232.000000	0.018545  
1231.000000	0.018169  
1230.000000	0.017815  
1229.000000	0.017496  
1228.000000	0.017214  
1227.000000	0.016986  
1226.000000	0.016825  
1225.000000	0.016703  
1224.000000	0.016588  
1223.000000	0.016478  
1222.000000	0.016395  
1221.000000	0.016334  
1220.000000	0.016263  
1219.000000	0.016179  
1218.000000	0.016131  
1217.000000	0.016163  
1216.000000	0.016267  
1215.000000	0.016392  
1214.000000	0.016494  
1213.000000	0.016554  
1212.000000	0.016590  
1211.000000	0.016660  
1210.000000	0.016821  
1209.000000	0.017056  
1208.000000	0.017263  
1207.000000	0.017367  
1206.000000	0.017422  
1205.000000	0.017552  
1204.000000	0.017799  
1203.000000	0.018097  
1202.000000	0.018380  
1201.000000	0.018669  
1200.000000	0.019011  
1199.000000	0.019412  
1198.000000	0.019858  
1197.000000	0.020361  
1196.000000	0.020933  
1195.000000	0.021544  
1194.000000	0.022155  
1193.000000	0.022765  
1192.000000	0.023395  
1191.000000	0.024019  
1190.000000	0.024597  
1189.000000	0.025135  
1188.000000	0.025694  
1187.000000	0.026318  
1186.000000	0.026997  
1185.000000	0.027706  
1184.000000	0.028429  
1183.000000	0.029153  
1182.000000	0.029859  
1181.000000	0.030536  
1180.000000	0.031179  
1179.000000	0.031768  
1178.000000	0.032275  
1177.000000	0.032688  
1176.000000	0.033003  
1175.000000	0.033207  
1174.000000	0.033295  
1173.000000	0.033294  
1172.000000	0.033234  
1171.000000	0.033099  
1170.000000	0.032842  
1169.000000	0.032447  
1168.000000	0.031952  
1167.000000	0.031410  
1166.000000	0.030853  
1165.000000	0.030278  
1164.000000	0.029653  
1163.000000	0.028945  
1162.000000	0.028172  
1161.000000	0.027411  
1160.000000	0.026742  
1159.000000	0.026168  
1158.000000	0.025612  
1157.000000	0.025005  
1156.000000	0.024339  
1155.000000	0.023645  
1154.000000	0.022936  
1153.000000	0.022223  
1152.000000	0.021550  
1151.000000	0.020982  
1150.000000	0.020560  
1149.000000	0.020273  
1148.000000	0.020065  
1147.000000	0.019859  
1146.000000	0.019583  
1145.000000	0.019201  
1144.000000	0.018725  
1143.000000	0.018196  
1142.000000	0.017666  
1141.000000	0.017181  
1140.000000	0.016761  
1139.000000	0.016387  
1138.000000	0.016028  
1137.000000	0.015697  
1136.000000	0.015431  
1135.000000	0.015215  
1134.000000	0.014978  
1133.000000	0.014692  
1132.000000	0.014421  
1131.000000	0.014251  
1130.000000	0.014201  
1129.000000	0.014244  
1128.000000	0.014371  
1127.000000	0.014583  
1126.000000	0.014840  
1125.000000	0.015089  
1124.000000	0.015331  
1123.000000	0.015595  
1122.000000	0.015862  
1121.000000	0.016064  
1120.000000	0.016159  
1119.000000	0.016167  
1118.000000	0.016118  
1117.000000	0.016018  
1116.000000	0.015868  
1115.000000	0.015676  
1114.000000	0.015435  
1113.000000	0.015136  
1112.000000	0.014815  
1111.000000	0.014537  
1110.000000	0.014322  
1109.000000	0.014137  
1108.000000	0.013963  
1107.000000	0.013849  
1106.000000	0.013850  
1105.000000	0.013948  
1104.000000	0.014062  
1103.000000	0.014124  
1102.000000	0.014145  
1101.000000	0.014193  
1100.000000	0.014320  
1099.000000	0.014516  
1098.000000	0.014698  
1097.000000	0.014802  
1096.000000	0.014849  
1095.000000	0.014903  
1094.000000	0.014977  
1093.000000	0.015014  
1092.000000	0.014959  
1091.000000	0.014817  
1090.000000	0.014623  
1089.000000	0.014396  
1088.000000	0.014151  
1087.000000	0.013927  
1086.000000	0.013770  
1085.000000	0.013688  
1084.000000	0.013647  
1083.000000	0.013597  
1082.000000	0.013500  
1081.000000	0.013362  
1080.000000	0.013250  
1079.000000	0.013268  
1078.000000	0.013463  
1077.000000	0.013781  
1076.000000	0.014133  
1075.000000	0.014471  
1074.000000	0.014789  
1073.000000	0.015068  
1072.000000	0.015264  
1071.000000	0.015362  
1070.000000	0.015418  
1069.000000	0.015503  
1068.000000	0.015634  
1067.000000	0.015767  
1066.000000	0.015865  
1065.000000	0.015934  
1064.000000	0.015984  
1063.000000	0.015976  
1062.000000	0.015830  
1061.000000	0.015519  
1060.000000	0.015116  
1059.000000	0.014752  
1058.000000	0.014512  
1057.000000	0.014409  
1056.000000	0.014412  
1055.000000	0.014466  
1054.000000	0.014465  
1053.000000	0.014267  
1052.000000	0.013812  
1051.000000	0.013241  
1050.000000	0.012827  
1049.000000	0.012748  
1048.000000	0.012933  
1047.000000	0.013170  
1046.000000	0.013312  
1045.000000	0.013364  
1044.000000	0.013420  
1043.000000	0.013549  
1042.000000	0.013750  
1041.000000	0.013955  
1040.000000	0.014083  
1039.000000	0.014091  
1038.000000	0.014000  
1037.000000	0.013879  
1036.000000	0.013794  
1035.000000	0.013774  
1034.000000	0.013813  
1033.000000	0.013887  
1032.000000	0.013966  
1031.000000	0.014023  
1030.000000	0.014051  
1029.000000	0.014077  
1028.000000	0.014130  
1027.000000	0.014202  
1026.000000	0.014254  
1025.000000	0.014254  
1024.000000	0.014188  
1023.000000	0.014051  
1022.000000	0.013854  
1021.000000	0.013638  
1020.000000	0.013445  
1019.000000	0.013272  
1018.000000	0.013087  
1017.000000	0.012893  
1016.000000	0.012740  
1015.000000	0.012664  
1014.000000	0.012630  
1013.000000	0.012575  
1012.000000	0.012469  
1011.000000	0.012326  
1010.000000	0.012171  
1009.000000	0.012039  
1008.000000	0.011970  
1007.000000	0.011978  
1006.000000	0.012028  
1005.000000	0.012067  
1004.000000	0.012072  
1003.000000	0.012050  
1002.000000	0.012008  
1001.000000	0.011939  
1000.000000	0.011824  
999.000000	 0.011639  
998.000000	 0.011397  
997.000000	 0.011177  
996.000000	 0.011088  
995.000000	 0.011155  
994.000000	 0.011270  
993.000000	 0.011292  
992.000000	 0.011185  
991.000000	 0.011040  
990.000000	 0.010975  
989.000000	 0.011042  
988.000000	 0.011202  
987.000000	 0.011350  
986.000000	 0.011384  
985.000000	 0.011303  
984.000000	 0.011225  
983.000000	 0.011274  
982.000000	 0.011451  
981.000000	 0.011662  
980.000000	 0.011845  
979.000000	 0.012024  
978.000000	 0.012241  
977.000000	 0.012479  
976.000000	 0.012684  
975.000000	 0.012823  
974.000000	 0.012893  
973.000000	 0.012928  
972.000000	 0.012984  
971.000000	 0.013106  
970.000000	 0.013287  
969.000000	 0.013475  
968.000000	 0.013629  
967.000000	 0.013733  
966.000000	 0.013757  
965.000000	 0.013660  
964.000000	 0.013446  
963.000000	 0.013201  
962.000000	 0.013030  
961.000000	 0.012962  
960.000000	 0.012943  
959.000000	 0.012894  
958.000000	 0.012775  
957.000000	 0.012614  
956.000000	 0.012482  
955.000000	 0.012432  
954.000000	 0.012450  
953.000000	 0.012475  
952.000000	 0.012476  
951.000000	 0.012469  
950.000000	 0.012476  
949.000000	 0.012483  
948.000000	 0.012472  
947.000000	 0.012459  
946.000000	 0.012482  
945.000000	 0.012551  
944.000000	 0.012623  
943.000000	 0.012632  
942.000000	 0.012532  
941.000000	 0.012323  
940.000000	 0.012043  
939.000000	 0.011743  
938.000000	 0.011454  
937.000000	 0.011190  
936.000000	 0.010966  
935.000000	 0.010792  
934.000000	 0.010670  
933.000000	 0.010613  
932.000000	 0.010651  
931.000000	 0.010773  
930.000000	 0.010887  
929.000000	 0.010885  
928.000000	 0.010770  
927.000000	 0.010674  
926.000000	 0.010713  
925.000000	 0.010868  
924.000000	 0.011031  
923.000000	 0.011140  
922.000000	 0.011215  
921.000000	 0.011269  
920.000000	 0.011267  
919.000000	 0.011183  
918.000000	 0.011066  
917.000000	 0.011023  
916.000000	 0.011119  
915.000000	 0.011307  
914.000000	 0.011452  
913.000000	 0.011441  
912.000000	 0.011259  
911.000000	 0.011002  
910.000000	 0.010805  
909.000000	 0.010756  
908.000000	 0.010847  
907.000000	 0.010968  
906.000000	 0.010975  
905.000000	 0.010810  
904.000000	 0.010564  
903.000000	 0.010403  
902.000000	 0.010408  
901.000000	 0.010511  
900.000000	 0.010595  
899.000000	 0.010623  
898.000000	 0.010642  
897.000000	 0.010698  
896.000000	 0.010769  
895.000000	 0.010802  
894.000000	 0.010777  
893.000000	 0.010721  
892.000000	 0.010684  
891.000000	 0.010709  
890.000000	 0.010811  
889.000000	 0.010978  
888.000000	 0.011164  
887.000000	 0.011295  
886.000000	 0.011308  
885.000000	 0.011193  
884.000000	 0.011011  
883.000000	 0.010857  
882.000000	 0.010796  
881.000000	 0.010840  
880.000000	 0.010948  
879.000000	 0.011047  
878.000000	 0.011068  
877.000000	 0.011002  
876.000000	 0.010913  
875.000000	 0.010872  
874.000000	 0.010863  
873.000000	 0.010790  
872.000000	 0.010591  
871.000000	 0.010340  
870.000000	 0.010216  
869.000000	 0.010347  
868.000000	 0.010676  
867.000000	 0.010985  
866.000000	 0.011072  
865.000000	 0.010911  
864.000000	 0.010641  
863.000000	 0.010406  
862.000000	 0.010248  
861.000000	 0.010163  
860.000000	 0.010174  
859.000000	 0.010298  
858.000000	 0.010466  
857.000000	 0.010583  
856.000000	 0.010662  
855.000000	 0.010820  
854.000000	 0.011129  
853.000000	 0.011519  
852.000000	 0.011867  
851.000000	 0.012136  
850.000000	 0.012364  
849.000000	 0.012551  
848.000000	 0.012641  
847.000000	 0.012605  
846.000000	 0.012506  
845.000000	 0.012428  
844.000000	 0.012387  
843.000000	 0.012334  
842.000000	 0.012229  
841.000000	 0.012094  
840.000000	 0.011981  
839.000000	 0.011924  
838.000000	 0.011933  
837.000000	 0.011985  
836.000000	 0.012002  
835.000000	 0.011853  
834.000000	 0.011476  
833.000000	 0.010996  
832.000000	 0.010659  
831.000000	 0.010587  
830.000000	 0.010643  
829.000000	 0.010613  
828.000000	 0.010507  
827.000000	 0.010557  
826.000000	 0.010899  
825.000000	 0.011356  
824.000000	 0.011619  
823.000000	 0.011588  
822.000000	 0.011416  
821.000000	 0.011302  
820.000000	 0.011329  
819.000000	 0.011483  
818.000000	 0.011726  
817.000000	 0.012014  
816.000000	 0.012289  
815.000000	 0.012477  
814.000000	 0.012518  
813.000000	 0.012411  
812.000000	 0.012249  
811.000000	 0.012169  
810.000000	 0.012266  
809.000000	 0.012533  
808.000000	 0.012864  
807.000000	 0.013116  
806.000000	 0.013188  
805.000000	 0.013077  
804.000000	 0.012849  
803.000000	 0.012566  
802.000000	 0.012244  
801.000000	 0.011895  
800.000000	 0.011556  
799.000000	 0.011246  
798.000000	 0.010942  
797.000000	 0.010639  
796.000000	 0.010399  
795.000000	 0.010289  
794.000000	 0.010283  
793.000000	 0.010314  
792.000000	 0.010388  
791.000000	 0.010574  
790.000000	 0.010846  
789.000000	 0.011039  
788.000000	 0.011032  
787.000000	 0.010921  
786.000000	 0.010936  
785.000000	 0.011200  
784.000000	 0.011625  
783.000000	 0.012036  
782.000000	 0.012355  
781.000000	 0.012633  
780.000000	 0.012946  
779.000000	 0.013303  
778.000000	 0.013669  
777.000000	 0.014042  
776.000000	 0.014450  
775.000000	 0.014883  
774.000000	 0.015273  
773.000000	 0.015573  
772.000000	 0.015825  
771.000000	 0.016099  
770.000000	 0.016392  
769.000000	 0.016632  
768.000000	 0.016758  
767.000000	 0.016761  
766.000000	 0.016642  
765.000000	 0.016400  
764.000000	 0.016083  
763.000000	 0.015820  
762.000000	 0.015733  
761.000000	 0.015839  
760.000000	 0.016029  
759.000000	 0.016174  
758.000000	 0.016242  
757.000000	 0.016336  
756.000000	 0.016577  
755.000000	 0.016967  
754.000000	 0.017371  
753.000000	 0.017662  
752.000000	 0.017834  
751.000000	 0.017950  
750.000000	 0.018051  
749.000000	 0.018173  
748.000000	 0.018424  
747.000000	 0.018952  
746.000000	 0.019843  
745.000000	 0.021073  
744.000000	 0.022551  
743.000000	 0.024113  
742.000000	 0.025499  
741.000000	 0.026472  
740.000000	 0.026995  
739.000000	 0.027247  
738.000000	 0.027402  
737.000000	 0.027484  
736.000000	 0.027461  
735.000000	 0.027380  
734.000000	 0.027353  
733.000000	 0.027452  
732.000000	 0.027685  
731.000000	 0.028039  
730.000000	 0.028517  
729.000000	 0.029181  
728.000000	 0.030124  
727.000000	 0.031361  
726.000000	 0.032757  
725.000000	 0.034080  
724.000000	 0.035158  
723.000000	 0.035954  
722.000000	 0.036420  
721.000000	 0.036291  
720.000000	 0.035203  
719.000000	 0.033168  
718.000000	 0.030733  
717.000000	 0.028549  
716.000000	 0.026970  
715.000000	 0.025963  
714.000000	 0.025233  
713.000000	 0.024490  
712.000000	 0.023639  
711.000000	 0.022785  
710.000000	 0.022091  
709.000000	 0.021639  
708.000000	 0.021375  
707.000000	 0.021188  
706.000000	 0.021103  
705.000000	 0.021292  
704.000000	 0.021797  
703.000000	 0.022367  
702.000000	 0.022654  
701.000000	 0.022558  
700.000000	 0.022304  
699.000000	 0.022087  
698.000000	 0.021813  
697.000000	 0.021237  
696.000000	 0.020332  
695.000000	 0.019450  
694.000000	 0.018966  
693.000000	 0.018838  
692.000000	 0.018621  
691.000000	 0.017896  
690.000000	 0.016721  
689.000000	 0.015532  
688.000000	 0.014621  
687.000000	 0.013891  
686.000000	 0.013142  
685.000000	 0.012438  
684.000000	 0.012014  
683.000000	 0.011904  
682.000000	 0.011923  
681.000000	 0.011921  
680.000000	 0.011880  
679.000000	 0.011740  
678.000000	 0.011469  
677.000000	 0.011304  
676.000000	 0.011332  
675.000000	 0.011414  
674.000000	 0.011381  
673.000000	 0.011004  
672.000000	 0.009669  
671.000000	 0.006153  
670.000000	 -0.000531 
669.000000	 -0.010104 
668.000000	 -0.016596 
667.000000	 -0.011840 
666.000000	 -0.002061 
665.000000	 0.004776  
664.000000	 0.008285  
663.000000	 0.009858  
662.000000	 0.010336  
661.000000	 0.010024  
660.000000	 0.009407  
659.000000	 0.009129  
658.000000	 0.009297  
657.000000	 0.009384  
656.000000	 0.008716  
655.000000	 0.007415  
654.000000	 0.006336  
653.000000	 0.006132  
652.000000	 0.006680  
651.000000	 0.007439  
650.000000	 0.008038  

