PE IR                   SPECTRUM    ASCII       PEDS        1.60        
  -1
NB3027~1.ASC
17/04/10
13:04:01.00
17/04/10
13:04:01.00
Admin

650.000000
6









SPECTRUM ONE,CPU32 MAIN 00.02.5000 17-APRIL-2002 13:00:00
MIR TGS
MIR
OPTKBR
68128
0.200000

4.000000
STRONG
RATIO
SPECTRUM
MAGNITUDE

DOUBLE

COMBINED


0


#HDR
-1
-1
#GR
CM-1
A
0.00000011920928955078
0.0
4000.000000
-1.000000
3351
8
0.218981
-0.001266
#DATA
4000.000000	0.000649  
3999.000000	0.000803  
3998.000000	0.000958  
3997.000000	0.001112  
3996.000000	0.001267  
3995.000000	0.001390  
3994.000000	0.001433  
3993.000000	0.001390  
3992.000000	0.001291  
3991.000000	0.001229  
3990.000000	0.001156  
3989.000000	0.001114  
3988.000000	0.001072  
3987.000000	0.001006  
3986.000000	0.000936  
3985.000000	0.000914  
3984.000000	0.000954  
3983.000000	0.000989  
3982.000000	0.000931  
3981.000000	0.000766  
3980.000000	0.000583  
3979.000000	0.000499  
3978.000000	0.000560  
3977.000000	0.000729  
3976.000000	0.000937  
3975.000000	0.001134  
3974.000000	0.001288  
3973.000000	0.001366  
3972.000000	0.001348  
3971.000000	0.001253  
3970.000000	0.001133  
3969.000000	0.001032  
3968.000000	0.000947  
3967.000000	0.000857  
3966.000000	0.000783  
3965.000000	0.000788  
3964.000000	0.000921  
3963.000000	0.001148  
3962.000000	0.001360  
3961.000000	0.001461  
3960.000000	0.001427  
3959.000000	0.001305  
3958.000000	0.001154  
3957.000000	0.001013  
3956.000000	0.000900  
3955.000000	0.000826  
3954.000000	0.000802  
3953.000000	0.000838  
3952.000000	0.000924  
3951.000000	0.001033  
3950.000000	0.001139  
3949.000000	0.001241  
3948.000000	0.001353  
3947.000000	0.001465  
3946.000000	0.001525  
3945.000000	0.001476  
3944.000000	0.001315  
3943.000000	0.001111  
3942.000000	0.000950  
3941.000000	0.000886  
3940.000000	0.000924  
3939.000000	0.001040  
3938.000000	0.001193  
3937.000000	0.001335  
3936.000000	0.001423  
3935.000000	0.001453  
3934.000000	0.001467  
3933.000000	0.001510  
3932.000000	0.001578  
3931.000000	0.001615  
3930.000000	0.001581  
3929.000000	0.001503  
3928.000000	0.001459  
3927.000000	0.001508  
3926.000000	0.001638  
3925.000000	0.001778  
3924.000000	0.001863  
3923.000000	0.001893  
3922.000000	0.001903  
3921.000000	0.001915  
3920.000000	0.001911  
3919.000000	0.001858  
3918.000000	0.001744  
3917.000000	0.001601  
3916.000000	0.001483  
3915.000000	0.001429  
3914.000000	0.001427  
3913.000000	0.001421  
3912.000000	0.001343  
3911.000000	0.001182  
3910.000000	0.001009  
3909.000000	0.000932  
3908.000000	0.001010  
3907.000000	0.001213  
3906.000000	0.001446  
3905.000000	0.001612  
3904.000000	0.001674  
3903.000000	0.001649  
3902.000000	0.001576  
3901.000000	0.001500  
3900.000000	0.001475  
3899.000000	0.001518  
3898.000000	0.001578  
3897.000000	0.001586  
3896.000000	0.001517  
3895.000000	0.001409  
3894.000000	0.001316  
3893.000000	0.001268  
3892.000000	0.001249  
3891.000000	0.001217  
3890.000000	0.001148  
3889.000000	0.001062  
3888.000000	0.001017  
3887.000000	0.001056  
3886.000000	0.001133  
3885.000000	0.001160  
3884.000000	0.001109  
3883.000000	0.001042  
3882.000000	0.001034  
3881.000000	0.001086  
3880.000000	0.001128  
3879.000000	0.001121  
3878.000000	0.001095  
3877.000000	0.001119  
3876.000000	0.001238  
3875.000000	0.001423  
3874.000000	0.001589  
3873.000000	0.001693  
3872.000000	0.001770  
3871.000000	0.001866  
3870.000000	0.001963  
3869.000000	0.001994  
3868.000000	0.001920  
3867.000000	0.001772  
3866.000000	0.001621  
3865.000000	0.001498  
3864.000000	0.001394  
3863.000000	0.001331  
3862.000000	0.001331  
3861.000000	0.001346  
3860.000000	0.001298  
3859.000000	0.001182  
3858.000000	0.001093  
3857.000000	0.001116  
3856.000000	0.001246  
3855.000000	0.001381  
3854.000000	0.001445  
3853.000000	0.001501  
3852.000000	0.001606  
3851.000000	0.001734  
3850.000000	0.001880  
3849.000000	0.002015  
3848.000000	0.002077  
3847.000000	0.002057  
3846.000000	0.002031  
3845.000000	0.002075  
3844.000000	0.002196  
3843.000000	0.002343  
3842.000000	0.002451  
3841.000000	0.002480  
3840.000000	0.002437  
3839.000000	0.002353  
3838.000000	0.002254  
3837.000000	0.002149  
3836.000000	0.002046  
3835.000000	0.001967  
3834.000000	0.001933  
3833.000000	0.001929  
3832.000000	0.001887  
3831.000000	0.001760  
3830.000000	0.001574  
3829.000000	0.001405  
3828.000000	0.001303  
3827.000000	0.001243  
3826.000000	0.001181  
3825.000000	0.001137  
3824.000000	0.001237  
3823.000000	0.001593  
3822.000000	0.002101  
3821.000000	0.002426  
3820.000000	0.002341  
3819.000000	0.001946  
3818.000000	0.001535  
3817.000000	0.001351  
3816.000000	0.001427  
3815.000000	0.001612  
3814.000000	0.001734  
3813.000000	0.001734  
3812.000000	0.001638  
3811.000000	0.001457  
3810.000000	0.001198  
3809.000000	0.000940  
3808.000000	0.000814  
3807.000000	0.000889  
3806.000000	0.001120  
3805.000000	0.001411  
3804.000000	0.001703  
3803.000000	0.001937  
3802.000000	0.002007  
3801.000000	0.001888  
3800.000000	0.001680  
3799.000000	0.001510  
3798.000000	0.001463  
3797.000000	0.001543  
3796.000000	0.001658  
3795.000000	0.001719  
3794.000000	0.001709  
3793.000000	0.001667  
3792.000000	0.001623  
3791.000000	0.001563  
3790.000000	0.001455  
3789.000000	0.001305  
3788.000000	0.001166  
3787.000000	0.001112  
3786.000000	0.001170  
3785.000000	0.001281  
3784.000000	0.001346  
3783.000000	0.001299  
3782.000000	0.001163  
3781.000000	0.001018  
3780.000000	0.000941  
3779.000000	0.000947  
3778.000000	0.001000  
3777.000000	0.001062  
3776.000000	0.001114  
3775.000000	0.001142  
3774.000000	0.001123  
3773.000000	0.001051  
3772.000000	0.000972  
3771.000000	0.000978  
3770.000000	0.001126  
3769.000000	0.001360  
3768.000000	0.001550  
3767.000000	0.001597  
3766.000000	0.001489  
3765.000000	0.001291  
3764.000000	0.001087  
3763.000000	0.000940  
3762.000000	0.000881  
3761.000000	0.000895  
3760.000000	0.000930  
3759.000000	0.000949  
3758.000000	0.000967  
3757.000000	0.001008  
3756.000000	0.001069  
3755.000000	0.001170  
3754.000000	0.001411  
3753.000000	0.001878  
3752.000000	0.002435  
3751.000000	0.002727  
3750.000000	0.002562  
3749.000000	0.002129  
3748.000000	0.001738  
3747.000000	0.001614  
3746.000000	0.001830  
3745.000000	0.002194  
3744.000000	0.002381  
3743.000000	0.002255  
3742.000000	0.001946  
3741.000000	0.001738  
3740.000000	0.001832  
3739.000000	0.002174  
3738.000000	0.002593  
3737.000000	0.002914  
3736.000000	0.003004  
3735.000000	0.002892  
3734.000000	0.002740  
3733.000000	0.002645  
3732.000000	0.002552  
3731.000000	0.002372  
3730.000000	0.002124  
3729.000000	0.001900  
3728.000000	0.001753  
3727.000000	0.001653  
3726.000000	0.001558  
3725.000000	0.001475  
3724.000000	0.001428  
3723.000000	0.001406  
3722.000000	0.001353  
3721.000000	0.001214  
3720.000000	0.001007  
3719.000000	0.000818  
3718.000000	0.000736  
3717.000000	0.000770  
3716.000000	0.000837  
3715.000000	0.000812  
3714.000000	0.000623  
3713.000000	0.000333  
3712.000000	0.000137  
3711.000000	0.000184  
3710.000000	0.000428  
3709.000000	0.000721  
3708.000000	0.000985  
3707.000000	0.001240  
3706.000000	0.001513  
3705.000000	0.001740  
3704.000000	0.001785  
3703.000000	0.001582  
3702.000000	0.001239  
3701.000000	0.000946  
3700.000000	0.000806  
3699.000000	0.000799  
3698.000000	0.000862  
3697.000000	0.000947  
3696.000000	0.001020  
3695.000000	0.001058  
3694.000000	0.001069  
3693.000000	0.001067  
3692.000000	0.001048  
3691.000000	0.001024  
3690.000000	0.001069  
3689.000000	0.001249  
3688.000000	0.001506  
3687.000000	0.001671  
3686.000000	0.001643  
3685.000000	0.001505  
3684.000000	0.001410  
3683.000000	0.001399  
3682.000000	0.001390  
3681.000000	0.001289  
3680.000000	0.001081  
3679.000000	0.000870  
3678.000000	0.000826  
3677.000000	0.001068  
3676.000000	0.001497  
3675.000000	0.001842  
3674.000000	0.001945  
3673.000000	0.001894  
3672.000000	0.001891  
3671.000000	0.002046  
3670.000000	0.002257  
3669.000000	0.002350  
3668.000000	0.002264  
3667.000000	0.002049  
3666.000000	0.001770  
3665.000000	0.001458  
3664.000000	0.001119  
3663.000000	0.000757  
3662.000000	0.000400  
3661.000000	0.000100  
3660.000000	-0.000084 
3659.000000	-0.000093 
3658.000000	0.000115  
3657.000000	0.000512  
3656.000000	0.000953  
3655.000000	0.001277  
3654.000000	0.001424  
3653.000000	0.001448  
3652.000000	0.001413  
3651.000000	0.001314  
3650.000000	0.001123  
3649.000000	0.000919  
3648.000000	0.000874  
3647.000000	0.001055  
3646.000000	0.001321  
3645.000000	0.001511  
3644.000000	0.001612  
3643.000000	0.001689  
3642.000000	0.001760  
3641.000000	0.001777  
3640.000000	0.001689  
3639.000000	0.001496  
3638.000000	0.001266  
3637.000000	0.001094  
3636.000000	0.001047  
3635.000000	0.001132  
3634.000000	0.001278  
3633.000000	0.001389  
3632.000000	0.001415  
3631.000000	0.001387  
3630.000000	0.001365  
3629.000000	0.001365  
3628.000000	0.001328  
3627.000000	0.001220  
3626.000000	0.001112  
3625.000000	0.001107  
3624.000000	0.001238  
3623.000000	0.001431  
3622.000000	0.001576  
3621.000000	0.001599  
3620.000000	0.001489  
3619.000000	0.001308  
3618.000000	0.001149  
3617.000000	0.001077  
3616.000000	0.001111  
3615.000000	0.001246  
3614.000000	0.001448  
3613.000000	0.001651  
3612.000000	0.001797  
3611.000000	0.001877  
3610.000000	0.001905  
3609.000000	0.001880  
3608.000000	0.001786  
3607.000000	0.001609  
3606.000000	0.001357  
3605.000000	0.001058  
3604.000000	0.000769  
3603.000000	0.000588  
3602.000000	0.000624  
3601.000000	0.000907  
3600.000000	0.001346  
3599.000000	0.001768  
3598.000000	0.002015  
3597.000000	0.002012  
3596.000000	0.001809  
3595.000000	0.001558  
3594.000000	0.001407  
3593.000000	0.001381  
3592.000000	0.001400  
3591.000000	0.001391  
3590.000000	0.001378  
3589.000000	0.001435  
3588.000000	0.001581  
3587.000000	0.001742  
3586.000000	0.001844  
3585.000000	0.001853  
3584.000000	0.001740  
3583.000000	0.001508  
3582.000000	0.001236  
3581.000000	0.001048  
3580.000000	0.001032  
3579.000000	0.001150  
3578.000000	0.001264  
3577.000000	0.001260  
3576.000000	0.001156  
3575.000000	0.001048  
3574.000000	0.000974  
3573.000000	0.000891  
3572.000000	0.000772  
3571.000000	0.000710  
3570.000000	0.000868  
3569.000000	0.001299  
3568.000000	0.001802  
3567.000000	0.002060  
3566.000000	0.001984  
3565.000000	0.001768  
3564.000000	0.001604  
3563.000000	0.001528  
3562.000000	0.001497  
3561.000000	0.001480  
3560.000000	0.001491  
3559.000000	0.001554  
3558.000000	0.001630  
3557.000000	0.001631  
3556.000000	0.001497  
3555.000000	0.001264  
3554.000000	0.001037  
3553.000000	0.000899  
3552.000000	0.000854  
3551.000000	0.000847  
3550.000000	0.000819  
3549.000000	0.000746  
3548.000000	0.000648  
3547.000000	0.000584  
3546.000000	0.000627  
3545.000000	0.000799  
3544.000000	0.001040  
3543.000000	0.001247  
3542.000000	0.001365  
3541.000000	0.001413  
3540.000000	0.001431  
3539.000000	0.001412  
3538.000000	0.001312  
3537.000000	0.001123  
3536.000000	0.000916  
3535.000000	0.000788  
3534.000000	0.000784  
3533.000000	0.000874  
3532.000000	0.001002  
3531.000000	0.001126  
3530.000000	0.001228  
3529.000000	0.001295  
3528.000000	0.001314  
3527.000000	0.001279  
3526.000000	0.001185  
3525.000000	0.001040  
3524.000000	0.000870  
3523.000000	0.000732  
3522.000000	0.000680  
3521.000000	0.000724  
3520.000000	0.000823  
3519.000000	0.000913  
3518.000000	0.000962  
3517.000000	0.000984  
3516.000000	0.001021  
3515.000000	0.001106  
3514.000000	0.001226  
3513.000000	0.001327  
3512.000000	0.001363  
3511.000000	0.001337  
3510.000000	0.001294  
3509.000000	0.001266  
3508.000000	0.001239  
3507.000000	0.001192  
3506.000000	0.001144  
3505.000000	0.001141  
3504.000000	0.001199  
3503.000000	0.001293  
3502.000000	0.001396  
3501.000000	0.001498  
3500.000000	0.001588  
3499.000000	0.001657  
3498.000000	0.001702  
3497.000000	0.001726  
3496.000000	0.001714  
3495.000000	0.001643  
3494.000000	0.001508  
3493.000000	0.001318  
3492.000000	0.001088  
3491.000000	0.000840  
3490.000000	0.000622  
3489.000000	0.000496  
3488.000000	0.000496  
3487.000000	0.000617  
3486.000000	0.000837  
3485.000000	0.001125  
3484.000000	0.001398  
3483.000000	0.001534  
3482.000000	0.001466  
3481.000000	0.001258  
3480.000000	0.001059  
3479.000000	0.000968  
3478.000000	0.000970  
3477.000000	0.000985  
3476.000000	0.000952  
3475.000000	0.000875  
3474.000000	0.000807  
3473.000000	0.000794  
3472.000000	0.000818  
3471.000000	0.000811  
3470.000000	0.000730  
3469.000000	0.000608  
3468.000000	0.000524  
3467.000000	0.000526  
3466.000000	0.000597  
3465.000000	0.000675  
3464.000000	0.000693  
3463.000000	0.000628  
3462.000000	0.000522  
3461.000000	0.000454  
3460.000000	0.000460  
3459.000000	0.000499  
3458.000000	0.000505  
3457.000000	0.000462  
3456.000000	0.000407  
3455.000000	0.000378  
3454.000000	0.000404  
3453.000000	0.000514  
3452.000000	0.000721  
3451.000000	0.000968  
3450.000000	0.001151  
3449.000000	0.001208  
3448.000000	0.001183  
3447.000000	0.001173  
3446.000000	0.001227  
3445.000000	0.001321  
3444.000000	0.001390  
3443.000000	0.001380  
3442.000000	0.001284  
3441.000000	0.001150  
3440.000000	0.001059  
3439.000000	0.001060  
3438.000000	0.001118  
3437.000000	0.001128  
3436.000000	0.000997  
3435.000000	0.000734  
3434.000000	0.000469  
3433.000000	0.000362  
3432.000000	0.000479  
3431.000000	0.000728  
3430.000000	0.000943  
3429.000000	0.001012  
3428.000000	0.000931  
3427.000000	0.000762  
3426.000000	0.000579  
3425.000000	0.000453  
3424.000000	0.000424  
3423.000000	0.000485  
3422.000000	0.000590  
3421.000000	0.000696  
3420.000000	0.000784  
3419.000000	0.000841  
3418.000000	0.000852  
3417.000000	0.000831  
3416.000000	0.000814  
3415.000000	0.000820  
3414.000000	0.000834  
3413.000000	0.000862  
3412.000000	0.000940  
3411.000000	0.001081  
3410.000000	0.001208  
3409.000000	0.001208  
3408.000000	0.001046  
3407.000000	0.000805  
3406.000000	0.000613  
3405.000000	0.000538  
3404.000000	0.000563  
3403.000000	0.000641  
3402.000000	0.000751  
3401.000000	0.000885  
3400.000000	0.001007  
3399.000000	0.001046  
3398.000000	0.000969  
3397.000000	0.000860  
3396.000000	0.000865  
3395.000000	0.001060  
3394.000000	0.001362  
3393.000000	0.001607  
3392.000000	0.001681  
3391.000000	0.001585  
3390.000000	0.001399  
3389.000000	0.001229  
3388.000000	0.001142  
3387.000000	0.001116  
3386.000000	0.001066  
3385.000000	0.000952  
3384.000000	0.000845  
3383.000000	0.000857  
3382.000000	0.001001  
3381.000000	0.001185  
3380.000000	0.001304  
3379.000000	0.001315  
3378.000000	0.001216  
3377.000000	0.001014  
3376.000000	0.000757  
3375.000000	0.000554  
3374.000000	0.000509  
3373.000000	0.000619  
3372.000000	0.000778  
3371.000000	0.000887  
3370.000000	0.000953  
3369.000000	0.001058  
3368.000000	0.001241  
3367.000000	0.001433  
3366.000000	0.001525  
3365.000000	0.001484  
3364.000000	0.001374  
3363.000000	0.001274  
3362.000000	0.001214  
3361.000000	0.001193  
3360.000000	0.001213  
3359.000000	0.001258  
3358.000000	0.001277  
3357.000000	0.001235  
3356.000000	0.001169  
3355.000000	0.001145  
3354.000000	0.001165  
3353.000000	0.001168  
3352.000000	0.001117  
3351.000000	0.001032  
3350.000000	0.000945  
3349.000000	0.000864  
3348.000000	0.000816  
3347.000000	0.000864  
3346.000000	0.001029  
3345.000000	0.001225  
3344.000000	0.001321  
3343.000000	0.001268  
3342.000000	0.001133  
3341.000000	0.001001  
3340.000000	0.000900  
3339.000000	0.000819  
3338.000000	0.000768  
3337.000000	0.000776  
3336.000000	0.000844  
3335.000000	0.000925  
3334.000000	0.000962  
3333.000000	0.000948  
3332.000000	0.000918  
3331.000000	0.000911  
3330.000000	0.000931  
3329.000000	0.000971  
3328.000000	0.001034  
3327.000000	0.001120  
3326.000000	0.001193  
3325.000000	0.001189  
3324.000000	0.001081  
3323.000000	0.000915  
3322.000000	0.000774  
3321.000000	0.000724  
3320.000000	0.000783  
3319.000000	0.000941  
3318.000000	0.001158  
3317.000000	0.001373  
3316.000000	0.001507  
3315.000000	0.001510  
3314.000000	0.001393  
3313.000000	0.001236  
3312.000000	0.001139  
3311.000000	0.001155  
3310.000000	0.001246  
3309.000000	0.001295  
3308.000000	0.001196  
3307.000000	0.000954  
3306.000000	0.000700  
3305.000000	0.000592  
3304.000000	0.000676  
3303.000000	0.000853  
3302.000000	0.000987  
3301.000000	0.001037  
3300.000000	0.001051  
3299.000000	0.001057  
3298.000000	0.001022  
3297.000000	0.000926  
3296.000000	0.000820  
3295.000000	0.000771  
3294.000000	0.000787  
3293.000000	0.000840  
3292.000000	0.000929  
3291.000000	0.001063  
3290.000000	0.001189  
3289.000000	0.001214  
3288.000000	0.001120  
3287.000000	0.000990  
3286.000000	0.000910  
3285.000000	0.000868  
3284.000000	0.000805  
3283.000000	0.000724  
3282.000000	0.000692  
3281.000000	0.000747  
3280.000000	0.000846  
3279.000000	0.000921  
3278.000000	0.000944  
3277.000000	0.000946  
3276.000000	0.000983  
3275.000000	0.001094  
3274.000000	0.001275  
3273.000000	0.001464  
3272.000000	0.001569  
3271.000000	0.001531  
3270.000000	0.001371  
3269.000000	0.001166  
3268.000000	0.000982  
3267.000000	0.000832  
3266.000000	0.000717  
3265.000000	0.000681  
3264.000000	0.000791  
3263.000000	0.001045  
3262.000000	0.001340  
3261.000000	0.001563  
3260.000000	0.001691  
3259.000000	0.001771  
3258.000000	0.001822  
3257.000000	0.001806  
3256.000000	0.001690  
3255.000000	0.001513  
3254.000000	0.001373  
3253.000000	0.001357  
3252.000000	0.001466  
3251.000000	0.001606  
3250.000000	0.001659  
3249.000000	0.001600  
3248.000000	0.001521  
3247.000000	0.001508  
3246.000000	0.001517  
3245.000000	0.001444  
3244.000000	0.001289  
3243.000000	0.001176  
3242.000000	0.001198  
3241.000000	0.001310  
3240.000000	0.001402  
3239.000000	0.001414  
3238.000000	0.001339  
3237.000000	0.001186  
3236.000000	0.000997  
3235.000000	0.000857  
3234.000000	0.000830  
3233.000000	0.000900  
3232.000000	0.001018  
3231.000000	0.001158  
3230.000000	0.001301  
3229.000000	0.001392  
3228.000000	0.001392  
3227.000000	0.001354  
3226.000000	0.001371  
3225.000000	0.001462  
3224.000000	0.001555  
3223.000000	0.001580  
3222.000000	0.001519  
3221.000000	0.001391  
3220.000000	0.001224  
3219.000000	0.001080  
3218.000000	0.001031  
3217.000000	0.001091  
3216.000000	0.001203  
3215.000000	0.001301  
3214.000000	0.001369  
3213.000000	0.001421  
3212.000000	0.001471  
3211.000000	0.001524  
3210.000000	0.001579  
3209.000000	0.001617  
3208.000000	0.001618  
3207.000000	0.001604  
3206.000000	0.001635  
3205.000000	0.001742  
3204.000000	0.001897  
3203.000000	0.002044  
3202.000000	0.002136  
3201.000000	0.002130  
3200.000000	0.001989  
3199.000000	0.001731  
3198.000000	0.001435  
3197.000000	0.001185  
3196.000000	0.001008  
3195.000000	0.000895  
3194.000000	0.000858  
3193.000000	0.000924  
3192.000000	0.001089  
3191.000000	0.001314  
3190.000000	0.001562  
3189.000000	0.001802  
3188.000000	0.001994  
3187.000000	0.002090  
3186.000000	0.002085  
3185.000000	0.002029  
3184.000000	0.001969  
3183.000000	0.001902  
3182.000000	0.001791  
3181.000000	0.001632  
3180.000000	0.001469  
3179.000000	0.001350  
3178.000000	0.001298  
3177.000000	0.001323  
3176.000000	0.001442  
3175.000000	0.001644  
3174.000000	0.001856  
3173.000000	0.001979  
3172.000000	0.001963  
3171.000000	0.001855  
3170.000000	0.001751  
3169.000000	0.001718  
3168.000000	0.001764  
3167.000000	0.001856  
3166.000000	0.001941  
3165.000000	0.001974  
3164.000000	0.001942  
3163.000000	0.001869  
3162.000000	0.001796  
3161.000000	0.001758  
3160.000000	0.001763  
3159.000000	0.001811  
3158.000000	0.001891  
3157.000000	0.001982  
3156.000000	0.002057  
3155.000000	0.002102  
3154.000000	0.002120  
3153.000000	0.002133  
3152.000000	0.002147  
3151.000000	0.002128  
3150.000000	0.002016  
3149.000000	0.001790  
3148.000000	0.001517  
3147.000000	0.001310  
3146.000000	0.001227  
3145.000000	0.001240  
3144.000000	0.001295  
3143.000000	0.001365  
3142.000000	0.001426  
3141.000000	0.001444  
3140.000000	0.001417  
3139.000000	0.001412  
3138.000000	0.001505  
3137.000000	0.001685  
3136.000000	0.001849  
3135.000000	0.001901  
3134.000000	0.001831  
3133.000000	0.001717  
3132.000000	0.001666  
3131.000000	0.001740  
3130.000000	0.001907  
3129.000000	0.002061  
3128.000000	0.002100  
3127.000000	0.002009  
3126.000000	0.001848  
3125.000000	0.001699  
3124.000000	0.001630  
3123.000000	0.001690  
3122.000000	0.001879  
3121.000000	0.002111  
3120.000000	0.002262  
3119.000000	0.002262  
3118.000000	0.002130  
3117.000000	0.001942  
3116.000000	0.001782  
3115.000000	0.001718  
3114.000000	0.001766  
3113.000000	0.001861  
3112.000000	0.001913  
3111.000000	0.001899  
3110.000000	0.001884  
3109.000000	0.001924  
3108.000000	0.001989  
3107.000000	0.002003  
3106.000000	0.001931  
3105.000000	0.001822  
3104.000000	0.001767  
3103.000000	0.001825  
3102.000000	0.001972  
3101.000000	0.002101  
3100.000000	0.002101  
3099.000000	0.001953  
3098.000000	0.001745  
3097.000000	0.001588  
3096.000000	0.001544  
3095.000000	0.001611  
3094.000000	0.001754  
3093.000000	0.001913  
3092.000000	0.002031  
3091.000000	0.002093  
3090.000000	0.002127  
3089.000000	0.002154  
3088.000000	0.002174  
3087.000000	0.002194  
3086.000000	0.002249  
3085.000000	0.002344  
3084.000000	0.002416  
3083.000000	0.002396  
3082.000000	0.002302  
3081.000000	0.002239  
3080.000000	0.002296  
3079.000000	0.002470  
3078.000000	0.002690  
3077.000000	0.002870  
3076.000000	0.002946  
3075.000000	0.002900  
3074.000000	0.002763  
3073.000000	0.002613  
3072.000000	0.002528  
3071.000000	0.002552  
3070.000000	0.002660  
3069.000000	0.002780  
3068.000000	0.002845  
3067.000000	0.002852  
3066.000000	0.002865  
3065.000000	0.002958  
3064.000000	0.003154  
3063.000000	0.003400  
3062.000000	0.003594  
3061.000000	0.003641  
3060.000000	0.003523  
3059.000000	0.003326  
3058.000000	0.003177  
3057.000000	0.003140  
3056.000000	0.003187  
3055.000000	0.003272  
3054.000000	0.003375  
3053.000000	0.003480  
3052.000000	0.003530  
3051.000000	0.003491  
3050.000000	0.003412  
3049.000000	0.003405  
3048.000000	0.003529  
3047.000000	0.003744  
3046.000000	0.003960  
3045.000000	0.004104  
3044.000000	0.004132  
3043.000000	0.004038  
3042.000000	0.003859  
3041.000000	0.003684  
3040.000000	0.003612  
3039.000000	0.003686  
3038.000000	0.003861  
3037.000000	0.004027  
3036.000000	0.004088  
3035.000000	0.004017  
3034.000000	0.003872  
3033.000000	0.003751  
3032.000000	0.003742  
3031.000000	0.003896  
3030.000000	0.004197  
3029.000000	0.004554  
3028.000000	0.004844  
3027.000000	0.004995  
3026.000000	0.005036  
3025.000000	0.005061  
3024.000000	0.005153  
3023.000000	0.005329  
3022.000000	0.005539  
3021.000000	0.005683  
3020.000000	0.005685  
3019.000000	0.005578  
3018.000000	0.005501  
3017.000000	0.005573  
3016.000000	0.005775  
3015.000000	0.005990  
3014.000000	0.006136  
3013.000000	0.006213  
3012.000000	0.006251  
3011.000000	0.006274  
3010.000000	0.006321  
3009.000000	0.006446  
3008.000000	0.006673  
3007.000000	0.006964  
3006.000000	0.007246  
3005.000000	0.007448  
3004.000000	0.007523  
3003.000000	0.007465  
3002.000000	0.007352  
3001.000000	0.007328  
3000.000000	0.007501  
2999.000000	0.007855  
2998.000000	0.008263  
2997.000000	0.008583  
2996.000000	0.008763  
2995.000000	0.008872  
2994.000000	0.009040  
2993.000000	0.009366  
2992.000000	0.009850  
2991.000000	0.010411  
2990.000000	0.010972  
2989.000000	0.011511  
2988.000000	0.012055  
2987.000000	0.012659  
2986.000000	0.013383  
2985.000000	0.014276  
2984.000000	0.015341  
2983.000000	0.016538  
2982.000000	0.017823  
2981.000000	0.019199  
2980.000000	0.020699  
2979.000000	0.022363  
2978.000000	0.024241  
2977.000000	0.026407  
2976.000000	0.028928  
2975.000000	0.031833  
2974.000000	0.035103  
2973.000000	0.038701  
2972.000000	0.042604  
2971.000000	0.046813  
2970.000000	0.051361  
2969.000000	0.056309  
2968.000000	0.061688  
2967.000000	0.067416  
2966.000000	0.073290  
2965.000000	0.079087  
2964.000000	0.084682  
2963.000000	0.090068  
2962.000000	0.095276  
2961.000000	0.100284  
2960.000000	0.105006  
2959.000000	0.109307  
2958.000000	0.113035  
2957.000000	0.116055  
2956.000000	0.118273  
2955.000000	0.119621  
2954.000000	0.120028  
2953.000000	0.119451  
2952.000000	0.117956  
2951.000000	0.115751  
2950.000000	0.113134  
2949.000000	0.110403  
2948.000000	0.107783  
2947.000000	0.105432  
2946.000000	0.103495  
2945.000000	0.102159  
2944.000000	0.101639  
2943.000000	0.102109  
2942.000000	0.103636  
2941.000000	0.106184  
2940.000000	0.109656  
2939.000000	0.113953  
2938.000000	0.119002  
2937.000000	0.124742  
2936.000000	0.131078  
2935.000000	0.137857  
2934.000000	0.144909  
2933.000000	0.152162  
2932.000000	0.159661  
2931.000000	0.167461  
2930.000000	0.175486  
2929.000000	0.183525  
2928.000000	0.191306  
2927.000000	0.198558  
2926.000000	0.205009  
2925.000000	0.210434  
2924.000000	0.214687  
2923.000000	0.217611  
2922.000000	0.218981  
2921.000000	0.218648  
2920.000000	0.216744  
2919.000000	0.213642  
2918.000000	0.209689  
2917.000000	0.205067  
2916.000000	0.199910  
2915.000000	0.194419  
2914.000000	0.188822  
2913.000000	0.183272  
2912.000000	0.177867  
2911.000000	0.172710  
2910.000000	0.167889  
2909.000000	0.163384  
2908.000000	0.159049  
2907.000000	0.154703  
2906.000000	0.150252  
2905.000000	0.145739  
2904.000000	0.141302  
2903.000000	0.137088  
2902.000000	0.133153  
2901.000000	0.129438  
2900.000000	0.125804  
2899.000000	0.122130  
2898.000000	0.118382  
2897.000000	0.114620  
2896.000000	0.110937  
2895.000000	0.107397  
2894.000000	0.104004  
2893.000000	0.100701  
2892.000000	0.097393  
2891.000000	0.094021  
2890.000000	0.090635  
2889.000000	0.087403  
2888.000000	0.084509  
2887.000000	0.082039  
2886.000000	0.079970  
2885.000000	0.078266  
2884.000000	0.076955  
2883.000000	0.076118  
2882.000000	0.075819  
2881.000000	0.076095  
2880.000000	0.076998  
2879.000000	0.078618  
2878.000000	0.081014  
2877.000000	0.084120  
2876.000000	0.087697  
2875.000000	0.091388  
2874.000000	0.094805  
2873.000000	0.097612  
2872.000000	0.099587  
2871.000000	0.100682  
2870.000000	0.101057  
2869.000000	0.101028  
2868.000000	0.100936  
2867.000000	0.101046  
2866.000000	0.101545  
2865.000000	0.102611  
2864.000000	0.104407  
2863.000000	0.106987  
2862.000000	0.110245  
2861.000000	0.114011  
2860.000000	0.118178  
2859.000000	0.122691  
2858.000000	0.127416  
2857.000000	0.132030  
2856.000000	0.136049  
2855.000000	0.138938  
2854.000000	0.140231  
2853.000000	0.139668  
2852.000000	0.137272  
2851.000000	0.133302  
2850.000000	0.128098  
2849.000000	0.121963  
2848.000000	0.115174  
2847.000000	0.108034  
2846.000000	0.100846  
2845.000000	0.093812  
2844.000000	0.086968  
2843.000000	0.080254  
2842.000000	0.073658  
2841.000000	0.067282  
2840.000000	0.061263  
2839.000000	0.055689  
2838.000000	0.050590  
2837.000000	0.045990  
2836.000000	0.041888  
2835.000000	0.038226  
2834.000000	0.034907  
2833.000000	0.031881  
2832.000000	0.029176  
2831.000000	0.026859  
2830.000000	0.024951  
2829.000000	0.023394  
2828.000000	0.022069  
2827.000000	0.020850  
2826.000000	0.019671  
2825.000000	0.018542  
2824.000000	0.017513  
2823.000000	0.016618  
2822.000000	0.015860  
2821.000000	0.015222  
2820.000000	0.014683  
2819.000000	0.014194  
2818.000000	0.013704  
2817.000000	0.013188  
2816.000000	0.012666  
2815.000000	0.012165  
2814.000000	0.011689  
2813.000000	0.011226  
2812.000000	0.010778  
2811.000000	0.010373  
2810.000000	0.010041  
2809.000000	0.009797  
2808.000000	0.009628  
2807.000000	0.009510  
2806.000000	0.009404  
2805.000000	0.009264  
2804.000000	0.009053  
2803.000000	0.008760  
2802.000000	0.008418  
2801.000000	0.008097  
2800.000000	0.007857  
2799.000000	0.007706  
2798.000000	0.007607  
2797.000000	0.007524  
2796.000000	0.007446  
2795.000000	0.007371  
2794.000000	0.007267  
2793.000000	0.007077  
2792.000000	0.006770  
2791.000000	0.006389  
2790.000000	0.006050  
2789.000000	0.005860  
2788.000000	0.005834  
2787.000000	0.005884  
2786.000000	0.005895  
2785.000000	0.005806  
2784.000000	0.005635  
2783.000000	0.005437  
2782.000000	0.005272  
2781.000000	0.005190  
2780.000000	0.005210  
2779.000000	0.005293  
2778.000000	0.005347  
2777.000000	0.005282  
2776.000000	0.005071  
2775.000000	0.004778  
2774.000000	0.004523  
2773.000000	0.004401  
2772.000000	0.004417  
2771.000000	0.004491  
2770.000000	0.004527  
2769.000000	0.004479  
2768.000000	0.004358  
2767.000000	0.004197  
2766.000000	0.004034  
2765.000000	0.003925  
2764.000000	0.003921  
2763.000000	0.004018  
2762.000000	0.004146  
2761.000000	0.004222  
2760.000000	0.004220  
2759.000000	0.004164  
2758.000000	0.004084  
2757.000000	0.003995  
2756.000000	0.003917  
2755.000000	0.003877  
2754.000000	0.003883  
2753.000000	0.003902  
2752.000000	0.003888  
2751.000000	0.003834  
2750.000000	0.003784  
2749.000000	0.003793  
2748.000000	0.003863  
2747.000000	0.003931  
2746.000000	0.003936  
2745.000000	0.003883  
2744.000000	0.003838  
2743.000000	0.003853  
2742.000000	0.003919  
2741.000000	0.003992  
2740.000000	0.004050  
2739.000000	0.004101  
2738.000000	0.004146  
2737.000000	0.004190  
2736.000000	0.004262  
2735.000000	0.004399  
2734.000000	0.004589  
2733.000000	0.004758  
2732.000000	0.004824  
2731.000000	0.004779  
2730.000000	0.004689  
2729.000000	0.004636  
2728.000000	0.004654  
2727.000000	0.004712  
2726.000000	0.004741  
2725.000000	0.004701  
2724.000000	0.004615  
2723.000000	0.004548  
2722.000000	0.004534  
2721.000000	0.004556  
2720.000000	0.004579  
2719.000000	0.004588  
2718.000000	0.004579  
2717.000000	0.004544  
2716.000000	0.004479  
2715.000000	0.004396  
2714.000000	0.004291  
2713.000000	0.004134  
2712.000000	0.003918  
2711.000000	0.003705  
2710.000000	0.003584  
2709.000000	0.003582  
2708.000000	0.003639  
2707.000000	0.003689  
2706.000000	0.003706  
2705.000000	0.003682  
2704.000000	0.003597  
2703.000000	0.003450  
2702.000000	0.003294  
2701.000000	0.003196  
2700.000000	0.003172  
2699.000000	0.003182  
2698.000000	0.003199  
2697.000000	0.003230  
2696.000000	0.003290  
2695.000000	0.003366  
2694.000000	0.003432  
2693.000000	0.003474  
2692.000000	0.003484  
2691.000000	0.003475  
2690.000000	0.003489  
2689.000000	0.003582  
2688.000000	0.003762  
2687.000000	0.003944  
2686.000000	0.004024  
2685.000000	0.003988  
2684.000000	0.003932  
2683.000000	0.003956  
2682.000000	0.004063  
2681.000000	0.004172  
2680.000000	0.004214  
2679.000000	0.004186  
2678.000000	0.004128  
2677.000000	0.004095  
2676.000000	0.004120  
2675.000000	0.004205  
2674.000000	0.004303  
2673.000000	0.004351  
2672.000000	0.004324  
2671.000000	0.004251  
2670.000000	0.004183  
2669.000000	0.004166  
2668.000000	0.004225  
2667.000000	0.004358  
2666.000000	0.004520  
2665.000000	0.004642  
2664.000000	0.004670  
2663.000000	0.004593  
2662.000000	0.004424  
2661.000000	0.004192  
2660.000000	0.003954  
2659.000000	0.003778  
2658.000000	0.003689  
2657.000000	0.003649  
2656.000000	0.003619  
2655.000000	0.003607  
2654.000000	0.003630  
2653.000000	0.003655  
2652.000000	0.003634  
2651.000000	0.003585  
2650.000000	0.003585  
2649.000000	0.003669  
2648.000000	0.003775  
2647.000000	0.003814  
2646.000000	0.003758  
2645.000000	0.003640  
2644.000000	0.003522  
2643.000000	0.003467  
2642.000000	0.003511  
2641.000000	0.003622  
2640.000000	0.003710  
2639.000000	0.003694  
2638.000000	0.003570  
2637.000000	0.003391  
2636.000000	0.003232  
2635.000000	0.003169  
2634.000000	0.003258  
2633.000000	0.003475  
2632.000000	0.003697  
2631.000000	0.003798  
2630.000000	0.003756  
2629.000000	0.003657  
2628.000000	0.003591  
2627.000000	0.003588  
2626.000000	0.003630  
2625.000000	0.003671  
2624.000000	0.003661  
2623.000000	0.003564  
2622.000000	0.003399  
2621.000000	0.003221  
2620.000000	0.003078  
2619.000000	0.002989  
2618.000000	0.002959  
2617.000000	0.002980  
2616.000000	0.003022  
2615.000000	0.003052  
2614.000000	0.003082  
2613.000000	0.003147  
2612.000000	0.003244  
2611.000000	0.003321  
2610.000000	0.003351  
2609.000000	0.003359  
2608.000000	0.003372  
2607.000000	0.003368  
2606.000000	0.003323  
2605.000000	0.003259  
2604.000000	0.003217  
2603.000000	0.003201  
2602.000000	0.003197  
2601.000000	0.003221  
2600.000000	0.003293  
2599.000000	0.003358  
2598.000000	0.003293  
2597.000000	0.003049  
2596.000000	0.002727  
2595.000000	0.002492  
2594.000000	0.002404  
2593.000000	0.002383  
2592.000000	0.002329  
2591.000000	0.002237  
2590.000000	0.002181  
2589.000000	0.002217  
2588.000000	0.002329  
2587.000000	0.002459  
2586.000000	0.002559  
2585.000000	0.002600  
2584.000000	0.002571  
2583.000000	0.002476  
2582.000000	0.002346  
2581.000000	0.002219  
2580.000000	0.002137  
2579.000000	0.002142  
2578.000000	0.002259  
2577.000000	0.002448  
2576.000000	0.002597  
2575.000000	0.002590  
2574.000000	0.002416  
2573.000000	0.002198  
2572.000000	0.002091  
2571.000000	0.002155  
2570.000000	0.002302  
2569.000000	0.002384  
2568.000000	0.002315  
2567.000000	0.002123  
2566.000000	0.001905  
2565.000000	0.001738  
2564.000000	0.001641  
2563.000000	0.001605  
2562.000000	0.001629  
2561.000000	0.001712  
2560.000000	0.001825  
2559.000000	0.001924  
2558.000000	0.002009  
2557.000000	0.002125  
2556.000000	0.002289  
2555.000000	0.002426  
2554.000000	0.002422  
2553.000000	0.002264  
2552.000000	0.002095  
2551.000000	0.002093  
2550.000000	0.002291  
2549.000000	0.002538  
2548.000000	0.002654  
2547.000000	0.002573  
2546.000000	0.002354  
2545.000000	0.002087  
2544.000000	0.001848  
2543.000000	0.001697  
2542.000000	0.001669  
2541.000000	0.001728  
2540.000000	0.001795  
2539.000000	0.001839  
2538.000000	0.001897  
2537.000000	0.001997  
2536.000000	0.002075  
2535.000000	0.002041  
2534.000000	0.001898  
2533.000000	0.001752  
2532.000000	0.001693  
2531.000000	0.001688  
2530.000000	0.001630  
2529.000000	0.001480  
2528.000000	0.001327  
2527.000000	0.001318  
2526.000000	0.001503  
2525.000000	0.001791  
2524.000000	0.002037  
2523.000000	0.002171  
2522.000000	0.002206  
2521.000000	0.002164  
2520.000000	0.002045  
2519.000000	0.001887  
2518.000000	0.001783  
2517.000000	0.001801  
2516.000000	0.001915  
2515.000000	0.002042  
2514.000000	0.002128  
2513.000000	0.002166  
2512.000000	0.002148  
2511.000000	0.002051  
2510.000000	0.001880  
2509.000000	0.001684  
2508.000000	0.001543  
2507.000000	0.001524  
2506.000000	0.001652  
2505.000000	0.001872  
2504.000000	0.002052  
2503.000000	0.002070  
2502.000000	0.001930  
2501.000000	0.001771  
2500.000000	0.001733  
2499.000000	0.001807  
2498.000000	0.001832  
2497.000000	0.001643  
2496.000000	0.001231  
2495.000000	0.000783  
2494.000000	0.000551  
2493.000000	0.000654  
2492.000000	0.001008  
2491.000000	0.001421  
2490.000000	0.001753  
2489.000000	0.001971  
2488.000000	0.002080  
2487.000000	0.002065  
2486.000000	0.001904  
2485.000000	0.001622  
2484.000000	0.001310  
2483.000000	0.001092  
2482.000000	0.001068  
2481.000000	0.001252  
2480.000000	0.001559  
2479.000000	0.001846  
2478.000000	0.001996  
2477.000000	0.001973  
2476.000000	0.001818  
2475.000000	0.001606  
2474.000000	0.001408  
2473.000000	0.001271  
2472.000000	0.001217  
2471.000000	0.001246  
2470.000000	0.001315  
2469.000000	0.001350  
2468.000000	0.001327  
2467.000000	0.001325  
2466.000000	0.001443  
2465.000000	0.001658  
2464.000000	0.001809  
2463.000000	0.001776  
2462.000000	0.001619  
2461.000000	0.001488  
2460.000000	0.001454  
2459.000000	0.001500  
2458.000000	0.001618  
2457.000000	0.001798  
2456.000000	0.001930  
2455.000000	0.001860  
2454.000000	0.001590  
2453.000000	0.001321  
2452.000000	0.001224  
2451.000000	0.001246  
2450.000000	0.001223  
2449.000000	0.001125  
2448.000000	0.001090  
2447.000000	0.001215  
2446.000000	0.001433  
2445.000000	0.001589  
2444.000000	0.001605  
2443.000000	0.001529  
2442.000000	0.001475  
2441.000000	0.001520  
2440.000000	0.001629  
2439.000000	0.001681  
2438.000000	0.001605  
2437.000000	0.001468  
2436.000000	0.001405  
2435.000000	0.001452  
2434.000000	0.001514  
2433.000000	0.001502  
2432.000000	0.001433  
2431.000000	0.001372  
2430.000000	0.001333  
2429.000000	0.001294  
2428.000000	0.001274  
2427.000000	0.001333  
2426.000000	0.001492  
2425.000000	0.001681  
2424.000000	0.001795  
2423.000000	0.001779  
2422.000000	0.001651  
2421.000000	0.001481  
2420.000000	0.001352  
2419.000000	0.001320  
2418.000000	0.001378  
2417.000000	0.001460  
2416.000000	0.001502  
2415.000000	0.001510  
2414.000000	0.001553  
2413.000000	0.001684  
2412.000000	0.001874  
2411.000000	0.002034  
2410.000000	0.002094  
2409.000000	0.002066  
2408.000000	0.002023  
2407.000000	0.002000  
2406.000000	0.001948  
2405.000000	0.001789  
2404.000000	0.001520  
2403.000000	0.001237  
2402.000000	0.001042  
2401.000000	0.000957  
2400.000000	0.000959  
2399.000000	0.001051  
2398.000000	0.001262  
2397.000000	0.001564  
2396.000000	0.001836  
2395.000000	0.001965  
2394.000000	0.001951  
2393.000000	0.001893  
2392.000000	0.001880  
2391.000000	0.001916  
2390.000000	0.001942  
2389.000000	0.001908  
2388.000000	0.001829  
2387.000000	0.001783  
2386.000000	0.001844  
2385.000000	0.002005  
2384.000000	0.002157  
2383.000000	0.002176  
2382.000000	0.002048  
2381.000000	0.001915  
2380.000000	0.001963  
2379.000000	0.002252  
2378.000000	0.002629  
2377.000000	0.002822  
2376.000000	0.002681  
2375.000000	0.002319  
2374.000000	0.002005  
2373.000000	0.001885  
2372.000000	0.001891  
2371.000000	0.001917  
2370.000000	0.001993  
2369.000000	0.002144  
2368.000000	0.002221  
2367.000000	0.002088  
2366.000000	0.001917  
2365.000000	0.001992  
2364.000000	0.002203  
2363.000000	0.002098  
2362.000000	0.001531  
2361.000000	0.000942  
2360.000000	0.000857  
2359.000000	0.001344  
2358.000000	0.002044  
2357.000000	0.002522  
2356.000000	0.002495  
2355.000000	0.001996  
2354.000000	0.001413  
2353.000000	0.001155  
2352.000000	0.001290  
2351.000000	0.001585  
2350.000000	0.001850  
2349.000000	0.002014  
2348.000000	0.002001  
2347.000000	0.001778  
2346.000000	0.001484  
2345.000000	0.001391  
2344.000000	0.001571  
2343.000000	0.001780  
2342.000000	0.001854  
2341.000000	0.001938  
2340.000000	0.002238  
2339.000000	0.002580  
2338.000000	0.002570  
2337.000000	0.002103  
2336.000000	0.001497  
2335.000000	0.001103  
2334.000000	0.000987  
2333.000000	0.001054  
2332.000000	0.001249  
2331.000000	0.001535  
2330.000000	0.001778  
2329.000000	0.001857  
2328.000000	0.001782  
2327.000000	0.001714  
2326.000000	0.001743  
2325.000000	0.001835  
2324.000000	0.001844  
2323.000000	0.001639  
2322.000000	0.001237  
2321.000000	0.000846  
2320.000000	0.000745  
2319.000000	0.001025  
2318.000000	0.001476  
2317.000000	0.001730  
2316.000000	0.001544  
2315.000000	0.001004  
2314.000000	0.000445  
2313.000000	0.000203  
2312.000000	0.000336  
2311.000000	0.000655  
2310.000000	0.000948  
2309.000000	0.001177  
2308.000000	0.001387  
2307.000000	0.001554  
2306.000000	0.001558  
2305.000000	0.001338  
2304.000000	0.000985  
2303.000000	0.000671  
2302.000000	0.000491  
2301.000000	0.000414  
2300.000000	0.000376  
2299.000000	0.000403  
2298.000000	0.000596  
2297.000000	0.000984  
2296.000000	0.001420  
2295.000000	0.001687  
2294.000000	0.001703  
2293.000000	0.001584  
2292.000000	0.001492  
2291.000000	0.001484  
2290.000000	0.001521  
2289.000000	0.001552  
2288.000000	0.001515  
2287.000000	0.001322  
2286.000000	0.000950  
2285.000000	0.000552  
2284.000000	0.000358  
2283.000000	0.000439  
2282.000000	0.000636  
2281.000000	0.000771  
2280.000000	0.000850  
2279.000000	0.000990  
2278.000000	0.001210  
2277.000000	0.001399  
2276.000000	0.001506  
2275.000000	0.001652  
2274.000000	0.002004  
2273.000000	0.002542  
2272.000000	0.003024  
2271.000000	0.003187  
2270.000000	0.002979  
2269.000000	0.002558  
2268.000000	0.002094  
2267.000000	0.001644  
2266.000000	0.001243  
2265.000000	0.001016  
2264.000000	0.001070  
2263.000000	0.001326  
2262.000000	0.001581  
2261.000000	0.001732  
2260.000000	0.001830  
2259.000000	0.001913  
2258.000000	0.001956  
2257.000000	0.001992  
2256.000000	0.002143  
2255.000000	0.002415  
2254.000000	0.002597  
2253.000000	0.002491  
2252.000000	0.002168  
2251.000000	0.001878  
2250.000000	0.001744  
2249.000000	0.001666  
2248.000000	0.001498  
2247.000000	0.001200  
2246.000000	0.000844  
2245.000000	0.000570  
2244.000000	0.000512  
2243.000000	0.000693  
2242.000000	0.000969  
2241.000000	0.001178  
2240.000000	0.001318  
2239.000000	0.001495  
2238.000000	0.001705  
2237.000000	0.001798  
2236.000000	0.001692  
2235.000000	0.001504  
2234.000000	0.001429  
2233.000000	0.001537  
2232.000000	0.001735  
2231.000000	0.001867  
2230.000000	0.001822  
2229.000000	0.001593  
2228.000000	0.001293  
2227.000000	0.001080  
2226.000000	0.001020  
2225.000000	0.001022  
2224.000000	0.000914  
2223.000000	0.000615  
2222.000000	0.000270  
2221.000000	0.000187  
2220.000000	0.000555  
2219.000000	0.001180  
2218.000000	0.001620  
2217.000000	0.001663  
2216.000000	0.001588  
2215.000000	0.001786  
2214.000000	0.002221  
2213.000000	0.002480  
2212.000000	0.002359  
2211.000000	0.002137  
2210.000000	0.002144  
2209.000000	0.002294  
2208.000000	0.002241  
2207.000000	0.001878  
2206.000000	0.001473  
2205.000000	0.001330  
2204.000000	0.001509  
2203.000000	0.001900  
2202.000000	0.002392  
2201.000000	0.002894  
2200.000000	0.003301  
2199.000000	0.003546  
2198.000000	0.003665  
2197.000000	0.003730  
2196.000000	0.003732  
2195.000000	0.003569  
2194.000000	0.003166  
2193.000000	0.002582  
2192.000000	0.001962  
2191.000000	0.001401  
2190.000000	0.000913  
2189.000000	0.000537  
2188.000000	0.000389  
2187.000000	0.000518  
2186.000000	0.000763  
2185.000000	0.000865  
2184.000000	0.000754  
2183.000000	0.000643  
2182.000000	0.000809  
2181.000000	0.001330  
2180.000000	0.002045  
2179.000000	0.002703  
2178.000000	0.003097  
2177.000000	0.003180  
2176.000000	0.003071  
2175.000000	0.002880  
2174.000000	0.002530  
2173.000000	0.001916  
2172.000000	0.001242  
2171.000000	0.000957  
2170.000000	0.001239  
2169.000000	0.001674  
2168.000000	0.001688  
2167.000000	0.001244  
2166.000000	0.000893  
2165.000000	0.001129  
2164.000000	0.001850  
2163.000000	0.002565  
2162.000000	0.002922  
2161.000000	0.002915  
2160.000000	0.002690  
2159.000000	0.002332  
2158.000000	0.001888  
2157.000000	0.001493  
2156.000000	0.001330  
2155.000000	0.001449  
2154.000000	0.001699  
2153.000000	0.001872  
2152.000000	0.001910  
2151.000000	0.001879  
2150.000000	0.001784  
2149.000000	0.001533  
2148.000000	0.001151  
2147.000000	0.000882  
2146.000000	0.000963  
2145.000000	0.001369  
2144.000000	0.001867  
2143.000000	0.002246  
2142.000000	0.002374  
2141.000000	0.002135  
2140.000000	0.001526  
2139.000000	0.000825  
2138.000000	0.000486  
2137.000000	0.000727  
2136.000000	0.001278  
2135.000000	0.001632  
2134.000000	0.001524  
2133.000000	0.001131  
2132.000000	0.000833  
2131.000000	0.000867  
2130.000000	0.001181  
2129.000000	0.001563  
2128.000000	0.001835  
2127.000000	0.001934  
2126.000000	0.001831  
2125.000000	0.001515  
2124.000000	0.001087  
2123.000000	0.000818  
2122.000000	0.000976  
2121.000000	0.001540  
2120.000000	0.002146  
2119.000000	0.002372  
2118.000000	0.002096  
2117.000000	0.001596  
2116.000000	0.001314  
2115.000000	0.001474  
2114.000000	0.001892  
2113.000000	0.002147  
2112.000000	0.002002  
2111.000000	0.001625  
2110.000000	0.001382  
2109.000000	0.001431  
2108.000000	0.001602  
2107.000000	0.001653  
2106.000000	0.001521  
2105.000000	0.001299  
2104.000000	0.001068  
2103.000000	0.000846  
2102.000000	0.000651  
2101.000000	0.000506  
2100.000000	0.000394  
2099.000000	0.000267  
2098.000000	0.000124  
2097.000000	0.000026  
2096.000000	0.000037  
2095.000000	0.000141  
2094.000000	0.000258  
2093.000000	0.000333  
2092.000000	0.000393  
2091.000000	0.000504  
2090.000000	0.000665  
2089.000000	0.000807  
2088.000000	0.000924  
2087.000000	0.001144  
2086.000000	0.001571  
2085.000000	0.002061  
2084.000000	0.002282  
2083.000000	0.002042  
2082.000000	0.001511  
2081.000000	0.001079  
2080.000000	0.001023  
2079.000000	0.001325  
2078.000000	0.001731  
2077.000000	0.001924  
2076.000000	0.001752  
2075.000000	0.001366  
2074.000000	0.001096  
2073.000000	0.001131  
2072.000000	0.001333  
2071.000000	0.001445  
2070.000000	0.001389  
2069.000000	0.001269  
2068.000000	0.001171  
2067.000000	0.001093  
2066.000000	0.001055  
2065.000000	0.001117  
2064.000000	0.001278  
2063.000000	0.001454  
2062.000000	0.001589  
2061.000000	0.001675  
2060.000000	0.001675  
2059.000000	0.001540  
2058.000000	0.001358  
2057.000000	0.001322  
2056.000000	0.001479  
2055.000000	0.001614  
2054.000000	0.001508  
2053.000000	0.001207  
2052.000000	0.000930  
2051.000000	0.000781  
2050.000000	0.000727  
2049.000000	0.000821  
2048.000000	0.001210  
2047.000000	0.001819  
2046.000000	0.002225  
2045.000000	0.002035  
2044.000000	0.001345  
2043.000000	0.000665  
2042.000000	0.000418  
2041.000000	0.000633  
2040.000000	0.001103  
2039.000000	0.001652  
2038.000000	0.002137  
2037.000000	0.002354  
2036.000000	0.002159  
2035.000000	0.001685  
2034.000000	0.001288  
2033.000000	0.001205  
2032.000000	0.001356  
2031.000000	0.001486  
2030.000000	0.001387  
2029.000000	0.001002  
2028.000000	0.000442  
2027.000000	-0.000030 
2026.000000	-0.000182 
2025.000000	-0.000055 
2024.000000	0.000063  
2023.000000	0.000033  
2022.000000	0.000072  
2021.000000	0.000429  
2020.000000	0.000965  
2019.000000	0.001273  
2018.000000	0.001163  
2017.000000	0.000834  
2016.000000	0.000554  
2015.000000	0.000403  
2014.000000	0.000412  
2013.000000	0.000648  
2012.000000	0.000999  
2011.000000	0.001064  
2010.000000	0.000540  
2009.000000	-0.000361 
2008.000000	-0.001072 
2007.000000	-0.001266 
2006.000000	-0.001098 
2005.000000	-0.000841 
2004.000000	-0.000545 
2003.000000	-0.000085 
2002.000000	0.000615  
2001.000000	0.001470  
2000.000000	0.002222  
1999.000000	0.002504  
1998.000000	0.002074  
1997.000000	0.001113  
1996.000000	0.000190  
1995.000000	-0.000202 
1994.000000	-0.000024 
1993.000000	0.000396  
1992.000000	0.000733  
1991.000000	0.000872  
1990.000000	0.000851  
1989.000000	0.000776  
1988.000000	0.000809  
1987.000000	0.001059  
1986.000000	0.001469  
1985.000000	0.001916  
1984.000000	0.002401  
1983.000000	0.002955  
1982.000000	0.003382  
1981.000000	0.003326  
1980.000000	0.002733  
1979.000000	0.002017  
1978.000000	0.001588  
1977.000000	0.001357  
1976.000000	0.000990  
1975.000000	0.000471  
1974.000000	0.000089  
1973.000000	-0.000027 
1972.000000	-0.000058 
1971.000000	-0.000179 
1970.000000	-0.000353 
1969.000000	-0.000446 
1968.000000	-0.000371 
1967.000000	-0.000076 
1966.000000	0.000431  
1965.000000	0.000996  
1964.000000	0.001393  
1963.000000	0.001551  
1962.000000	0.001571  
1961.000000	0.001541  
1960.000000	0.001451  
1959.000000	0.001330  
1958.000000	0.001294  
1957.000000	0.001346  
1956.000000	0.001279  
1955.000000	0.000915  
1954.000000	0.000374  
1953.000000	-0.000006 
1952.000000	-0.000004 
1951.000000	0.000339  
1950.000000	0.000832  
1949.000000	0.001274  
1948.000000	0.001530  
1947.000000	0.001560  
1946.000000	0.001435  
1945.000000	0.001263  
1944.000000	0.001107  
1943.000000	0.000995  
1942.000000	0.000968  
1941.000000	0.001040  
1940.000000	0.001140  
1939.000000	0.001193  
1938.000000	0.001241  
1937.000000	0.001411  
1936.000000	0.001732  
1935.000000	0.002060  
1934.000000	0.002234  
1933.000000	0.002253  
1932.000000	0.002227  
1931.000000	0.002209  
1930.000000	0.002148  
1929.000000	0.001987  
1928.000000	0.001750  
1927.000000	0.001501  
1926.000000	0.001287  
1925.000000	0.001134  
1924.000000	0.001075  
1923.000000	0.001140  
1922.000000	0.001314  
1921.000000	0.001540  
1920.000000	0.001735  
1919.000000	0.001807  
1918.000000	0.001721  
1917.000000	0.001578  
1916.000000	0.001526  
1915.000000	0.001554  
1914.000000	0.001500  
1913.000000	0.001258  
1912.000000	0.000945  
1911.000000	0.000792  
1910.000000	0.000887  
1909.000000	0.001096  
1908.000000	0.001260  
1907.000000	0.001348  
1906.000000	0.001393  
1905.000000	0.001385  
1904.000000	0.001320  
1903.000000	0.001278  
1902.000000	0.001346  
1901.000000	0.001501  
1900.000000	0.001641  
1899.000000	0.001705  
1898.000000	0.001719  
1897.000000	0.001721  
1896.000000	0.001713  
1895.000000	0.001697  
1894.000000	0.001705  
1893.000000	0.001768  
1892.000000	0.001878  
1891.000000	0.001999  
1890.000000	0.002075  
1889.000000	0.002060  
1888.000000	0.001939  
1887.000000	0.001741  
1886.000000	0.001528  
1885.000000	0.001375  
1884.000000	0.001320  
1883.000000	0.001333  
1882.000000	0.001347  
1881.000000	0.001328  
1880.000000	0.001296  
1879.000000	0.001267  
1878.000000	0.001220  
1877.000000	0.001165  
1876.000000	0.001195  
1875.000000	0.001401  
1874.000000	0.001727  
1873.000000	0.001989  
1872.000000	0.002066  
1871.000000	0.001996  
1870.000000	0.001864  
1869.000000	0.001681  
1868.000000	0.001463  
1867.000000	0.001317  
1866.000000	0.001342  
1865.000000	0.001511  
1864.000000	0.001713  
1863.000000	0.001868  
1862.000000	0.001947  
1861.000000	0.001927  
1860.000000	0.001812  
1859.000000	0.001685  
1858.000000	0.001664  
1857.000000	0.001764  
1856.000000	0.001865  
1855.000000	0.001840  
1854.000000	0.001680  
1853.000000	0.001490  
1852.000000	0.001399  
1851.000000	0.001451  
1850.000000	0.001564  
1849.000000	0.001600  
1848.000000	0.001497  
1847.000000	0.001361  
1846.000000	0.001369  
1845.000000	0.001577  
1844.000000	0.001815  
1843.000000	0.001888  
1842.000000	0.001779  
1841.000000	0.001578  
1840.000000	0.001381  
1839.000000	0.001277  
1838.000000	0.001299  
1837.000000	0.001386  
1836.000000	0.001433  
1835.000000	0.001412  
1834.000000	0.001367  
1833.000000	0.001322  
1832.000000	0.001261  
1831.000000	0.001208  
1830.000000	0.001258  
1829.000000	0.001445  
1828.000000	0.001660  
1827.000000	0.001786  
1826.000000	0.001808  
1825.000000	0.001754  
1824.000000	0.001672  
1823.000000	0.001631  
1822.000000	0.001667  
1821.000000	0.001718  
1820.000000	0.001655  
1819.000000	0.001446  
1818.000000	0.001240  
1817.000000	0.001204  
1816.000000	0.001333  
1815.000000	0.001490  
1814.000000	0.001571  
1813.000000	0.001565  
1812.000000	0.001505  
1811.000000	0.001450  
1810.000000	0.001475  
1809.000000	0.001589  
1808.000000	0.001713  
1807.000000	0.001761  
1806.000000	0.001737  
1805.000000	0.001717  
1804.000000	0.001754  
1803.000000	0.001836  
1802.000000	0.001931  
1801.000000	0.002016  
1800.000000	0.002069  
1799.000000	0.002075  
1798.000000	0.002049  
1797.000000	0.002025  
1796.000000	0.002016  
1795.000000	0.002009  
1794.000000	0.002000  
1793.000000	0.001985  
1792.000000	0.001926  
1791.000000	0.001804  
1790.000000	0.001666  
1789.000000	0.001584  
1788.000000	0.001593  
1787.000000	0.001666  
1786.000000	0.001746  
1785.000000	0.001778  
1784.000000	0.001736  
1783.000000	0.001627  
1782.000000	0.001498  
1781.000000	0.001446  
1780.000000	0.001525  
1779.000000	0.001690  
1778.000000	0.001852  
1777.000000	0.001943  
1776.000000	0.001932  
1775.000000	0.001812  
1774.000000	0.001637  
1773.000000	0.001511  
1772.000000	0.001485  
1771.000000	0.001499  
1770.000000	0.001466  
1769.000000	0.001392  
1768.000000	0.001335  
1767.000000	0.001318  
1766.000000	0.001330  
1765.000000	0.001368  
1764.000000	0.001453  
1763.000000	0.001591  
1762.000000	0.001740  
1761.000000	0.001853  
1760.000000	0.001906  
1759.000000	0.001884  
1758.000000	0.001781  
1757.000000	0.001628  
1756.000000	0.001492  
1755.000000	0.001402  
1754.000000	0.001349  
1753.000000	0.001346  
1752.000000	0.001426  
1751.000000	0.001562  
1750.000000	0.001650  
1749.000000	0.001614  
1748.000000	0.001495  
1747.000000	0.001392  
1746.000000	0.001355  
1745.000000	0.001358  
1744.000000	0.001336  
1743.000000	0.001247  
1742.000000	0.001100  
1741.000000	0.000932  
1740.000000	0.000788  
1739.000000	0.000710  
1738.000000	0.000675  
1737.000000	0.000628  
1736.000000	0.000593  
1735.000000	0.000679  
1734.000000	0.000900  
1733.000000	0.001145  
1732.000000	0.001299  
1731.000000	0.001342  
1730.000000	0.001356  
1729.000000	0.001415  
1728.000000	0.001521  
1727.000000	0.001642  
1726.000000	0.001753  
1725.000000	0.001839  
1724.000000	0.001875  
1723.000000	0.001869  
1722.000000	0.001855  
1721.000000	0.001846  
1720.000000	0.001832  
1719.000000	0.001810  
1718.000000	0.001772  
1717.000000	0.001733  
1716.000000	0.001712  
1715.000000	0.001702  
1714.000000	0.001703  
1713.000000	0.001713  
1712.000000	0.001713  
1711.000000	0.001686  
1710.000000	0.001644  
1709.000000	0.001625  
1708.000000	0.001663  
1707.000000	0.001771  
1706.000000	0.001950  
1705.000000	0.002162  
1704.000000	0.002346  
1703.000000	0.002459  
1702.000000	0.002504  
1701.000000	0.002427  
1700.000000	0.002189  
1699.000000	0.002003  
1698.000000	0.001980  
1697.000000	0.002025  
1696.000000	0.002084  
1695.000000	0.002139  
1694.000000	0.002153  
1693.000000	0.002085  
1692.000000	0.001958  
1691.000000	0.001874  
1690.000000	0.001912  
1689.000000	0.002034  
1688.000000	0.002130  
1687.000000	0.002143  
1686.000000	0.002152  
1685.000000	0.002256  
1684.000000	0.002408  
1683.000000	0.002481  
1682.000000	0.002408  
1681.000000	0.002278  
1680.000000	0.002213  
1679.000000	0.002204  
1678.000000	0.002157  
1677.000000	0.002001  
1676.000000	0.001768  
1675.000000	0.001621  
1674.000000	0.001700  
1673.000000	0.001942  
1672.000000	0.002183  
1671.000000	0.002339  
1670.000000	0.002401  
1669.000000	0.002391  
1668.000000	0.002332  
1667.000000	0.002246  
1666.000000	0.002182  
1665.000000	0.002183  
1664.000000	0.002245  
1663.000000	0.002313  
1662.000000	0.002329  
1661.000000	0.002292  
1660.000000	0.002233  
1659.000000	0.002186  
1658.000000	0.002175  
1657.000000	0.002179  
1656.000000	0.002139  
1655.000000	0.002056  
1654.000000	0.002019  
1653.000000	0.002107  
1652.000000	0.002338  
1651.000000	0.002548  
1650.000000	0.002611  
1649.000000	0.002589  
1648.000000	0.002587  
1647.000000	0.002572  
1646.000000	0.002455  
1645.000000	0.002250  
1644.000000	0.002037  
1643.000000	0.001895  
1642.000000	0.001874  
1641.000000	0.001984  
1640.000000	0.002148  
1639.000000	0.002256  
1638.000000	0.002284  
1637.000000	0.002282  
1636.000000	0.002268  
1635.000000	0.002227  
1634.000000	0.002189  
1633.000000	0.002171  
1632.000000	0.002150  
1631.000000	0.002101  
1630.000000	0.002038  
1629.000000	0.002009  
1628.000000	0.002054  
1627.000000	0.002168  
1626.000000	0.002320  
1625.000000	0.002482  
1624.000000	0.002608  
1623.000000	0.002657  
1622.000000	0.002673  
1621.000000	0.002722  
1620.000000	0.002803  
1619.000000	0.002886  
1618.000000	0.002978  
1617.000000	0.003118  
1616.000000	0.003317  
1615.000000	0.003488  
1614.000000	0.003559  
1613.000000	0.003572  
1612.000000	0.003624  
1611.000000	0.003761  
1610.000000	0.003954  
1609.000000	0.004135  
1608.000000	0.004222  
1607.000000	0.004172  
1606.000000	0.004014  
1605.000000	0.003835  
1604.000000	0.003689  
1603.000000	0.003577  
1602.000000	0.003491  
1601.000000	0.003423  
1600.000000	0.003352  
1599.000000	0.003247  
1598.000000	0.003116  
1597.000000	0.003009  
1596.000000	0.002969  
1595.000000	0.002995  
1594.000000	0.003049  
1593.000000	0.003099  
1592.000000	0.003140  
1591.000000	0.003180  
1590.000000	0.003217  
1589.000000	0.003221  
1588.000000	0.003171  
1587.000000	0.003081  
1586.000000	0.002994  
1585.000000	0.002935  
1584.000000	0.002900  
1583.000000	0.002877  
1582.000000	0.002889  
1581.000000	0.002948  
1580.000000	0.003017  
1579.000000	0.003039  
1578.000000	0.003000  
1577.000000	0.002918  
1576.000000	0.002832  
1575.000000	0.002825  
1574.000000	0.002900  
1573.000000	0.002998  
1572.000000	0.003072  
1571.000000	0.003076  
1570.000000	0.002975  
1569.000000	0.002836  
1568.000000	0.002742  
1567.000000	0.002682  
1566.000000	0.002628  
1565.000000	0.002566  
1564.000000	0.002490  
1563.000000	0.002408  
1562.000000	0.002365  
1561.000000	0.002432  
1560.000000	0.002606  
1559.000000	0.002656  
1558.000000	0.002636  
1557.000000	0.002695  
1556.000000	0.002816  
1555.000000	0.002983  
1554.000000	0.003121  
1553.000000	0.003169  
1552.000000	0.003089  
1551.000000	0.002903  
1550.000000	0.002730  
1549.000000	0.002667  
1548.000000	0.002705  
1547.000000	0.002795  
1546.000000	0.002926  
1545.000000	0.003070  
1544.000000	0.003146  
1543.000000	0.003119  
1542.000000	0.003094  
1541.000000	0.003175  
1540.000000	0.003296  
1539.000000	0.003384  
1538.000000	0.003482  
1537.000000	0.003600  
1536.000000	0.003689  
1535.000000	0.003717  
1534.000000	0.003683  
1533.000000	0.003602  
1532.000000	0.003493  
1531.000000	0.003386  
1530.000000	0.003336  
1529.000000	0.003363  
1528.000000	0.003431  
1527.000000	0.003521  
1526.000000	0.003667  
1525.000000	0.003859  
1524.000000	0.004002  
1523.000000	0.004046  
1522.000000	0.004103  
1521.000000	0.004293  
1520.000000	0.004512  
1519.000000	0.004605  
1518.000000	0.004610  
1517.000000	0.004640  
1516.000000	0.004715  
1515.000000	0.004796  
1514.000000	0.004912  
1513.000000	0.005117  
1512.000000	0.005371  
1511.000000	0.005587  
1510.000000	0.005769  
1509.000000	0.006037  
1508.000000	0.006482  
1507.000000	0.006952  
1506.000000	0.007216  
1505.000000	0.007290  
1504.000000	0.007305  
1503.000000	0.007294  
1502.000000	0.007282  
1501.000000	0.007316  
1500.000000	0.007374  
1499.000000	0.007441  
1498.000000	0.007647  
1497.000000	0.008071  
1496.000000	0.008494  
1495.000000	0.008710  
1494.000000	0.008822  
1493.000000	0.008982  
1492.000000	0.009167  
1491.000000	0.009306  
1490.000000	0.009494  
1489.000000	0.009853  
1488.000000	0.010255  
1487.000000	0.010558  
1486.000000	0.010833  
1485.000000	0.011201  
1484.000000	0.011685  
1483.000000	0.012287  
1482.000000	0.013088  
1481.000000	0.014096  
1480.000000	0.015171  
1479.000000	0.016285  
1478.000000	0.017660  
1477.000000	0.019465  
1476.000000	0.021560  
1475.000000	0.023943  
1474.000000	0.027349  
1473.000000	0.032710  
1472.000000	0.039581  
1471.000000	0.046521  
1470.000000	0.052956  
1469.000000	0.058927  
1468.000000	0.064260  
1467.000000	0.068769  
1466.000000	0.072595  
1465.000000	0.075890  
1464.000000	0.078454  
1463.000000	0.080216  
1462.000000	0.081525  
1461.000000	0.082691  
1460.000000	0.083798  
1459.000000	0.084900  
1458.000000	0.085936  
1457.000000	0.086191  
1456.000000	0.085026  
1455.000000	0.082965  
1454.000000	0.080581  
1453.000000	0.077911  
1452.000000	0.075002  
1451.000000	0.072168  
1450.000000	0.069610  
1449.000000	0.067111  
1448.000000	0.064359  
1447.000000	0.061364  
1446.000000	0.058250  
1445.000000	0.054972  
1444.000000	0.051448  
1443.000000	0.047782  
1442.000000	0.044213  
1441.000000	0.040940  
1440.000000	0.038031  
1439.000000	0.035347  
1438.000000	0.032541  
1437.000000	0.029401  
1436.000000	0.026395  
1435.000000	0.024088  
1434.000000	0.022294  
1433.000000	0.020571  
1432.000000	0.018793  
1431.000000	0.017103  
1430.000000	0.015606  
1429.000000	0.014309  
1428.000000	0.013270  
1427.000000	0.012525  
1426.000000	0.011944  
1425.000000	0.011367  
1424.000000	0.010802  
1423.000000	0.010349  
1422.000000	0.009992  
1421.000000	0.009635  
1420.000000	0.009267  
1419.000000	0.008946  
1418.000000	0.008680  
1417.000000	0.008431  
1416.000000	0.008240  
1415.000000	0.008162  
1414.000000	0.008142  
1413.000000	0.008075  
1412.000000	0.007933  
1411.000000	0.007751  
1410.000000	0.007545  
1409.000000	0.007342  
1408.000000	0.007224  
1407.000000	0.007239  
1406.000000	0.007303  
1405.000000	0.007308  
1404.000000	0.007281  
1403.000000	0.007304  
1402.000000	0.007355  
1401.000000	0.007364  
1400.000000	0.007350  
1399.000000	0.007391  
1398.000000	0.007495  
1397.000000	0.007623  
1396.000000	0.007798  
1395.000000	0.008065  
1394.000000	0.008403  
1393.000000	0.008813  
1392.000000	0.009371  
1391.000000	0.010136  
1390.000000	0.011138  
1389.000000	0.012519  
1388.000000	0.014539  
1387.000000	0.017240  
1386.000000	0.020255  
1385.000000	0.023272  
1384.000000	0.026371  
1383.000000	0.029816  
1382.000000	0.033771  
1381.000000	0.038188  
1380.000000	0.042704  
1379.000000	0.046547  
1378.000000	0.048840  
1377.000000	0.049143  
1376.000000	0.047504  
1375.000000	0.044220  
1374.000000	0.039929  
1373.000000	0.035603  
1372.000000	0.031976  
1371.000000	0.029263  
1370.000000	0.027433  
1369.000000	0.026407  
1368.000000	0.025961  
1367.000000	0.025667  
1366.000000	0.025074  
1365.000000	0.023905  
1364.000000	0.022124  
1363.000000	0.019972  
1362.000000	0.017897  
1361.000000	0.016259  
1360.000000	0.015123  
1359.000000	0.014361  
1358.000000	0.013813  
1357.000000	0.013382  
1356.000000	0.013058  
1355.000000	0.012873  
1354.000000	0.012811  
1353.000000	0.012792  
1352.000000	0.012742  
1351.000000	0.012655  
1350.000000	0.012561  
1349.000000	0.012470  
1348.000000	0.012348  
1347.000000	0.012171  
1346.000000	0.011968  
1345.000000	0.011825  
1344.000000	0.011812  
1343.000000	0.011906  
1342.000000	0.012006  
1341.000000	0.012020  
1340.000000	0.011922  
1339.000000	0.011733  
1338.000000	0.011474  
1337.000000	0.011166  
1336.000000	0.010849  
1335.000000	0.010562  
1334.000000	0.010303  
1333.000000	0.010056  
1332.000000	0.009823  
1331.000000	0.009622  
1330.000000	0.009442  
1329.000000	0.009249  
1328.000000	0.009034  
1327.000000	0.008832  
1326.000000	0.008677  
1325.000000	0.008578  
1324.000000	0.008525  
1323.000000	0.008512  
1322.000000	0.008525  
1321.000000	0.008554  
1320.000000	0.008593  
1319.000000	0.008636  
1318.000000	0.008669  
1317.000000	0.008675  
1316.000000	0.008672  
1315.000000	0.008700  
1314.000000	0.008788  
1313.000000	0.008914  
1312.000000	0.009035  
1311.000000	0.009127  
1310.000000	0.009205  
1309.000000	0.009300  
1308.000000	0.009423  
1307.000000	0.009545  
1306.000000	0.009630  
1305.000000	0.009661  
1304.000000	0.009638  
1303.000000	0.009569  
1302.000000	0.009475  
1301.000000	0.009397  
1300.000000	0.009368  
1299.000000	0.009365  
1298.000000	0.009329  
1297.000000	0.009229  
1296.000000	0.009089  
1295.000000	0.008941  
1294.000000	0.008777  
1293.000000	0.008583  
1292.000000	0.008382  
1291.000000	0.008224  
1290.000000	0.008130  
1289.000000	0.008082  
1288.000000	0.008052  
1287.000000	0.008032  
1286.000000	0.008015  
1285.000000	0.007990  
1284.000000	0.007945  
1283.000000	0.007881  
1282.000000	0.007818  
1281.000000	0.007771  
1280.000000	0.007733  
1279.000000	0.007675  
1278.000000	0.007589  
1277.000000	0.007511  
1276.000000	0.007493  
1275.000000	0.007541  
1274.000000	0.007609  
1273.000000	0.007660  
1272.000000	0.007690  
1271.000000	0.007704  
1270.000000	0.007688  
1269.000000	0.007634  
1268.000000	0.007572  
1267.000000	0.007522  
1266.000000	0.007458  
1265.000000	0.007336  
1264.000000	0.007162  
1263.000000	0.007003  
1262.000000	0.006928  
1261.000000	0.006945  
1260.000000	0.006998  
1259.000000	0.007012  
1258.000000	0.006955  
1257.000000	0.006847  
1256.000000	0.006728  
1255.000000	0.006611  
1254.000000	0.006510  
1253.000000	0.006470  
1252.000000	0.006530  
1251.000000	0.006640  
1250.000000	0.006677  
1249.000000	0.006582  
1248.000000	0.006429  
1247.000000	0.006341  
1246.000000	0.006346  
1245.000000	0.006375  
1244.000000	0.006361  
1243.000000	0.006290  
1242.000000	0.006186  
1241.000000	0.006087  
1240.000000	0.006037  
1239.000000	0.006047  
1238.000000	0.006070  
1237.000000	0.006058  
1236.000000	0.006022  
1235.000000	0.006000  
1234.000000	0.005981  
1233.000000	0.005907  
1232.000000	0.005764  
1231.000000	0.005610  
1230.000000	0.005503  
1229.000000	0.005449  
1228.000000	0.005430  
1227.000000	0.005454  
1226.000000	0.005517  
1225.000000	0.005576  
1224.000000	0.005584  
1223.000000	0.005551  
1222.000000	0.005523  
1221.000000	0.005518  
1220.000000	0.005512  
1219.000000	0.005481  
1218.000000	0.005445  
1217.000000	0.005437  
1216.000000	0.005465  
1215.000000	0.005506  
1214.000000	0.005522  
1213.000000	0.005498  
1212.000000	0.005457  
1211.000000	0.005442  
1210.000000	0.005476  
1209.000000	0.005524  
1208.000000	0.005519  
1207.000000	0.005441  
1206.000000	0.005349  
1205.000000	0.005315  
1204.000000	0.005336  
1203.000000	0.005342  
1202.000000	0.005287  
1201.000000	0.005202  
1200.000000	0.005149  
1199.000000	0.005142  
1198.000000	0.005160  
1197.000000	0.005187  
1196.000000	0.005224  
1195.000000	0.005266  
1194.000000	0.005308  
1193.000000	0.005358  
1192.000000	0.005414  
1191.000000	0.005431  
1190.000000	0.005363  
1189.000000	0.005230  
1188.000000	0.005112  
1187.000000	0.005071  
1186.000000	0.005103  
1185.000000	0.005167  
1184.000000	0.005229  
1183.000000	0.005277  
1182.000000	0.005318  
1181.000000	0.005380  
1180.000000	0.005478  
1179.000000	0.005587  
1178.000000	0.005674  
1177.000000	0.005750  
1176.000000	0.005868  
1175.000000	0.006045  
1174.000000	0.006247  
1173.000000	0.006444  
1172.000000	0.006630  
1171.000000	0.006796  
1170.000000	0.006911  
1169.000000	0.006959  
1168.000000	0.006963  
1167.000000	0.006955  
1166.000000	0.006940  
1165.000000	0.006914  
1164.000000	0.006870  
1163.000000	0.006803  
1162.000000	0.006731  
1161.000000	0.006723  
1160.000000	0.006837  
1159.000000	0.007032  
1158.000000	0.007191  
1157.000000	0.007244  
1156.000000	0.007226  
1155.000000	0.007178  
1154.000000	0.007079  
1153.000000	0.006906  
1152.000000	0.006715  
1151.000000	0.006591  
1150.000000	0.006559  
1149.000000	0.006588  
1148.000000	0.006647  
1147.000000	0.006717  
1146.000000	0.006765  
1145.000000	0.006759  
1144.000000	0.006699  
1143.000000	0.006605  
1142.000000	0.006487  
1141.000000	0.006353  
1140.000000	0.006220  
1139.000000	0.006107  
1138.000000	0.006029  
1137.000000	0.006010  
1136.000000	0.006062  
1135.000000	0.006123  
1134.000000	0.006085  
1133.000000	0.005916  
1132.000000	0.005715  
1131.000000	0.005598  
1130.000000	0.005577  
1129.000000	0.005604  
1128.000000	0.005672  
1127.000000	0.005789  
1126.000000	0.005902  
1125.000000	0.005923  
1124.000000	0.005845  
1123.000000	0.005741  
1122.000000	0.005661  
1121.000000	0.005597  
1120.000000	0.005543  
1119.000000	0.005515  
1118.000000	0.005515  
1117.000000	0.005529  
1116.000000	0.005567  
1115.000000	0.005646  
1114.000000	0.005731  
1113.000000	0.005750  
1112.000000	0.005690  
1111.000000	0.005602  
1110.000000	0.005518  
1109.000000	0.005419  
1108.000000	0.005314  
1107.000000	0.005279  
1106.000000	0.005370  
1105.000000	0.005530  
1104.000000	0.005633  
1103.000000	0.005611  
1102.000000	0.005501  
1101.000000	0.005408  
1100.000000	0.005416  
1099.000000	0.005529  
1098.000000	0.005682  
1097.000000	0.005807  
1096.000000	0.005899  
1095.000000	0.005986  
1094.000000	0.006060  
1093.000000	0.006080  
1092.000000	0.006042  
1091.000000	0.005996  
1090.000000	0.005968  
1089.000000	0.005925  
1088.000000	0.005833  
1087.000000	0.005719  
1086.000000	0.005644  
1085.000000	0.005629  
1084.000000	0.005638  
1083.000000	0.005623  
1082.000000	0.005572  
1081.000000	0.005520  
1080.000000	0.005531  
1079.000000	0.005653  
1078.000000	0.005869  
1077.000000	0.006106  
1076.000000	0.006306  
1075.000000	0.006467  
1074.000000	0.006614  
1073.000000	0.006741  
1072.000000	0.006806  
1071.000000	0.006776  
1070.000000	0.006675  
1069.000000	0.006566  
1068.000000	0.006502  
1067.000000	0.006477  
1066.000000	0.006445  
1065.000000	0.006388  
1064.000000	0.006341  
1063.000000	0.006340  
1062.000000	0.006350  
1061.000000	0.006314  
1060.000000	0.006242  
1059.000000	0.006216  
1058.000000	0.006287  
1057.000000	0.006425  
1056.000000	0.006582  
1055.000000	0.006743  
1054.000000	0.006880  
1053.000000	0.006892  
1052.000000	0.006687  
1051.000000	0.006332  
1050.000000	0.006047  
1049.000000	0.006002  
1048.000000	0.006152  
1047.000000	0.006328  
1046.000000	0.006406  
1045.000000	0.006389  
1044.000000	0.006357  
1043.000000	0.006395  
1042.000000	0.006534  
1041.000000	0.006736  
1040.000000	0.006913  
1039.000000	0.006985  
1038.000000	0.006936  
1037.000000	0.006821  
1036.000000	0.006721  
1035.000000	0.006702  
1034.000000	0.006786  
1033.000000	0.006947  
1032.000000	0.007124  
1031.000000	0.007252  
1030.000000	0.007295  
1029.000000	0.007261  
1028.000000	0.007194  
1027.000000	0.007140  
1026.000000	0.007126  
1025.000000	0.007133  
1024.000000	0.007120  
1023.000000	0.007072  
1022.000000	0.007024  
1021.000000	0.007012  
1020.000000	0.007008  
1019.000000	0.006949  
1018.000000	0.006839  
1017.000000	0.006778  
1016.000000	0.006856  
1015.000000	0.007040  
1014.000000	0.007199  
1013.000000	0.007242  
1012.000000	0.007182  
1011.000000	0.007083  
1010.000000	0.007000  
1009.000000	0.006959  
1008.000000	0.006962  
1007.000000	0.006984  
1006.000000	0.006990  
1005.000000	0.006982  
1004.000000	0.006995  
1003.000000	0.007051  
1002.000000	0.007131  
1001.000000	0.007192  
1000.000000	0.007186  
999.000000	 0.007068  
998.000000	 0.006841  
997.000000	 0.006599  
996.000000	 0.006483  
995.000000	 0.006555  
994.000000	 0.006728  
993.000000	 0.006853  
992.000000	 0.006865  
991.000000	 0.006816  
990.000000	 0.006802  
989.000000	 0.006883  
988.000000	 0.007042  
987.000000	 0.007201  
986.000000	 0.007273  
985.000000	 0.007240  
984.000000	 0.007175  
983.000000	 0.007163  
982.000000	 0.007223  
981.000000	 0.007313  
980.000000	 0.007411  
979.000000	 0.007536  
978.000000	 0.007702  
977.000000	 0.007889  
976.000000	 0.008052  
975.000000	 0.008148  
974.000000	 0.008159  
973.000000	 0.008113  
972.000000	 0.008087  
971.000000	 0.008153  
970.000000	 0.008318  
969.000000	 0.008527  
968.000000	 0.008714  
967.000000	 0.008828  
966.000000	 0.008836  
965.000000	 0.008733  
964.000000	 0.008566  
963.000000	 0.008411  
962.000000	 0.008318  
961.000000	 0.008287  
960.000000	 0.008289  
959.000000	 0.008297  
958.000000	 0.008294  
957.000000	 0.008276  
956.000000	 0.008258  
955.000000	 0.008247  
954.000000	 0.008228  
953.000000	 0.008187  
952.000000	 0.008153  
951.000000	 0.008173  
950.000000	 0.008245  
949.000000	 0.008303  
948.000000	 0.008302  
947.000000	 0.008282  
946.000000	 0.008338  
945.000000	 0.008511  
944.000000	 0.008742  
943.000000	 0.008917  
942.000000	 0.008965  
941.000000	 0.008883  
940.000000	 0.008710  
939.000000	 0.008489  
938.000000	 0.008265  
937.000000	 0.008087  
936.000000	 0.007983  
935.000000	 0.007923  
934.000000	 0.007852  
933.000000	 0.007774  
932.000000	 0.007757  
931.000000	 0.007832  
930.000000	 0.007915  
929.000000	 0.007890  
928.000000	 0.007756  
927.000000	 0.007638  
926.000000	 0.007648  
925.000000	 0.007764  
924.000000	 0.007885  
923.000000	 0.007953  
922.000000	 0.007988  
921.000000	 0.008000  
920.000000	 0.007956  
919.000000	 0.007831  
918.000000	 0.007689  
917.000000	 0.007639  
916.000000	 0.007731  
915.000000	 0.007888  
914.000000	 0.007979  
913.000000	 0.007939  
912.000000	 0.007804  
911.000000	 0.007656  
910.000000	 0.007566  
909.000000	 0.007573  
908.000000	 0.007672  
907.000000	 0.007787  
906.000000	 0.007814  
905.000000	 0.007726  
904.000000	 0.007629  
903.000000	 0.007658  
902.000000	 0.007820  
901.000000	 0.007989  
900.000000	 0.008060  
899.000000	 0.008069  
898.000000	 0.008119  
897.000000	 0.008247  
896.000000	 0.008393  
895.000000	 0.008486  
894.000000	 0.008514  
893.000000	 0.008510  
892.000000	 0.008509  
891.000000	 0.008540  
890.000000	 0.008622  
889.000000	 0.008751  
888.000000	 0.008879  
887.000000	 0.008947  
886.000000	 0.008927  
885.000000	 0.008832  
884.000000	 0.008691  
883.000000	 0.008530  
882.000000	 0.008396  
881.000000	 0.008343  
880.000000	 0.008382  
879.000000	 0.008452  
878.000000	 0.008474  
877.000000	 0.008434  
876.000000	 0.008368  
875.000000	 0.008288  
874.000000	 0.008157  
873.000000	 0.007942  
872.000000	 0.007670  
871.000000	 0.007427  
870.000000	 0.007327  
869.000000	 0.007454  
868.000000	 0.007772  
867.000000	 0.008094  
866.000000	 0.008209  
865.000000	 0.008076  
864.000000	 0.007836  
863.000000	 0.007650  
862.000000	 0.007556  
861.000000	 0.007534  
860.000000	 0.007601  
859.000000	 0.007771  
858.000000	 0.007945  
857.000000	 0.007985  
856.000000	 0.007889  
855.000000	 0.007834  
854.000000	 0.007993  
853.000000	 0.008368  
852.000000	 0.008826  
851.000000	 0.009241  
850.000000	 0.009544  
849.000000	 0.009683  
848.000000	 0.009613  
847.000000	 0.009357  
846.000000	 0.009035  
845.000000	 0.008781  
844.000000	 0.008645  
843.000000	 0.008569  
842.000000	 0.008478  
841.000000	 0.008365  
840.000000	 0.008277  
839.000000	 0.008254  
838.000000	 0.008289  
837.000000	 0.008346  
836.000000	 0.008362  
835.000000	 0.008254  
834.000000	 0.007986  
833.000000	 0.007650  
832.000000	 0.007431  
831.000000	 0.007420  
830.000000	 0.007521  
829.000000	 0.007585  
828.000000	 0.007617  
827.000000	 0.007767  
826.000000	 0.008101  
825.000000	 0.008480  
824.000000	 0.008709  
823.000000	 0.008730  
822.000000	 0.008629  
821.000000	 0.008548  
820.000000	 0.008613  
819.000000	 0.008894  
818.000000	 0.009354  
817.000000	 0.009864  
816.000000	 0.010286  
815.000000	 0.010535  
814.000000	 0.010581  
813.000000	 0.010449  
812.000000	 0.010252  
811.000000	 0.010155  
810.000000	 0.010274  
809.000000	 0.010599  
808.000000	 0.011014  
807.000000	 0.011376  
806.000000	 0.011563  
805.000000	 0.011519  
804.000000	 0.011269  
803.000000	 0.010898  
802.000000	 0.010477  
801.000000	 0.010029  
800.000000	 0.009579  
799.000000	 0.009190  
798.000000	 0.008916  
797.000000	 0.008739  
796.000000	 0.008584  
795.000000	 0.008397  
794.000000	 0.008189  
793.000000	 0.008026  
792.000000	 0.007980  
791.000000	 0.008079  
790.000000	 0.008260  
789.000000	 0.008393  
788.000000	 0.008399  
787.000000	 0.008338  
786.000000	 0.008360  
785.000000	 0.008559  
784.000000	 0.008900  
783.000000	 0.009284  
782.000000	 0.009657  
781.000000	 0.010020  
780.000000	 0.010363  
779.000000	 0.010650  
778.000000	 0.010877  
777.000000	 0.011110  
776.000000	 0.011434  
775.000000	 0.011854  
774.000000	 0.012286  
773.000000	 0.012655  
772.000000	 0.012972  
771.000000	 0.013294  
770.000000	 0.013629  
769.000000	 0.013916  
768.000000	 0.014086  
767.000000	 0.014086  
766.000000	 0.013862  
765.000000	 0.013392  
764.000000	 0.012770  
763.000000	 0.012226  
762.000000	 0.011957  
761.000000	 0.011952  
760.000000	 0.012027  
759.000000	 0.012034  
758.000000	 0.011989  
757.000000	 0.012001  
756.000000	 0.012126  
755.000000	 0.012318  
754.000000	 0.012498  
753.000000	 0.012621  
752.000000	 0.012692  
751.000000	 0.012748  
750.000000	 0.012837  
749.000000	 0.012990  
748.000000	 0.013228  
747.000000	 0.013621  
746.000000	 0.014312  
745.000000	 0.015432  
744.000000	 0.016935  
743.000000	 0.018515  
742.000000	 0.019732  
741.000000	 0.020275  
740.000000	 0.020152  
739.000000	 0.019639  
738.000000	 0.019037  
737.000000	 0.018473  
736.000000	 0.017916  
735.000000	 0.017363  
734.000000	 0.016932  
733.000000	 0.016774  
732.000000	 0.016893  
731.000000	 0.017137  
730.000000	 0.017379  
729.000000	 0.017684  
728.000000	 0.018249  
727.000000	 0.019188  
726.000000	 0.020391  
725.000000	 0.021592  
724.000000	 0.022546  
723.000000	 0.023125  
722.000000	 0.023256  
721.000000	 0.022834  
720.000000	 0.021755  
719.000000	 0.020079  
718.000000	 0.018103  
717.000000	 0.016257  
716.000000	 0.014879  
715.000000	 0.014014  
714.000000	 0.013386  
713.000000	 0.012647  
712.000000	 0.011699  
711.000000	 0.010754  
710.000000	 0.010108  
709.000000	 0.009879  
708.000000	 0.009946  
707.000000	 0.010091  
706.000000	 0.010188  
705.000000	 0.010283  
704.000000	 0.010497  
703.000000	 0.010860  
702.000000	 0.011252  
701.000000	 0.011540  
700.000000	 0.011705  
699.000000	 0.011766  
698.000000	 0.011615  
697.000000	 0.011075  
696.000000	 0.010194  
695.000000	 0.009342  
694.000000	 0.008886  
693.000000	 0.008773  
692.000000	 0.008573  
691.000000	 0.007959  
690.000000	 0.007045  
689.000000	 0.006193  
688.000000	 0.005583  
687.000000	 0.005098  
686.000000	 0.004630  
685.000000	 0.004269  
684.000000	 0.004127  
683.000000	 0.004159  
682.000000	 0.004252  
681.000000	 0.004364  
680.000000	 0.004474  
679.000000	 0.004494  
678.000000	 0.004369  
677.000000	 0.004200  
676.000000	 0.004149  
675.000000	 0.004200  
674.000000	 0.004183  
673.000000	 0.004089  
672.000000	 0.004053  
671.000000	 0.003972  
670.000000	 0.003485  
669.000000	 0.002380  
668.000000	 0.001082  
667.000000	 0.000530  
666.000000	 0.001096  
665.000000	 0.002166  
664.000000	 0.003124  
663.000000	 0.003896  
662.000000	 0.004461  
661.000000	 0.004657  
660.000000	 0.004562  
659.000000	 0.004569  
658.000000	 0.004805  
657.000000	 0.004806  
656.000000	 0.004124  
655.000000	 0.003045  
654.000000	 0.002360  
653.000000	 0.002495  
652.000000	 0.003087  
651.000000	 0.003494  
650.000000	 0.003492  

