PE IR                   SPECTRUM    ASCII       PEDS        1.60        
  -1
NB3023~1.ASC
17/04/10
13:02:55.00
17/04/10
13:02:55.00
Admin

650.000000
6









SPECTRUM ONE,CPU32 MAIN 00.02.5000 17-APRIL-2002 13:00:00
MIR TGS
MIR
OPTKBR
68128
0.200000

4.000000
STRONG
RATIO
SPECTRUM
MAGNITUDE

DOUBLE

COMBINED


0


#HDR
-1
-1
#GR
CM-1
A
0.00000011920928955078
0.0
4000.000000
-1.000000
3351
8
0.220428
-0.001433
#DATA
4000.000000	0.000723  
3999.000000	0.000842  
3998.000000	0.000961  
3997.000000	0.001080  
3996.000000	0.001222  
3995.000000	0.001356  
3994.000000	0.001450  
3993.000000	0.001484  
3992.000000	0.001451  
3991.000000	0.001369  
3990.000000	0.001284  
3989.000000	0.001239  
3988.000000	0.001233  
3987.000000	0.001218  
3986.000000	0.001162  
3985.000000	0.001087  
3984.000000	0.001033  
3983.000000	0.000999  
3982.000000	0.000935  
3981.000000	0.000813  
3980.000000	0.000680  
3979.000000	0.000624  
3978.000000	0.000692  
3977.000000	0.000852  
3976.000000	0.001041  
3975.000000	0.001216  
3974.000000	0.001353  
3973.000000	0.001422  
3972.000000	0.001400  
3971.000000	0.001306  
3970.000000	0.001198  
3969.000000	0.001119  
3968.000000	0.001055  
3967.000000	0.000962  
3966.000000	0.000842  
3965.000000	0.000767  
3964.000000	0.000818  
3963.000000	0.000994  
3962.000000	0.001206  
3961.000000	0.001358  
3960.000000	0.001426  
3959.000000	0.001445  
3958.000000	0.001435  
3957.000000	0.001381  
3956.000000	0.001266  
3955.000000	0.001120  
3954.000000	0.001002  
3953.000000	0.000962  
3952.000000	0.001011  
3951.000000	0.001121  
3950.000000	0.001252  
3949.000000	0.001367  
3948.000000	0.001452  
3947.000000	0.001502  
3946.000000	0.001515  
3945.000000	0.001488  
3944.000000	0.001409  
3943.000000	0.001277  
3942.000000	0.001126  
3941.000000	0.001021  
3940.000000	0.001011  
3939.000000	0.001082  
3938.000000	0.001174  
3937.000000	0.001239  
3936.000000	0.001283  
3935.000000	0.001341  
3934.000000	0.001421  
3933.000000	0.001483  
3932.000000	0.001499  
3931.000000	0.001489  
3930.000000	0.001499  
3929.000000	0.001556  
3928.000000	0.001651  
3927.000000	0.001752  
3926.000000	0.001815  
3925.000000	0.001805  
3924.000000	0.001745  
3923.000000	0.001709  
3922.000000	0.001741  
3921.000000	0.001788  
3920.000000	0.001763  
3919.000000	0.001644  
3918.000000	0.001489  
3917.000000	0.001362  
3916.000000	0.001290  
3915.000000	0.001283  
3914.000000	0.001336  
3913.000000	0.001394  
3912.000000	0.001368  
3911.000000	0.001237  
3910.000000	0.001083  
3909.000000	0.001026  
3908.000000	0.001121  
3907.000000	0.001328  
3906.000000	0.001545  
3905.000000	0.001673  
3904.000000	0.001677  
3903.000000	0.001590  
3902.000000	0.001487  
3901.000000	0.001440  
3900.000000	0.001481  
3899.000000	0.001587  
3898.000000	0.001709  
3897.000000	0.001801  
3896.000000	0.001814  
3895.000000	0.001719  
3894.000000	0.001552  
3893.000000	0.001401  
3892.000000	0.001303  
3891.000000	0.001212  
3890.000000	0.001124  
3889.000000	0.001119  
3888.000000	0.001294  
3887.000000	0.001464  
3886.000000	0.000792  
3885.000000	0.000775  
3884.000000	0.000731  
3883.000000	0.000720  
3882.000000	0.000798  
3881.000000	0.001796  
3880.000000	0.001587  
3879.000000	0.001274  
3878.000000	0.001076  
3877.000000	0.001183  
3876.000000	0.001488  
3875.000000	0.001782  
3874.000000	0.001941  
3873.000000	0.002061  
3872.000000	0.002300  
3871.000000	0.002630  
3870.000000	0.002826  
3869.000000	0.002750  
3868.000000	0.002549  
3867.000000	0.002450  
3866.000000	0.002409  
3865.000000	0.002218  
3864.000000	0.001884  
3863.000000	0.001647  
3862.000000	0.001625  
3861.000000	0.001658  
3860.000000	0.001562  
3859.000000	0.001372  
3858.000000	0.001245  
3857.000000	0.001296  
3856.000000	0.001522  
3855.000000	0.001801  
3854.000000	0.001996  
3853.000000	0.002112  
3852.000000	0.002328  
3851.000000	0.002775  
3850.000000	0.003239  
3849.000000	0.003370  
3848.000000	0.003122  
3847.000000	0.002746  
3846.000000	0.002464  
3845.000000	0.002332  
3844.000000	0.002302  
3843.000000	0.002338  
3842.000000	0.002427  
3841.000000	0.002584  
3840.000000	0.002799  
3839.000000	0.003005  
3838.000000	0.003116  
3837.000000	0.003115  
3836.000000	0.003046  
3835.000000	0.002973  
3834.000000	0.002909  
3833.000000	0.002801  
3832.000000	0.002584  
3831.000000	0.002279  
3830.000000	0.002015  
3829.000000	0.001906  
3828.000000	0.001913  
3827.000000	0.001874  
3826.000000	0.001710  
3825.000000	0.001560  
3824.000000	0.001667  
3823.000000	0.002080  
3822.000000	0.002479  
3821.000000	0.002461  
3820.000000	0.002036  
3819.000000	0.001644  
3818.000000	0.001613  
3817.000000	0.001860  
3816.000000	0.002097  
3815.000000	0.002141  
3814.000000	0.002067  
3813.000000	0.002018  
3812.000000	0.001909  
3811.000000	0.001600  
3810.000000	0.001180  
3809.000000	0.000876  
3808.000000	0.000800  
3807.000000	0.000899  
3806.000000	0.001089  
3805.000000	0.001420  
3804.000000	0.001944  
3803.000000	0.002469  
3802.000000	0.002687  
3801.000000	0.002532  
3800.000000	0.002255  
3799.000000	0.002166  
3798.000000	0.002271  
3797.000000	0.002313  
3796.000000	0.002161  
3795.000000	0.001934  
3794.000000	0.001819  
3793.000000	0.001856  
3792.000000	0.001922  
3791.000000	0.001898  
3790.000000	0.001785  
3789.000000	0.001651  
3788.000000	0.001545  
3787.000000	0.001481  
3786.000000	0.001448  
3785.000000	0.001414  
3784.000000	0.001350  
3783.000000	0.001270  
3782.000000	0.001218  
3781.000000	0.001195  
3780.000000	0.001153  
3779.000000	0.001082  
3778.000000	0.001057  
3777.000000	0.001149  
3776.000000	0.001313  
3775.000000	0.001416  
3774.000000	0.001373  
3773.000000	0.001237  
3772.000000	0.001138  
3771.000000	0.001148  
3770.000000	0.001248  
3769.000000	0.001404  
3768.000000	0.001595  
3767.000000	0.001740  
3766.000000	0.001697  
3765.000000	0.001430  
3764.000000	0.001114  
3763.000000	0.000994  
3762.000000	0.001147  
3761.000000	0.001401  
3760.000000	0.001536  
3759.000000	0.001526  
3758.000000	0.001496  
3757.000000	0.001503  
3756.000000	0.001499  
3755.000000	0.001515  
3754.000000	0.001702  
3753.000000	0.002189  
3752.000000	0.002909  
3751.000000	0.003570  
3750.000000	0.003902  
3749.000000	0.003871  
3748.000000	0.003660  
3747.000000	0.003554  
3746.000000	0.003667  
3745.000000	0.003762  
3744.000000	0.003520  
3743.000000	0.003004  
3742.000000	0.002691  
3741.000000	0.002753  
3740.000000	0.002866  
3739.000000	0.002892  
3738.000000	0.002989  
3737.000000	0.003158  
3736.000000	0.003199  
3735.000000	0.003072  
3734.000000	0.002987  
3733.000000	0.003026  
3732.000000	0.003006  
3731.000000	0.002811  
3730.000000	0.002579  
3729.000000	0.002476  
3728.000000	0.002455  
3727.000000	0.002355  
3726.000000	0.002134  
3725.000000	0.001922  
3724.000000	0.001850  
3723.000000	0.001857  
3722.000000	0.001787  
3721.000000	0.001600  
3720.000000	0.001388  
3719.000000	0.001249  
3718.000000	0.001202  
3717.000000	0.001199  
3716.000000	0.001184  
3715.000000	0.001114  
3714.000000	0.000954  
3713.000000	0.000734  
3712.000000	0.000621  
3711.000000	0.000769  
3710.000000	0.001115  
3709.000000	0.001426  
3708.000000	0.001564  
3707.000000	0.001608  
3706.000000	0.001690  
3705.000000	0.001805  
3704.000000	0.001804  
3703.000000	0.001567  
3702.000000	0.001171  
3701.000000	0.000853  
3700.000000	0.000781  
3699.000000	0.000925  
3698.000000	0.001130  
3697.000000	0.001239  
3696.000000	0.001214  
3695.000000	0.001147  
3694.000000	0.001142  
3693.000000	0.001188  
3692.000000	0.001218  
3691.000000	0.001262  
3690.000000	0.001446  
3689.000000	0.001814  
3688.000000	0.002207  
3687.000000	0.002425  
3686.000000	0.002444  
3685.000000	0.002348  
3684.000000	0.002178  
3683.000000	0.001967  
3682.000000	0.001761  
3681.000000	0.001552  
3680.000000	0.001289  
3679.000000	0.001000  
3678.000000	0.000867  
3677.000000	0.001057  
3676.000000	0.001471  
3675.000000	0.001814  
3674.000000	0.002031  
3673.000000	0.002363  
3672.000000	0.002901  
3671.000000	0.003393  
3670.000000	0.003524  
3669.000000	0.003266  
3668.000000	0.002876  
3667.000000	0.002551  
3666.000000	0.002273  
3665.000000	0.001973  
3664.000000	0.001623  
3663.000000	0.001220  
3662.000000	0.000781  
3661.000000	0.000353  
3660.000000	0.000020  
3659.000000	-0.000112 
3658.000000	0.000025  
3657.000000	0.000398  
3656.000000	0.000847  
3655.000000	0.001227  
3654.000000	0.001520  
3653.000000	0.001719  
3652.000000	0.001736  
3651.000000	0.001554  
3650.000000	0.001356  
3649.000000	0.001414  
3648.000000	0.001805  
3647.000000	0.002254  
3646.000000	0.002442  
3645.000000	0.002370  
3644.000000	0.002240  
3643.000000	0.002189  
3642.000000	0.002212  
3641.000000	0.002229  
3640.000000	0.002154  
3639.000000	0.001949  
3638.000000	0.001653  
3637.000000	0.001384  
3636.000000	0.001264  
3635.000000	0.001297  
3634.000000	0.001367  
3633.000000	0.001379  
3632.000000	0.001377  
3631.000000	0.001457  
3630.000000	0.001638  
3629.000000	0.001820  
3628.000000	0.001893  
3627.000000	0.001919  
3626.000000	0.001998  
3625.000000	0.002066  
3624.000000	0.002046  
3623.000000	0.001988  
3622.000000	0.001969  
3621.000000	0.001954  
3620.000000	0.001846  
3619.000000	0.001649  
3618.000000	0.001486  
3617.000000	0.001457  
3616.000000	0.001544  
3615.000000	0.001659  
3614.000000	0.001719  
3613.000000	0.001726  
3612.000000	0.001767  
3611.000000	0.001918  
3610.000000	0.002126  
3609.000000	0.002232  
3608.000000	0.002127  
3607.000000	0.001876  
3606.000000	0.001613  
3605.000000	0.001389  
3604.000000	0.001183  
3603.000000	0.001018  
3602.000000	0.000992  
3601.000000	0.001191  
3600.000000	0.001587  
3599.000000	0.002026  
3598.000000	0.002320  
3597.000000	0.002341  
3596.000000	0.002109  
3595.000000	0.001787  
3594.000000	0.001554  
3593.000000	0.001453  
3592.000000	0.001410  
3591.000000	0.001355  
3590.000000	0.001308  
3589.000000	0.001351  
3588.000000	0.001505  
3587.000000	0.001680  
3586.000000	0.001776  
3585.000000	0.001760  
3584.000000	0.001652  
3583.000000	0.001499  
3582.000000	0.001347  
3581.000000	0.001248  
3580.000000	0.001236  
3579.000000	0.001277  
3578.000000	0.001274  
3577.000000	0.001163  
3576.000000	0.000985  
3575.000000	0.000838  
3574.000000	0.000750  
3573.000000	0.000654  
3572.000000	0.000499  
3571.000000	0.000351  
3570.000000	0.000359  
3569.000000	0.000607  
3568.000000	0.000997  
3567.000000	0.001337  
3566.000000	0.001559  
3565.000000	0.001711  
3564.000000	0.001803  
3563.000000	0.001786  
3562.000000	0.001627  
3561.000000	0.001382  
3560.000000	0.001207  
3559.000000	0.001236  
3558.000000	0.001444  
3557.000000	0.001660  
3556.000000	0.001696  
3555.000000	0.001494  
3554.000000	0.001149  
3553.000000	0.000832  
3552.000000	0.000670  
3551.000000	0.000692  
3550.000000	0.000833  
3549.000000	0.000981  
3548.000000	0.001042  
3547.000000	0.001002  
3546.000000	0.000960  
3545.000000	0.001024  
3544.000000	0.001195  
3543.000000	0.001392  
3542.000000	0.001566  
3541.000000	0.001736  
3540.000000	0.001903  
3539.000000	0.001982  
3538.000000	0.001859  
3537.000000	0.001528  
3536.000000	0.001139  
3535.000000	0.000889  
3534.000000	0.000856  
3533.000000	0.000973  
3532.000000	0.001130  
3531.000000	0.001262  
3530.000000	0.001367  
3529.000000	0.001448  
3528.000000	0.001485  
3527.000000	0.001456  
3526.000000	0.001363  
3525.000000	0.001228  
3524.000000	0.001090  
3523.000000	0.000996  
3522.000000	0.000975  
3521.000000	0.000999  
3520.000000	0.001006  
3519.000000	0.000963  
3518.000000	0.000906  
3517.000000	0.000894  
3516.000000	0.000954  
3515.000000	0.001059  
3514.000000	0.001157  
3513.000000	0.001215  
3512.000000	0.001238  
3511.000000	0.001259  
3510.000000	0.001319  
3509.000000	0.001409  
3508.000000	0.001465  
3507.000000	0.001428  
3506.000000	0.001327  
3505.000000	0.001260  
3504.000000	0.001294  
3503.000000	0.001397  
3502.000000	0.001476  
3501.000000	0.001469  
3500.000000	0.001399  
3499.000000	0.001342  
3498.000000	0.001353  
3497.000000	0.001405  
3496.000000	0.001417  
3495.000000	0.001337  
3494.000000	0.001193  
3493.000000	0.001038  
3492.000000	0.000884  
3491.000000	0.000718  
3490.000000	0.000572  
3489.000000	0.000526  
3488.000000	0.000623  
3487.000000	0.000817  
3486.000000	0.001038  
3485.000000	0.001248  
3484.000000	0.001419  
3483.000000	0.001485  
3482.000000	0.001396  
3481.000000	0.001199  
3480.000000	0.001014  
3479.000000	0.000934  
3478.000000	0.000958  
3477.000000	0.001027  
3476.000000	0.001082  
3475.000000	0.001097  
3474.000000	0.001079  
3473.000000	0.001037  
3472.000000	0.000955  
3471.000000	0.000812  
3470.000000	0.000629  
3469.000000	0.000489  
3468.000000	0.000472  
3467.000000	0.000573  
3466.000000	0.000709  
3465.000000	0.000794  
3464.000000	0.000794  
3463.000000	0.000715  
3462.000000	0.000593  
3461.000000	0.000485  
3460.000000	0.000444  
3459.000000	0.000483  
3458.000000	0.000577  
3457.000000	0.000682  
3456.000000	0.000758  
3455.000000	0.000778  
3454.000000	0.000754  
3453.000000	0.000745  
3452.000000	0.000798  
3451.000000	0.000892  
3450.000000	0.000958  
3449.000000	0.000962  
3448.000000	0.000946  
3447.000000	0.000979  
3446.000000	0.001086  
3445.000000	0.001238  
3444.000000	0.001385  
3443.000000	0.001478  
3442.000000	0.001491  
3441.000000	0.001450  
3440.000000	0.001425  
3439.000000	0.001458  
3438.000000	0.001499  
3437.000000	0.001433  
3436.000000	0.001198  
3435.000000	0.000868  
3434.000000	0.000622  
3433.000000	0.000606  
3432.000000	0.000818  
3431.000000	0.001108  
3430.000000	0.001298  
3429.000000	0.001291  
3428.000000	0.001093  
3427.000000	0.000775  
3426.000000	0.000451  
3425.000000	0.000249  
3424.000000	0.000252  
3423.000000	0.000437  
3422.000000	0.000698  
3421.000000	0.000933  
3420.000000	0.001102  
3419.000000	0.001202  
3418.000000	0.001235  
3417.000000	0.001213  
3416.000000	0.001158  
3415.000000	0.001092  
3414.000000	0.001028  
3413.000000	0.000998  
3412.000000	0.001053  
3411.000000	0.001190  
3410.000000	0.001315  
3409.000000	0.001292  
3408.000000	0.001070  
3407.000000	0.000737  
3406.000000	0.000447  
3405.000000	0.000310  
3404.000000	0.000333  
3403.000000	0.000459  
3402.000000	0.000634  
3401.000000	0.000829  
3400.000000	0.001004  
3399.000000	0.001086  
3398.000000	0.001036  
3397.000000	0.000924  
3396.000000	0.000910  
3395.000000	0.001101  
3394.000000	0.001436  
3393.000000	0.001725  
3392.000000	0.001809  
3391.000000	0.001673  
3390.000000	0.001430  
3389.000000	0.001220  
3388.000000	0.001109  
3387.000000	0.001061  
3386.000000	0.001005  
3385.000000	0.000930  
3384.000000	0.000908  
3383.000000	0.001001  
3382.000000	0.001171  
3381.000000	0.001316  
3380.000000	0.001371  
3379.000000	0.001334  
3378.000000	0.001209  
3377.000000	0.000981  
3376.000000	0.000677  
3375.000000	0.000411  
3374.000000	0.000325  
3373.000000	0.000460  
3372.000000	0.000716  
3371.000000	0.000950  
3370.000000	0.001098  
3369.000000	0.001195  
3368.000000	0.001294  
3367.000000	0.001400  
3366.000000	0.001484  
3365.000000	0.001522  
3364.000000	0.001503  
3363.000000	0.001416  
3362.000000	0.001283  
3361.000000	0.001176  
3360.000000	0.001168  
3359.000000	0.001238  
3358.000000	0.001280  
3357.000000	0.001227  
3356.000000	0.001129  
3355.000000	0.001074  
3354.000000	0.001057  
3353.000000	0.000993  
3352.000000	0.000843  
3351.000000	0.000667  
3350.000000	0.000556  
3349.000000	0.000554  
3348.000000	0.000656  
3347.000000	0.000843  
3346.000000	0.001079  
3345.000000	0.001297  
3344.000000	0.001418  
3343.000000	0.001409  
3342.000000	0.001300  
3341.000000	0.001149  
3340.000000	0.000999  
3339.000000	0.000862  
3338.000000	0.000745  
3337.000000	0.000682  
3336.000000	0.000711  
3335.000000	0.000830  
3334.000000	0.000976  
3333.000000	0.001079  
3332.000000	0.001129  
3331.000000	0.001157  
3330.000000	0.001189  
3329.000000	0.001223  
3328.000000	0.001256  
3327.000000	0.001279  
3326.000000	0.001260  
3325.000000	0.001164  
3324.000000	0.001013  
3323.000000	0.000892  
3322.000000	0.000870  
3321.000000	0.000928  
3320.000000	0.001000  
3319.000000	0.001049  
3318.000000	0.001095  
3317.000000	0.001150  
3316.000000	0.001188  
3315.000000	0.001165  
3314.000000	0.001077  
3313.000000	0.000976  
3312.000000	0.000934  
3311.000000	0.000995  
3310.000000	0.001131  
3309.000000	0.001249  
3308.000000	0.001245  
3307.000000	0.001097  
3306.000000	0.000904  
3305.000000	0.000827  
3304.000000	0.000941  
3303.000000	0.001170  
3302.000000	0.001356  
3301.000000	0.001403  
3300.000000	0.001334  
3299.000000	0.001220  
3298.000000	0.001109  
3297.000000	0.001024  
3296.000000	0.000985  
3295.000000	0.000985  
3294.000000	0.000983  
3293.000000	0.000964  
3292.000000	0.000981  
3291.000000	0.001091  
3290.000000	0.001253  
3289.000000	0.001347  
3288.000000	0.001310  
3287.000000	0.001187  
3286.000000	0.001055  
3285.000000	0.000927  
3284.000000	0.000786  
3283.000000	0.000665  
3282.000000	0.000633  
3281.000000	0.000701  
3280.000000	0.000795  
3279.000000	0.000845  
3278.000000	0.000862  
3277.000000	0.000916  
3276.000000	0.001055  
3275.000000	0.001266  
3274.000000	0.001501  
3273.000000	0.001703  
3272.000000	0.001810  
3271.000000	0.001771  
3270.000000	0.001587  
3269.000000	0.001331  
3268.000000	0.001086  
3267.000000	0.000889  
3266.000000	0.000753  
3265.000000	0.000722  
3264.000000	0.000857  
3263.000000	0.001130  
3262.000000	0.001399  
3261.000000	0.001527  
3260.000000	0.001515  
3259.000000	0.001469  
3258.000000	0.001452  
3257.000000	0.001425  
3256.000000	0.001324  
3255.000000	0.001164  
3254.000000	0.001039  
3253.000000	0.001046  
3252.000000	0.001193  
3251.000000	0.001384  
3250.000000	0.001495  
3249.000000	0.001494  
3248.000000	0.001458  
3247.000000	0.001463  
3246.000000	0.001484  
3245.000000	0.001451  
3244.000000	0.001388  
3243.000000	0.001402  
3242.000000	0.001532  
3241.000000	0.001674  
3240.000000	0.001692  
3239.000000	0.001557  
3238.000000	0.001342  
3237.000000	0.001129  
3236.000000	0.000958  
3235.000000	0.000844  
3234.000000	0.000776  
3233.000000	0.000743  
3232.000000	0.000765  
3231.000000	0.000879  
3230.000000	0.001066  
3229.000000	0.001225  
3228.000000	0.001264  
3227.000000	0.001213  
3226.000000	0.001185  
3225.000000	0.001252  
3224.000000	0.001391  
3223.000000	0.001532  
3222.000000	0.001604  
3221.000000	0.001556  
3220.000000	0.001382  
3219.000000	0.001160  
3218.000000	0.001022  
3217.000000	0.001054  
3216.000000	0.001231  
3215.000000	0.001444  
3214.000000	0.001581  
3213.000000	0.001600  
3212.000000	0.001543  
3211.000000	0.001505  
3210.000000	0.001554  
3209.000000	0.001669  
3208.000000	0.001779  
3207.000000	0.001830  
3206.000000	0.001827  
3205.000000	0.001813  
3204.000000	0.001832  
3203.000000	0.001916  
3202.000000	0.002045  
3201.000000	0.002131  
3200.000000	0.002071  
3199.000000	0.001843  
3198.000000	0.001540  
3197.000000	0.001279  
3196.000000	0.001110  
3195.000000	0.001020  
3194.000000	0.000989  
3193.000000	0.001022  
3192.000000	0.001122  
3191.000000	0.001280  
3190.000000	0.001487  
3189.000000	0.001719  
3188.000000	0.001922  
3187.000000	0.002023  
3186.000000	0.001995  
3185.000000	0.001894  
3184.000000	0.001801  
3183.000000	0.001739  
3182.000000	0.001667  
3181.000000	0.001547  
3180.000000	0.001400  
3179.000000	0.001280  
3178.000000	0.001220  
3177.000000	0.001234  
3176.000000	0.001337  
3175.000000	0.001516  
3174.000000	0.001688  
3173.000000	0.001748  
3172.000000	0.001673  
3171.000000	0.001552  
3170.000000	0.001498  
3169.000000	0.001541  
3168.000000	0.001628  
3167.000000	0.001697  
3166.000000	0.001734  
3165.000000	0.001760  
3164.000000	0.001803  
3163.000000	0.001869  
3162.000000	0.001920  
3161.000000	0.001914  
3160.000000	0.001857  
3159.000000	0.001821  
3158.000000	0.001868  
3157.000000	0.001988  
3156.000000	0.002119  
3155.000000	0.002213  
3154.000000	0.002267  
3153.000000	0.002284  
3152.000000	0.002245  
3151.000000	0.002127  
3150.000000	0.001932  
3149.000000	0.001708  
3148.000000	0.001526  
3147.000000	0.001430  
3146.000000	0.001404  
3145.000000	0.001401  
3144.000000	0.001417  
3143.000000	0.001484  
3142.000000	0.001600  
3141.000000	0.001700  
3140.000000	0.001741  
3139.000000	0.001767  
3138.000000	0.001846  
3137.000000	0.001959  
3136.000000	0.002009  
3135.000000	0.001936  
3134.000000	0.001783  
3133.000000	0.001652  
3132.000000	0.001632  
3131.000000	0.001744  
3130.000000	0.001928  
3129.000000	0.002066  
3128.000000	0.002066  
3127.000000	0.001931  
3126.000000	0.001743  
3125.000000	0.001584  
3124.000000	0.001499  
3123.000000	0.001517  
3122.000000	0.001636  
3121.000000	0.001789  
3120.000000	0.001879  
3119.000000	0.001864  
3118.000000	0.001787  
3117.000000	0.001712  
3116.000000	0.001674  
3115.000000	0.001685  
3114.000000	0.001754  
3113.000000	0.001865  
3112.000000	0.001987  
3111.000000	0.002105  
3110.000000	0.002214  
3109.000000	0.002280  
3108.000000	0.002240  
3107.000000	0.002073  
3106.000000	0.001851  
3105.000000	0.001688  
3104.000000	0.001660  
3103.000000	0.001777  
3102.000000	0.001983  
3101.000000	0.002162  
3100.000000	0.002195  
3099.000000	0.002052  
3098.000000	0.001824  
3097.000000	0.001647  
3096.000000	0.001604  
3095.000000	0.001695  
3094.000000	0.001856  
3093.000000	0.002002  
3092.000000	0.002071  
3091.000000	0.002074  
3090.000000	0.002070  
3089.000000	0.002088  
3088.000000	0.002105  
3087.000000	0.002114  
3086.000000	0.002158  
3085.000000	0.002259  
3084.000000	0.002352  
3083.000000	0.002352  
3082.000000	0.002271  
3081.000000	0.002221  
3080.000000	0.002293  
3079.000000	0.002478  
3078.000000	0.002701  
3077.000000	0.002888  
3076.000000	0.002993  
3075.000000	0.002994  
3074.000000	0.002905  
3073.000000	0.002782  
3072.000000	0.002697  
3071.000000	0.002701  
3070.000000	0.002790  
3069.000000	0.002896  
3068.000000	0.002940  
3067.000000	0.002907  
3066.000000	0.002868  
3065.000000	0.002919  
3064.000000	0.003090  
3063.000000	0.003318  
3062.000000	0.003498  
3061.000000	0.003550  
3060.000000	0.003474  
3059.000000	0.003350  
3058.000000	0.003276  
3057.000000	0.003284  
3056.000000	0.003331  
3055.000000	0.003382  
3054.000000	0.003449  
3053.000000	0.003528  
3052.000000	0.003548  
3051.000000	0.003457  
3050.000000	0.003323  
3049.000000	0.003296  
3048.000000	0.003446  
3047.000000	0.003689  
3046.000000	0.003879  
3045.000000	0.003945  
3044.000000	0.003908  
3043.000000	0.003829  
3042.000000	0.003765  
3041.000000	0.003755  
3040.000000	0.003809  
3039.000000	0.003907  
3038.000000	0.004015  
3037.000000	0.004106  
3036.000000	0.004164  
3035.000000	0.004182  
3034.000000	0.004162  
3033.000000	0.004122  
3032.000000	0.004102  
3031.000000	0.004154  
3030.000000	0.004306  
3029.000000	0.004527  
3028.000000	0.004730  
3027.000000	0.004848  
3026.000000	0.004896  
3025.000000	0.004956  
3024.000000	0.005100  
3023.000000	0.005326  
3022.000000	0.005559  
3021.000000	0.005700  
3020.000000	0.005693  
3019.000000	0.005590  
3018.000000	0.005533  
3017.000000	0.005635  
3016.000000	0.005872  
3015.000000	0.006119  
3014.000000	0.006279  
3013.000000	0.006360  
3012.000000	0.006411  
3011.000000	0.006451  
3010.000000	0.006489  
3009.000000	0.006559  
3008.000000	0.006702  
3007.000000	0.006922  
3006.000000	0.007168  
3005.000000	0.007358  
3004.000000	0.007425  
3003.000000	0.007373  
3002.000000	0.007303  
3001.000000	0.007366  
3000.000000	0.007639  
2999.000000	0.008049  
2998.000000	0.008438  
2997.000000	0.008699  
2996.000000	0.008844  
2995.000000	0.008970  
2994.000000	0.009177  
2993.000000	0.009522  
2992.000000	0.009992  
2991.000000	0.010517  
2990.000000	0.011019  
2989.000000	0.011473  
2988.000000	0.011934  
2987.000000	0.012500  
2986.000000	0.013248  
2985.000000	0.014187  
2984.000000	0.015266  
2983.000000	0.016426  
2982.000000	0.017661  
2981.000000	0.019020  
2980.000000	0.020545  
2979.000000	0.022247  
2978.000000	0.024129  
2977.000000	0.026249  
2976.000000	0.028706  
2975.000000	0.031585  
2974.000000	0.034910  
2973.000000	0.038640  
2972.000000	0.042698  
2971.000000	0.047011  
2970.000000	0.051560  
2969.000000	0.056406  
2968.000000	0.061630  
2967.000000	0.067210  
2966.000000	0.072979  
2965.000000	0.078722  
2964.000000	0.084306  
2963.000000	0.089697  
2962.000000	0.094878  
2961.000000	0.099810  
2960.000000	0.104448  
2959.000000	0.108719  
2958.000000	0.112472  
2957.000000	0.115504  
2956.000000	0.117660  
2955.000000	0.118893  
2954.000000	0.119202  
2953.000000	0.118579  
2952.000000	0.117076  
2951.000000	0.114882  
2950.000000	0.112305  
2949.000000	0.109651  
2948.000000	0.107141  
2947.000000	0.104928  
2946.000000	0.103160  
2945.000000	0.102014  
2944.000000	0.101664  
2943.000000	0.102229  
2942.000000	0.103753  
2941.000000	0.106215  
2940.000000	0.109572  
2939.000000	0.113778  
2938.000000	0.118796  
2937.000000	0.124571  
2936.000000	0.130991  
2935.000000	0.137872  
2934.000000	0.145035  
2933.000000	0.152411  
2932.000000	0.160050  
2931.000000	0.167991  
2930.000000	0.176135  
2929.000000	0.184267  
2928.000000	0.192152  
2927.000000	0.199560  
2926.000000	0.206224  
2925.000000	0.211859  
2924.000000	0.216234  
2923.000000	0.219152  
2922.000000	0.220428  
2921.000000	0.219993  
2920.000000	0.218021  
2919.000000	0.214858  
2918.000000	0.210810  
2917.000000	0.206074  
2916.000000	0.200846  
2915.000000	0.195363  
2914.000000	0.189806  
2913.000000	0.184251  
2912.000000	0.178765  
2911.000000	0.173485  
2910.000000	0.168549  
2909.000000	0.163954  
2908.000000	0.159543  
2907.000000	0.155129  
2906.000000	0.150624  
2905.000000	0.146083  
2904.000000	0.141645  
2903.000000	0.137438  
2902.000000	0.133503  
2901.000000	0.129764  
2900.000000	0.126079  
2899.000000	0.122323  
2898.000000	0.118470  
2897.000000	0.114608  
2896.000000	0.110875  
2895.000000	0.107360  
2894.000000	0.104033  
2893.000000	0.100771  
2892.000000	0.097444  
2891.000000	0.094021  
2890.000000	0.090602  
2889.000000	0.087369  
2888.000000	0.084486  
2887.000000	0.082020  
2886.000000	0.079950  
2885.000000	0.078238  
2884.000000	0.076906  
2883.000000	0.076035  
2882.000000	0.075721  
2881.000000	0.076023  
2880.000000	0.076977  
2879.000000	0.078631  
2878.000000	0.081033  
2877.000000	0.084135  
2876.000000	0.087715  
2875.000000	0.091404  
2874.000000	0.094800  
2873.000000	0.097584  
2872.000000	0.099571  
2871.000000	0.100731  
2870.000000	0.101200  
2869.000000	0.101255  
2868.000000	0.101221  
2867.000000	0.101365  
2866.000000	0.101872  
2865.000000	0.102905  
2864.000000	0.104627  
2863.000000	0.107130  
2862.000000	0.110354  
2861.000000	0.114140  
2860.000000	0.118341  
2859.000000	0.122870  
2858.000000	0.127599  
2857.000000	0.132243  
2856.000000	0.136336  
2855.000000	0.139325  
2854.000000	0.140725  
2853.000000	0.140264  
2852.000000	0.137949  
2851.000000	0.134015  
2850.000000	0.128798  
2849.000000	0.122635  
2848.000000	0.115836  
2847.000000	0.108683  
2846.000000	0.101445  
2845.000000	0.094335  
2844.000000	0.087440  
2843.000000	0.080718  
2842.000000	0.074113  
2841.000000	0.067678  
2840.000000	0.061565  
2839.000000	0.055917  
2838.000000	0.050802  
2837.000000	0.046236  
2836.000000	0.042187  
2835.000000	0.038560  
2834.000000	0.035232  
2833.000000	0.032146  
2832.000000	0.029362  
2831.000000	0.026983  
2830.000000	0.025036  
2829.000000	0.023443  
2828.000000	0.022081  
2827.000000	0.020852  
2826.000000	0.019705  
2825.000000	0.018630  
2824.000000	0.017629  
2823.000000	0.016708  
2822.000000	0.015882  
2821.000000	0.015171  
2820.000000	0.014576  
2819.000000	0.014065  
2818.000000	0.013588  
2817.000000	0.013126  
2816.000000	0.012694  
2815.000000	0.012295  
2814.000000	0.011886  
2813.000000	0.011421  
2812.000000	0.010910  
2811.000000	0.010432  
2810.000000	0.010060  
2809.000000	0.009811  
2808.000000	0.009645  
2807.000000	0.009515  
2806.000000	0.009396  
2805.000000	0.009273  
2804.000000	0.009118  
2803.000000	0.008900  
2802.000000	0.008619  
2801.000000	0.008328  
2800.000000	0.008090  
2799.000000	0.007916  
2798.000000	0.007766  
2797.000000	0.007605  
2796.000000	0.007447  
2795.000000	0.007315  
2794.000000	0.007181  
2793.000000	0.006971  
2792.000000	0.006650  
2791.000000	0.006275  
2790.000000	0.005957  
2789.000000	0.005768  
2788.000000	0.005696  
2787.000000	0.005675  
2786.000000	0.005640  
2785.000000	0.005558  
2784.000000	0.005430  
2783.000000	0.005287  
2782.000000	0.005182  
2781.000000	0.005164  
2780.000000	0.005236  
2779.000000	0.005340  
2778.000000	0.005381  
2777.000000	0.005285  
2776.000000	0.005046  
2775.000000	0.004741  
2774.000000	0.004488  
2773.000000	0.004372  
2772.000000	0.004386  
2771.000000	0.004440  
2770.000000	0.004436  
2769.000000	0.004343  
2768.000000	0.004196  
2767.000000	0.004041  
2766.000000	0.003910  
2765.000000	0.003834  
2764.000000	0.003847  
2763.000000	0.003944  
2762.000000	0.004061  
2761.000000	0.004127  
2760.000000	0.004130  
2759.000000	0.004108  
2758.000000	0.004086  
2757.000000	0.004053  
2756.000000	0.003996  
2755.000000	0.003938  
2754.000000	0.003910  
2753.000000	0.003919  
2752.000000	0.003946  
2751.000000	0.003976  
2750.000000	0.004011  
2749.000000	0.004052  
2748.000000	0.004077  
2747.000000	0.004053  
2746.000000	0.003978  
2745.000000	0.003900  
2744.000000	0.003887  
2743.000000	0.003949  
2742.000000	0.004032  
2741.000000	0.004083  
2740.000000	0.004115  
2739.000000	0.004175  
2738.000000	0.004266  
2737.000000	0.004350  
2736.000000	0.004410  
2735.000000	0.004487  
2734.000000	0.004610  
2733.000000	0.004742  
2732.000000	0.004811  
2731.000000	0.004784  
2730.000000	0.004703  
2729.000000	0.004648  
2728.000000	0.004665  
2727.000000	0.004730  
2726.000000	0.004766  
2725.000000	0.004715  
2724.000000	0.004597  
2723.000000	0.004484  
2722.000000	0.004416  
2721.000000	0.004385  
2720.000000	0.004387  
2719.000000	0.004437  
2718.000000	0.004521  
2717.000000	0.004569  
2716.000000	0.004531  
2715.000000	0.004431  
2714.000000	0.004321  
2713.000000	0.004200  
2712.000000	0.004037  
2711.000000	0.003859  
2710.000000	0.003739  
2709.000000	0.003708  
2708.000000	0.003723  
2707.000000	0.003731  
2706.000000	0.003721  
2705.000000	0.003695  
2704.000000	0.003626  
2703.000000	0.003499  
2702.000000	0.003346  
2701.000000	0.003214  
2700.000000	0.003119  
2699.000000	0.003055  
2698.000000	0.003038  
2697.000000	0.003096  
2696.000000	0.003227  
2695.000000	0.003386  
2694.000000	0.003519  
2693.000000	0.003587  
2692.000000	0.003582  
2691.000000	0.003533  
2690.000000	0.003510  
2689.000000	0.003582  
2688.000000	0.003749  
2687.000000	0.003934  
2686.000000	0.004045  
2685.000000	0.004059  
2684.000000	0.004027  
2683.000000	0.004011  
2682.000000	0.004023  
2681.000000	0.004033  
2680.000000	0.004013  
2679.000000	0.003976  
2678.000000	0.003961  
2677.000000	0.004011  
2676.000000	0.004132  
2675.000000	0.004284  
2674.000000	0.004396  
2673.000000	0.004416  
2672.000000	0.004355  
2671.000000	0.004270  
2670.000000	0.004210  
2669.000000	0.004186  
2668.000000	0.004200  
2667.000000	0.004261  
2666.000000	0.004366  
2665.000000	0.004474  
2664.000000	0.004533  
2663.000000	0.004508  
2662.000000	0.004387  
2661.000000	0.004183  
2660.000000	0.003950  
2659.000000	0.003764  
2658.000000	0.003664  
2657.000000	0.003616  
2656.000000	0.003576  
2655.000000	0.003552  
2654.000000	0.003579  
2653.000000	0.003637  
2652.000000	0.003666  
2651.000000	0.003655  
2650.000000	0.003658  
2649.000000	0.003712  
2648.000000	0.003780  
2647.000000	0.003803  
2646.000000	0.003769  
2645.000000	0.003702  
2644.000000	0.003625  
2643.000000	0.003574  
2642.000000	0.003593  
2641.000000	0.003681  
2640.000000	0.003769  
2639.000000	0.003767  
2638.000000	0.003642  
2637.000000	0.003433  
2636.000000	0.003215  
2635.000000	0.003077  
2634.000000	0.003090  
2633.000000	0.003255  
2632.000000	0.003480  
2631.000000	0.003644  
2630.000000	0.003679  
2629.000000	0.003592  
2628.000000	0.003446  
2627.000000	0.003326  
2626.000000	0.003290  
2625.000000	0.003317  
2624.000000	0.003318  
2623.000000	0.003225  
2622.000000	0.003066  
2621.000000	0.002920  
2620.000000	0.002816  
2619.000000	0.002737  
2618.000000	0.002684  
2617.000000	0.002702  
2616.000000	0.002822  
2615.000000	0.003002  
2614.000000	0.003159  
2613.000000	0.003231  
2612.000000	0.003222  
2611.000000	0.003199  
2610.000000	0.003243  
2609.000000	0.003378  
2608.000000	0.003554  
2607.000000	0.003707  
2606.000000	0.003802  
2605.000000	0.003815  
2604.000000	0.003715  
2603.000000	0.003512  
2602.000000	0.003296  
2601.000000	0.003183  
2600.000000	0.003196  
2599.000000	0.003244  
2598.000000	0.003233  
2597.000000	0.003155  
2596.000000	0.003066  
2595.000000	0.003001  
2594.000000	0.002928  
2593.000000	0.002796  
2592.000000	0.002601  
2591.000000	0.002413  
2590.000000	0.002324  
2589.000000	0.002349  
2588.000000	0.002420  
2587.000000	0.002477  
2586.000000	0.002532  
2585.000000	0.002612  
2584.000000	0.002670  
2583.000000	0.002626  
2582.000000	0.002484  
2581.000000	0.002344  
2580.000000	0.002287  
2579.000000	0.002311  
2578.000000	0.002376  
2577.000000	0.002456  
2576.000000	0.002513  
2575.000000	0.002489  
2574.000000	0.002366  
2573.000000	0.002222  
2572.000000	0.002157  
2571.000000	0.002179  
2570.000000	0.002205  
2569.000000	0.002165  
2568.000000	0.002073  
2567.000000	0.001992  
2566.000000	0.001965  
2565.000000	0.001992  
2564.000000	0.002043  
2563.000000	0.002071  
2562.000000	0.002042  
2561.000000	0.001964  
2560.000000	0.001877  
2559.000000	0.001822  
2558.000000	0.001814  
2557.000000	0.001863  
2556.000000	0.001978  
2555.000000	0.002133  
2554.000000	0.002249  
2553.000000	0.002263  
2552.000000	0.002221  
2551.000000	0.002251  
2550.000000	0.002421  
2549.000000	0.002650  
2548.000000	0.002785  
2547.000000	0.002740  
2546.000000	0.002531  
2545.000000	0.002230  
2544.000000	0.001926  
2543.000000	0.001720  
2542.000000	0.001657  
2541.000000	0.001678  
2540.000000	0.001682  
2539.000000	0.001657  
2538.000000	0.001690  
2537.000000	0.001808  
2536.000000	0.001895  
2535.000000	0.001826  
2534.000000	0.001637  
2533.000000	0.001498  
2532.000000	0.001515  
2531.000000	0.001617  
2530.000000	0.001639  
2529.000000	0.001495  
2528.000000	0.001258  
2527.000000	0.001100  
2526.000000	0.001144  
2525.000000	0.001366  
2524.000000	0.001637  
2523.000000	0.001859  
2522.000000	0.002017  
2521.000000	0.002107  
2520.000000	0.002085  
2519.000000	0.001956  
2518.000000	0.001844  
2517.000000	0.001889  
2516.000000	0.002078  
2515.000000	0.002247  
2514.000000	0.002264  
2513.000000	0.002141  
2512.000000	0.001976  
2511.000000	0.001836  
2510.000000	0.001736  
2509.000000	0.001686  
2508.000000	0.001711  
2507.000000	0.001818  
2506.000000	0.001973  
2505.000000	0.002094  
2504.000000	0.002098  
2503.000000	0.001969  
2502.000000	0.001788  
2501.000000	0.001685  
2500.000000	0.001723  
2499.000000	0.001841  
2498.000000	0.001889  
2497.000000	0.001729  
2496.000000	0.001353  
2495.000000	0.000917  
2494.000000	0.000656  
2493.000000	0.000707  
2492.000000	0.001012  
2491.000000	0.001398  
2490.000000	0.001737  
2489.000000	0.001993  
2488.000000	0.002154  
2487.000000	0.002175  
2486.000000	0.002015  
2485.000000	0.001691  
2484.000000	0.001298  
2483.000000	0.000984  
2482.000000	0.000903  
2481.000000	0.001121  
2480.000000	0.001549  
2479.000000	0.001966  
2478.000000	0.002170  
2477.000000	0.002092  
2476.000000	0.001821  
2475.000000	0.001521  
2474.000000	0.001322  
2473.000000	0.001265  
2472.000000	0.001303  
2471.000000	0.001360  
2470.000000	0.001376  
2469.000000	0.001333  
2468.000000	0.001270  
2467.000000	0.001281  
2466.000000	0.001431  
2465.000000	0.001658  
2464.000000	0.001795  
2463.000000	0.001748  
2462.000000	0.001597  
2461.000000	0.001487  
2460.000000	0.001472  
2459.000000	0.001528  
2458.000000	0.001653  
2457.000000	0.001848  
2456.000000	0.002004  
2455.000000	0.001960  
2454.000000	0.001706  
2453.000000	0.001428  
2452.000000	0.001291  
2451.000000	0.001267  
2450.000000	0.001231  
2449.000000	0.001172  
2448.000000	0.001189  
2447.000000	0.001329  
2446.000000	0.001511  
2445.000000	0.001618  
2444.000000	0.001612  
2443.000000	0.001550  
2442.000000	0.001521  
2441.000000	0.001565  
2440.000000	0.001631  
2439.000000	0.001615  
2438.000000	0.001479  
2437.000000	0.001301  
2436.000000	0.001191  
2435.000000	0.001164  
2434.000000	0.001151  
2433.000000	0.001114  
2432.000000	0.001098  
2431.000000	0.001149  
2430.000000	0.001246  
2429.000000	0.001336  
2428.000000	0.001413  
2427.000000	0.001517  
2426.000000	0.001673  
2425.000000	0.001840  
2424.000000	0.001944  
2423.000000	0.001927  
2422.000000	0.001795  
2421.000000	0.001625  
2420.000000	0.001503  
2419.000000	0.001461  
2418.000000	0.001457  
2417.000000	0.001433  
2416.000000	0.001386  
2415.000000	0.001370  
2414.000000	0.001433  
2413.000000	0.001559  
2412.000000	0.001682  
2411.000000	0.001748  
2410.000000	0.001769  
2409.000000	0.001805  
2408.000000	0.001895  
2407.000000	0.001982  
2406.000000	0.001945  
2405.000000	0.001720  
2404.000000	0.001397  
2403.000000	0.001154  
2402.000000	0.001088  
2401.000000	0.001134  
2400.000000	0.001184  
2399.000000	0.001231  
2398.000000	0.001349  
2397.000000	0.001549  
2396.000000	0.001741  
2395.000000	0.001847  
2394.000000	0.001897  
2393.000000	0.001970  
2392.000000	0.002080  
2391.000000	0.002160  
2390.000000	0.002132  
2389.000000	0.001968  
2388.000000	0.001724  
2387.000000	0.001527  
2386.000000	0.001522  
2385.000000	0.001743  
2384.000000	0.002059  
2383.000000	0.002269  
2382.000000	0.002288  
2381.000000	0.002231  
2380.000000	0.002301  
2379.000000	0.002598  
2378.000000	0.003015  
2377.000000	0.003306  
2376.000000	0.003277  
2375.000000	0.002955  
2374.000000	0.002565  
2373.000000	0.002338  
2372.000000	0.002344  
2371.000000	0.002532  
2370.000000	0.002817  
2369.000000	0.003053  
2368.000000	0.003035  
2367.000000	0.002743  
2366.000000	0.002498  
2365.000000	0.002590  
2364.000000	0.002797  
2363.000000	0.002627  
2362.000000	0.002083  
2361.000000	0.001770  
2360.000000	0.002109  
2359.000000	0.002845  
2358.000000	0.003442  
2357.000000	0.003627  
2356.000000	0.003448  
2355.000000	0.003077  
2354.000000	0.002778  
2353.000000	0.002790  
2352.000000	0.003104  
2351.000000	0.003480  
2350.000000	0.003670  
2349.000000	0.003577  
2348.000000	0.003222  
2347.000000	0.002752  
2346.000000	0.002474  
2345.000000	0.002620  
2344.000000	0.003005  
2343.000000	0.003149  
2342.000000	0.002940  
2341.000000	0.002775  
2340.000000	0.003009  
2339.000000	0.003491  
2338.000000	0.003761  
2337.000000	0.003624  
2336.000000	0.003289  
2335.000000	0.003048  
2334.000000	0.002977  
2333.000000	0.003034  
2332.000000	0.003184  
2331.000000	0.003399  
2330.000000	0.003550  
2329.000000	0.003547  
2328.000000	0.003428  
2327.000000	0.003333  
2326.000000	0.003351  
2325.000000	0.003436  
2324.000000	0.003458  
2323.000000	0.003277  
2322.000000	0.002871  
2321.000000	0.002391  
2320.000000	0.002091  
2319.000000	0.002134  
2318.000000	0.002407  
2317.000000	0.002603  
2316.000000	0.002443  
2315.000000	0.001967  
2314.000000	0.001493  
2313.000000	0.001348  
2312.000000	0.001538  
2311.000000	0.001827  
2310.000000	0.002026  
2309.000000	0.002191  
2308.000000	0.002441  
2307.000000	0.002741  
2306.000000	0.002897  
2305.000000	0.002765  
2304.000000	0.002400  
2303.000000	0.002010  
2302.000000	0.001753  
2301.000000	0.001631  
2300.000000	0.001534  
2299.000000	0.001430  
2298.000000	0.001411  
2297.000000	0.001565  
2296.000000	0.001802  
2295.000000	0.001935  
2294.000000	0.001900  
2293.000000	0.001810  
2292.000000	0.001775  
2291.000000	0.001767  
2290.000000	0.001716  
2289.000000	0.001643  
2288.000000	0.001590  
2287.000000	0.001480  
2286.000000	0.001216  
2285.000000	0.000880  
2284.000000	0.000706  
2283.000000	0.000811  
2282.000000	0.001051  
2281.000000	0.001217  
2280.000000	0.001284  
2279.000000	0.001359  
2278.000000	0.001461  
2277.000000	0.001479  
2276.000000	0.001387  
2275.000000	0.001358  
2274.000000	0.001602  
2273.000000	0.002100  
2272.000000	0.002602  
2271.000000	0.002877  
2270.000000	0.002905  
2269.000000	0.002788  
2268.000000	0.002558  
2267.000000	0.002159  
2266.000000	0.001629  
2265.000000	0.001174  
2264.000000	0.000999  
2263.000000	0.001117  
2262.000000	0.001383  
2261.000000	0.001656  
2260.000000	0.001870  
2259.000000	0.001999  
2258.000000	0.002070  
2257.000000	0.002189  
2256.000000	0.002431  
2255.000000	0.002694  
2254.000000	0.002762  
2253.000000	0.002549  
2252.000000	0.002212  
2251.000000	0.001972  
2250.000000	0.001888  
2249.000000	0.001837  
2248.000000	0.001661  
2247.000000	0.001293  
2246.000000	0.000799  
2245.000000	0.000368  
2244.000000	0.000215  
2243.000000	0.000408  
2242.000000	0.000794  
2241.000000	0.001138  
2240.000000	0.001329  
2239.000000	0.001423  
2238.000000	0.001501  
2237.000000	0.001543  
2236.000000	0.001461  
2235.000000	0.001223  
2234.000000	0.000947  
2233.000000	0.000840  
2232.000000	0.000998  
2231.000000	0.001267  
2230.000000	0.001359  
2229.000000	0.001167  
2228.000000	0.000891  
2227.000000	0.000808  
2226.000000	0.000961  
2225.000000	0.001127  
2224.000000	0.001066  
2223.000000	0.000748  
2222.000000	0.000357  
2221.000000	0.000161  
2220.000000	0.000332  
2219.000000	0.000804  
2218.000000	0.001313  
2217.000000	0.001675  
2216.000000	0.001972  
2215.000000	0.002364  
2214.000000	0.002745  
2213.000000	0.002801  
2212.000000	0.002461  
2211.000000	0.002066  
2210.000000	0.001942  
2209.000000	0.001970  
2208.000000	0.001790  
2207.000000	0.001367  
2206.000000	0.001080  
2205.000000	0.001261  
2204.000000	0.001811  
2203.000000	0.002382  
2202.000000	0.002754  
2201.000000	0.002935  
2200.000000	0.003014  
2199.000000	0.003079  
2198.000000	0.003188  
2197.000000	0.003305  
2196.000000	0.003272  
2195.000000	0.002964  
2194.000000	0.002467  
2193.000000	0.002008  
2192.000000	0.001707  
2191.000000	0.001489  
2190.000000	0.001257  
2189.000000	0.001058  
2188.000000	0.001010  
2187.000000	0.001121  
2186.000000	0.001256  
2185.000000	0.001283  
2184.000000	0.001225  
2183.000000	0.001244  
2182.000000	0.001489  
2181.000000	0.001944  
2180.000000	0.002401  
2179.000000	0.002621  
2178.000000	0.002529  
2177.000000	0.002266  
2176.000000	0.002047  
2175.000000	0.001926  
2174.000000	0.001742  
2173.000000	0.001349  
2172.000000	0.000865  
2171.000000	0.000627  
2170.000000	0.000827  
2169.000000	0.001252  
2168.000000	0.001495  
2167.000000	0.001443  
2166.000000	0.001428  
2165.000000	0.001813  
2164.000000	0.002494  
2163.000000	0.002955  
2162.000000	0.002804  
2161.000000	0.002162  
2160.000000	0.001536  
2159.000000	0.001337  
2158.000000	0.001553  
2157.000000	0.001863  
2156.000000	0.001979  
2155.000000	0.001865  
2154.000000	0.001705  
2153.000000	0.001728  
2152.000000	0.002003  
2151.000000	0.002352  
2150.000000	0.002476  
2149.000000	0.002200  
2148.000000	0.001641  
2147.000000	0.001142  
2146.000000	0.001021  
2145.000000	0.001358  
2144.000000	0.001987  
2143.000000	0.002627  
2142.000000	0.002991  
2141.000000	0.002861  
2140.000000	0.002239  
2139.000000	0.001441  
2138.000000	0.000945  
2137.000000	0.001002  
2136.000000	0.001392  
2135.000000	0.001630  
2134.000000	0.001438  
2133.000000	0.000980  
2132.000000	0.000654  
2131.000000	0.000710  
2130.000000	0.001084  
2129.000000	0.001530  
2128.000000	0.001848  
2127.000000	0.001964  
2126.000000	0.001856  
2125.000000	0.001503  
2124.000000	0.000984  
2123.000000	0.000564  
2122.000000	0.000541  
2121.000000	0.000958  
2120.000000	0.001509  
2119.000000	0.001807  
2118.000000	0.001739  
2117.000000	0.001533  
2116.000000	0.001515  
2115.000000	0.001803  
2114.000000	0.002203  
2113.000000	0.002362  
2112.000000	0.002083  
2111.000000	0.001534  
2110.000000	0.001111  
2109.000000	0.001052  
2108.000000	0.001224  
2107.000000	0.001349  
2106.000000	0.001340  
2105.000000	0.001311  
2104.000000	0.001319  
2103.000000	0.001272  
2102.000000	0.001111  
2101.000000	0.000919  
2100.000000	0.000775  
2099.000000	0.000625  
2098.000000	0.000419  
2097.000000	0.000258  
2096.000000	0.000289  
2095.000000	0.000495  
2094.000000	0.000717  
2093.000000	0.000853  
2092.000000	0.000925  
2091.000000	0.000958  
2090.000000	0.000914  
2089.000000	0.000796  
2088.000000	0.000753  
2087.000000	0.000963  
2086.000000	0.001421  
2085.000000	0.001870  
2084.000000	0.001987  
2083.000000	0.001661  
2082.000000	0.001110  
2081.000000	0.000718  
2080.000000	0.000736  
2079.000000	0.001094  
2078.000000	0.001484  
2077.000000	0.001622  
2076.000000	0.001474  
2075.000000	0.001270  
2074.000000	0.001288  
2073.000000	0.001594  
2072.000000	0.001975  
2071.000000	0.002160  
2070.000000	0.002101  
2069.000000	0.001973  
2068.000000	0.001908  
2067.000000	0.001850  
2066.000000	0.001720  
2065.000000	0.001610  
2064.000000	0.001672  
2063.000000	0.001873  
2062.000000	0.001986  
2061.000000	0.001846  
2060.000000	0.001510  
2059.000000	0.001158  
2058.000000	0.000940  
2057.000000	0.000913  
2056.000000	0.001026  
2055.000000	0.001126  
2054.000000	0.001061  
2053.000000	0.000849  
2052.000000	0.000680  
2051.000000	0.000731  
2050.000000	0.001051  
2049.000000	0.001647  
2048.000000	0.002487  
2047.000000	0.003307  
2046.000000	0.003580  
2045.000000	0.002968  
2044.000000	0.001803  
2043.000000	0.000854  
2042.000000	0.000579  
2041.000000	0.000785  
2040.000000	0.001067  
2039.000000	0.001300  
2038.000000	0.001539  
2037.000000	0.001676  
2036.000000	0.001547  
2035.000000	0.001301  
2034.000000	0.001330  
2033.000000	0.001744  
2032.000000	0.002151  
2031.000000	0.002081  
2030.000000	0.001457  
2029.000000	0.000589  
2028.000000	-0.000145 
2027.000000	-0.000556 
2026.000000	-0.000677 
2025.000000	-0.000688 
2024.000000	-0.000708 
2023.000000	-0.000614 
2022.000000	-0.000168 
2021.000000	0.000591  
2020.000000	0.001239  
2019.000000	0.001373  
2018.000000	0.001035  
2017.000000	0.000615  
2016.000000	0.000371  
2015.000000	0.000267  
2014.000000	0.000247  
2013.000000	0.000394  
2012.000000	0.000694  
2011.000000	0.000858  
2010.000000	0.000549  
2009.000000	-0.000212 
2008.000000	-0.001016 
2007.000000	-0.001433 
2006.000000	-0.001356 
2005.000000	-0.000969 
2004.000000	-0.000499 
2003.000000	-0.000021 
2002.000000	0.000543  
2001.000000	0.001253  
2000.000000	0.001946  
1999.000000	0.002264  
1998.000000	0.001970  
1997.000000	0.001265  
1996.000000	0.000661  
1995.000000	0.000495  
1994.000000	0.000667  
1993.000000	0.000877  
1992.000000	0.000981  
1991.000000	0.001025  
1990.000000	0.001010  
1989.000000	0.000879  
1988.000000	0.000719  
1987.000000	0.000750  
1986.000000	0.001058  
1985.000000	0.001485  
1984.000000	0.001853  
1983.000000	0.002143  
1982.000000	0.002363  
1981.000000	0.002407  
1980.000000	0.002214  
1979.000000	0.001922  
1978.000000	0.001685  
1977.000000	0.001389  
1976.000000	0.000817  
1975.000000	0.000039  
1974.000000	-0.000619 
1973.000000	-0.000930 
1972.000000	-0.000898 
1971.000000	-0.000575 
1970.000000	-0.000002 
1969.000000	0.000625  
1968.000000	0.000997  
1967.000000	0.001014  
1966.000000	0.000912  
1965.000000	0.000943  
1964.000000	0.001114  
1963.000000	0.001314  
1962.000000	0.001499  
1961.000000	0.001627  
1960.000000	0.001591  
1959.000000	0.001364  
1958.000000	0.001105  
1957.000000	0.000946  
1956.000000	0.000802  
1955.000000	0.000520  
1954.000000	0.000171  
1953.000000	0.000032  
1952.000000	0.000271  
1951.000000	0.000774  
1950.000000	0.001281  
1949.000000	0.001575  
1948.000000	0.001572  
1947.000000	0.001338  
1946.000000	0.001066  
1945.000000	0.000947  
1944.000000	0.001009  
1943.000000	0.001114  
1942.000000	0.001135  
1941.000000	0.001068  
1940.000000	0.000971  
1939.000000	0.000889  
1938.000000	0.000886  
1937.000000	0.001034  
1936.000000	0.001321  
1935.000000	0.001635  
1934.000000	0.001884  
1933.000000	0.002081  
1932.000000	0.002251  
1931.000000	0.002326  
1930.000000	0.002205  
1929.000000	0.001910  
1928.000000	0.001591  
1927.000000	0.001369  
1926.000000	0.001248  
1925.000000	0.001173  
1924.000000	0.001130  
1923.000000	0.001154  
1922.000000	0.001262  
1921.000000	0.001441  
1920.000000	0.001647  
1919.000000	0.001815  
1918.000000	0.001875  
1917.000000	0.001832  
1916.000000	0.001757  
1915.000000	0.001665  
1914.000000	0.001483  
1913.000000	0.001175  
1912.000000	0.000861  
1911.000000	0.000743  
1910.000000	0.000896  
1909.000000	0.001195  
1908.000000	0.001464  
1907.000000	0.001630  
1906.000000	0.001678  
1905.000000	0.001571  
1904.000000	0.001329  
1903.000000	0.001107  
1902.000000	0.001092  
1901.000000	0.001299  
1900.000000	0.001549  
1899.000000	0.001666  
1898.000000	0.001630  
1897.000000	0.001526  
1896.000000	0.001433  
1895.000000	0.001390  
1894.000000	0.001416  
1893.000000	0.001500  
1892.000000	0.001595  
1891.000000	0.001657  
1890.000000	0.001695  
1889.000000	0.001734  
1888.000000	0.001758  
1887.000000	0.001720  
1886.000000	0.001610  
1885.000000	0.001481  
1884.000000	0.001397  
1883.000000	0.001362  
1882.000000	0.001343  
1881.000000	0.001323  
1880.000000	0.001310  
1879.000000	0.001307  
1878.000000	0.001301  
1877.000000	0.001304  
1876.000000	0.001366  
1875.000000	0.001518  
1874.000000	0.001710  
1873.000000	0.001842  
1872.000000	0.001857  
1871.000000	0.001769  
1870.000000	0.001617  
1869.000000	0.001443  
1868.000000	0.001321  
1867.000000	0.001333  
1866.000000	0.001469  
1865.000000	0.001624  
1864.000000	0.001700  
1863.000000	0.001704  
1862.000000	0.001702  
1861.000000	0.001714  
1860.000000	0.001706  
1859.000000	0.001672  
1858.000000	0.001673  
1857.000000	0.001736  
1856.000000	0.001787  
1855.000000	0.001724  
1854.000000	0.001534  
1853.000000	0.001331  
1852.000000	0.001255  
1851.000000	0.001333  
1850.000000	0.001442  
1849.000000	0.001419  
1848.000000	0.001231  
1847.000000	0.001027  
1846.000000	0.001004  
1845.000000	0.001202  
1844.000000	0.001442  
1843.000000	0.001536  
1842.000000	0.001494  
1841.000000	0.001408  
1840.000000	0.001338  
1839.000000	0.001314  
1838.000000	0.001347  
1837.000000	0.001403  
1836.000000	0.001429  
1835.000000	0.001420  
1834.000000	0.001405  
1833.000000	0.001375  
1832.000000	0.001284  
1831.000000	0.001145  
1830.000000	0.001098  
1829.000000	0.001250  
1828.000000	0.001518  
1827.000000	0.001736  
1826.000000	0.001802  
1825.000000	0.001717  
1824.000000	0.001587  
1823.000000	0.001537  
1822.000000	0.001602  
1821.000000	0.001685  
1820.000000	0.001645  
1819.000000	0.001454  
1818.000000	0.001249  
1817.000000	0.001187  
1816.000000	0.001275  
1815.000000	0.001388  
1814.000000	0.001427  
1813.000000	0.001384  
1812.000000	0.001318  
1811.000000	0.001302  
1810.000000	0.001390  
1809.000000	0.001559  
1808.000000	0.001716  
1807.000000	0.001784  
1806.000000	0.001772  
1805.000000	0.001745  
1804.000000	0.001741  
1803.000000	0.001749  
1802.000000	0.001758  
1801.000000	0.001787  
1800.000000	0.001845  
1799.000000	0.001909  
1798.000000	0.001948  
1797.000000	0.001948  
1796.000000	0.001917  
1795.000000	0.001876  
1794.000000	0.001846  
1793.000000	0.001818  
1792.000000	0.001745  
1791.000000	0.001619  
1790.000000	0.001504  
1789.000000	0.001462  
1788.000000	0.001479  
1787.000000	0.001507  
1786.000000	0.001516  
1785.000000	0.001500  
1784.000000	0.001457  
1783.000000	0.001382  
1782.000000	0.001309  
1781.000000	0.001308  
1780.000000	0.001407  
1779.000000	0.001557  
1778.000000	0.001686  
1777.000000	0.001740  
1776.000000	0.001694  
1775.000000	0.001563  
1774.000000	0.001418  
1773.000000	0.001348  
1772.000000	0.001359  
1771.000000	0.001349  
1770.000000	0.001265  
1769.000000	0.001160  
1768.000000	0.001099  
1767.000000	0.001095  
1766.000000	0.001128  
1765.000000	0.001191  
1764.000000	0.001289  
1763.000000	0.001422  
1762.000000	0.001552  
1761.000000	0.001645  
1760.000000	0.001695  
1759.000000	0.001706  
1758.000000	0.001665  
1757.000000	0.001577  
1756.000000	0.001482  
1755.000000	0.001423  
1754.000000	0.001413  
1753.000000	0.001448  
1752.000000	0.001511  
1751.000000	0.001550  
1750.000000	0.001517  
1749.000000	0.001425  
1748.000000	0.001333  
1747.000000	0.001286  
1746.000000	0.001284  
1745.000000	0.001287  
1744.000000	0.001243  
1743.000000	0.001143  
1742.000000	0.001026  
1741.000000	0.000939  
1740.000000	0.000890  
1739.000000	0.000844  
1738.000000	0.000761  
1737.000000	0.000642  
1736.000000	0.000539  
1735.000000	0.000538  
1734.000000	0.000658  
1733.000000	0.000813  
1732.000000	0.000940  
1731.000000	0.001063  
1730.000000	0.001218  
1729.000000	0.001411  
1728.000000	0.001604  
1727.000000	0.001753  
1726.000000	0.001840  
1725.000000	0.001866  
1724.000000	0.001838  
1723.000000	0.001788  
1722.000000	0.001754  
1721.000000	0.001754  
1720.000000	0.001771  
1719.000000	0.001768  
1718.000000	0.001694  
1717.000000	0.001553  
1716.000000	0.001430  
1715.000000	0.001390  
1714.000000	0.001433  
1713.000000	0.001521  
1712.000000	0.001613  
1711.000000	0.001674  
1710.000000	0.001693  
1709.000000	0.001682  
1708.000000	0.001670  
1707.000000	0.001700  
1706.000000	0.001816  
1705.000000	0.001999  
1704.000000	0.002174  
1703.000000	0.002298  
1702.000000	0.002371  
1701.000000	0.002350  
1700.000000	0.002199  
1699.000000	0.002041  
1698.000000	0.001968  
1697.000000	0.001960  
1696.000000	0.001972  
1695.000000	0.001971  
1694.000000	0.001959  
1693.000000	0.001942  
1692.000000	0.001920  
1691.000000	0.001911  
1690.000000	0.001924  
1689.000000	0.001946  
1688.000000	0.001952  
1687.000000	0.001948  
1686.000000	0.001981  
1685.000000	0.002076  
1684.000000	0.002165  
1683.000000	0.002167  
1682.000000	0.002124  
1681.000000	0.002105  
1680.000000	0.002096  
1679.000000	0.002053  
1678.000000	0.001949  
1677.000000	0.001785  
1676.000000	0.001627  
1675.000000	0.001594  
1674.000000	0.001732  
1673.000000	0.001947  
1672.000000	0.002123  
1671.000000	0.002220  
1670.000000	0.002251  
1669.000000	0.002235  
1668.000000	0.002179  
1667.000000	0.002112  
1666.000000	0.002073  
1665.000000	0.002086  
1664.000000	0.002142  
1663.000000	0.002213  
1662.000000	0.002260  
1661.000000	0.002278  
1660.000000	0.002277  
1659.000000	0.002272  
1658.000000	0.002272  
1657.000000	0.002256  
1656.000000	0.002187  
1655.000000	0.002076  
1654.000000	0.002000  
1653.000000	0.002034  
1652.000000	0.002155  
1651.000000	0.002277  
1650.000000	0.002390  
1649.000000	0.002515  
1648.000000	0.002620  
1647.000000	0.002557  
1646.000000	0.002295  
1645.000000	0.002007  
1644.000000	0.001823  
1643.000000	0.001747  
1642.000000	0.001769  
1641.000000	0.001875  
1640.000000	0.001996  
1639.000000	0.002055  
1638.000000	0.002052  
1637.000000	0.002057  
1636.000000	0.002097  
1635.000000	0.002111  
1634.000000	0.002085  
1633.000000	0.002059  
1632.000000	0.002043  
1631.000000	0.002020  
1630.000000	0.002000  
1629.000000	0.002022  
1628.000000	0.002102  
1627.000000	0.002210  
1626.000000	0.002318  
1625.000000	0.002423  
1624.000000	0.002517  
1623.000000	0.002573  
1622.000000	0.002607  
1621.000000	0.002660  
1620.000000	0.002728  
1619.000000	0.002787  
1618.000000	0.002849  
1617.000000	0.002979  
1616.000000	0.003192  
1615.000000	0.003391  
1614.000000	0.003507  
1613.000000	0.003566  
1612.000000	0.003626  
1611.000000	0.003731  
1610.000000	0.003883  
1609.000000	0.004031  
1608.000000	0.004096  
1607.000000	0.004047  
1606.000000	0.003936  
1605.000000	0.003833  
1604.000000	0.003748  
1603.000000	0.003658  
1602.000000	0.003568  
1601.000000	0.003491  
1600.000000	0.003404  
1599.000000	0.003265  
1598.000000	0.003092  
1597.000000	0.002963  
1596.000000	0.002935  
1595.000000	0.002988  
1594.000000	0.003064  
1593.000000	0.003136  
1592.000000	0.003213  
1591.000000	0.003299  
1590.000000	0.003365  
1589.000000	0.003363  
1588.000000	0.003276  
1587.000000	0.003142  
1586.000000	0.003027  
1585.000000	0.002973  
1584.000000	0.002959  
1583.000000	0.002945  
1582.000000	0.002934  
1581.000000	0.002947  
1580.000000	0.002986  
1579.000000	0.003022  
1578.000000	0.003025  
1577.000000	0.002949  
1576.000000	0.002797  
1575.000000	0.002687  
1574.000000	0.002718  
1573.000000	0.002871  
1572.000000	0.003058  
1571.000000	0.003166  
1570.000000	0.003117  
1569.000000	0.002965  
1568.000000	0.002831  
1567.000000	0.002759  
1566.000000	0.002722  
1565.000000	0.002671  
1564.000000	0.002581  
1563.000000	0.002466  
1562.000000	0.002376  
1561.000000	0.002375  
1560.000000	0.002472  
1559.000000	0.002530  
1558.000000	0.002509  
1557.000000	0.002548  
1556.000000	0.002690  
1555.000000	0.002872  
1554.000000	0.003047  
1553.000000	0.003156  
1552.000000	0.003123  
1551.000000	0.002923  
1550.000000	0.002668  
1549.000000	0.002522  
1548.000000	0.002543  
1547.000000	0.002657  
1546.000000	0.002779  
1545.000000	0.002846  
1544.000000	0.002820  
1543.000000	0.002739  
1542.000000	0.002730  
1541.000000	0.002878  
1540.000000	0.003079  
1539.000000	0.003192  
1538.000000	0.003266  
1537.000000	0.003360  
1536.000000	0.003431  
1535.000000	0.003440  
1534.000000	0.003405  
1533.000000	0.003365  
1532.000000	0.003322  
1531.000000	0.003274  
1530.000000	0.003232  
1529.000000	0.003205  
1528.000000	0.003192  
1527.000000	0.003217  
1526.000000	0.003336  
1525.000000	0.003541  
1524.000000	0.003730  
1523.000000	0.003837  
1522.000000	0.003929  
1521.000000	0.004075  
1520.000000	0.004196  
1519.000000	0.004220  
1518.000000	0.004190  
1517.000000	0.004188  
1516.000000	0.004249  
1515.000000	0.004371  
1514.000000	0.004579  
1513.000000	0.004857  
1512.000000	0.005108  
1511.000000	0.005243  
1510.000000	0.005300  
1509.000000	0.005426  
1508.000000	0.005760  
1507.000000	0.006267  
1506.000000	0.006742  
1505.000000	0.007069  
1504.000000	0.007225  
1503.000000	0.007220  
1502.000000	0.007156  
1501.000000	0.007138  
1500.000000	0.007182  
1499.000000	0.007281  
1498.000000	0.007543  
1497.000000	0.008034  
1496.000000	0.008532  
1495.000000	0.008810  
1494.000000	0.008963  
1493.000000	0.009148  
1492.000000	0.009336  
1491.000000	0.009428  
1490.000000	0.009494  
1489.000000	0.009685  
1488.000000	0.009974  
1487.000000	0.010276  
1486.000000	0.010640  
1485.000000	0.011130  
1484.000000	0.011706  
1483.000000	0.012340  
1482.000000	0.013115  
1481.000000	0.014076  
1480.000000	0.015118  
1479.000000	0.016205  
1478.000000	0.017531  
1477.000000	0.019262  
1476.000000	0.021301  
1475.000000	0.023680  
1474.000000	0.027136  
1473.000000	0.032560  
1472.000000	0.039464  
1471.000000	0.046418  
1470.000000	0.052873  
1469.000000	0.058886  
1468.000000	0.064286  
1467.000000	0.068872  
1466.000000	0.072748  
1465.000000	0.076041  
1464.000000	0.078569  
1463.000000	0.080298  
1462.000000	0.081575  
1461.000000	0.082698  
1460.000000	0.083761  
1459.000000	0.084832  
1458.000000	0.085836  
1457.000000	0.086019  
1456.000000	0.084779  
1455.000000	0.082711  
1454.000000	0.080398  
1453.000000	0.077822  
1452.000000	0.074978  
1451.000000	0.072139  
1450.000000	0.069509  
1449.000000	0.066908  
1448.000000	0.064093  
1447.000000	0.061119  
1446.000000	0.058103  
1445.000000	0.054932  
1444.000000	0.051465  
1443.000000	0.047794  
1442.000000	0.044181  
1441.000000	0.040864  
1440.000000	0.037927  
1439.000000	0.035215  
1438.000000	0.032356  
1437.000000	0.029155  
1436.000000	0.026132  
1435.000000	0.023878  
1434.000000	0.022191  
1433.000000	0.020586  
1432.000000	0.018896  
1431.000000	0.017225  
1430.000000	0.015671  
1429.000000	0.014287  
1428.000000	0.013195  
1427.000000	0.012448  
1426.000000	0.011881  
1425.000000	0.011290  
1424.000000	0.010675  
1423.000000	0.010169  
1422.000000	0.009771  
1421.000000	0.009360  
1420.000000	0.008911  
1419.000000	0.008528  
1418.000000	0.008267  
1417.000000	0.008101  
1416.000000	0.008028  
1415.000000	0.008029  
1414.000000	0.008015  
1413.000000	0.007908  
1412.000000	0.007735  
1411.000000	0.007572  
1410.000000	0.007433  
1409.000000	0.007312  
1408.000000	0.007258  
1407.000000	0.007289  
1406.000000	0.007314  
1405.000000	0.007247  
1404.000000	0.007173  
1403.000000	0.007216  
1402.000000	0.007333  
1401.000000	0.007397  
1400.000000	0.007382  
1399.000000	0.007358  
1398.000000	0.007369  
1397.000000	0.007418  
1396.000000	0.007555  
1395.000000	0.007827  
1394.000000	0.008194  
1393.000000	0.008624  
1392.000000	0.009178  
1391.000000	0.009920  
1390.000000	0.010884  
1389.000000	0.012211  
1388.000000	0.014175  
1387.000000	0.016865  
1386.000000	0.019951  
1385.000000	0.023084  
1384.000000	0.026274  
1383.000000	0.029754  
1382.000000	0.033713  
1381.000000	0.038142  
1380.000000	0.042683  
1379.000000	0.046546  
1378.000000	0.048836  
1377.000000	0.049100  
1376.000000	0.047375  
1375.000000	0.043973  
1374.000000	0.039593  
1373.000000	0.035255  
1372.000000	0.031686  
1371.000000	0.029048  
1370.000000	0.027276  
1369.000000	0.026289  
1368.000000	0.025869  
1367.000000	0.025583  
1366.000000	0.024960  
1365.000000	0.023721  
1364.000000	0.021846  
1363.000000	0.019620  
1362.000000	0.017529  
1361.000000	0.015940  
1360.000000	0.014885  
1359.000000	0.014195  
1358.000000	0.013704  
1357.000000	0.013334  
1356.000000	0.013088  
1355.000000	0.012972  
1354.000000	0.012944  
1353.000000	0.012924  
1352.000000	0.012864  
1351.000000	0.012769  
1350.000000	0.012660  
1349.000000	0.012543  
1348.000000	0.012403  
1347.000000	0.012229  
1346.000000	0.012034  
1345.000000	0.011880  
1344.000000	0.011830  
1343.000000	0.011881  
1342.000000	0.011953  
1341.000000	0.011956  
1340.000000	0.011845  
1339.000000	0.011625  
1338.000000	0.011325  
1337.000000	0.010988  
1336.000000	0.010667  
1335.000000	0.010396  
1334.000000	0.010158  
1333.000000	0.009927  
1332.000000	0.009710  
1331.000000	0.009533  
1330.000000	0.009383  
1329.000000	0.009219  
1328.000000	0.009035  
1327.000000	0.008866  
1326.000000	0.008735  
1325.000000	0.008629  
1324.000000	0.008536  
1323.000000	0.008466  
1322.000000	0.008433  
1321.000000	0.008431  
1320.000000	0.008442  
1319.000000	0.008450  
1318.000000	0.008443  
1317.000000	0.008431  
1316.000000	0.008449  
1315.000000	0.008525  
1314.000000	0.008650  
1313.000000	0.008788  
1312.000000	0.008916  
1311.000000	0.009039  
1310.000000	0.009167  
1309.000000	0.009305  
1308.000000	0.009454  
1307.000000	0.009604  
1306.000000	0.009720  
1305.000000	0.009768  
1304.000000	0.009738  
1303.000000	0.009653  
1302.000000	0.009554  
1301.000000	0.009482  
1300.000000	0.009458  
1299.000000	0.009456  
1298.000000	0.009421  
1297.000000	0.009325  
1296.000000	0.009195  
1295.000000	0.009063  
1294.000000	0.008918  
1293.000000	0.008733  
1292.000000	0.008522  
1291.000000	0.008337  
1290.000000	0.008213  
1289.000000	0.008140  
1288.000000	0.008088  
1287.000000	0.008043  
1286.000000	0.007999  
1285.000000	0.007950  
1284.000000	0.007896  
1283.000000	0.007842  
1282.000000	0.007793  
1281.000000	0.007747  
1280.000000	0.007705  
1279.000000	0.007671  
1278.000000	0.007652  
1277.000000	0.007653  
1276.000000	0.007675  
1275.000000	0.007704  
1274.000000	0.007720  
1273.000000	0.007724  
1272.000000	0.007729  
1271.000000	0.007735  
1270.000000	0.007716  
1269.000000	0.007663  
1268.000000	0.007603  
1267.000000	0.007555  
1266.000000	0.007493  
1265.000000	0.007375  
1264.000000	0.007216  
1263.000000	0.007084  
1262.000000	0.007027  
1261.000000	0.007032  
1260.000000	0.007046  
1259.000000	0.007030  
1258.000000	0.006978  
1257.000000	0.006904  
1256.000000	0.006823  
1255.000000	0.006744  
1254.000000	0.006686  
1253.000000	0.006677  
1252.000000	0.006720  
1251.000000	0.006760  
1250.000000	0.006720  
1249.000000	0.006584  
1248.000000	0.006430  
1247.000000	0.006343  
1246.000000	0.006342  
1245.000000	0.006380  
1244.000000	0.006412  
1243.000000	0.006414  
1242.000000	0.006376  
1241.000000	0.006303  
1240.000000	0.006219  
1239.000000	0.006146  
1238.000000	0.006082  
1237.000000	0.006019  
1236.000000	0.005972  
1235.000000	0.005957  
1234.000000	0.005952  
1233.000000	0.005919  
1232.000000	0.005847  
1231.000000	0.005759  
1230.000000	0.005665  
1229.000000	0.005558  
1228.000000	0.005460  
1227.000000	0.005418  
1226.000000	0.005450  
1225.000000	0.005517  
1224.000000	0.005568  
1223.000000	0.005586  
1222.000000	0.005575  
1221.000000	0.005528  
1220.000000	0.005442  
1219.000000	0.005352  
1218.000000	0.005315  
1217.000000	0.005366  
1216.000000	0.005481  
1215.000000	0.005600  
1214.000000	0.005662  
1213.000000	0.005645  
1212.000000	0.005580  
1211.000000	0.005534  
1210.000000	0.005556  
1209.000000	0.005618  
1208.000000	0.005637  
1207.000000	0.005559  
1206.000000	0.005428  
1205.000000	0.005334  
1204.000000	0.005313  
1203.000000	0.005317  
1202.000000	0.005284  
1201.000000	0.005218  
1200.000000	0.005157  
1199.000000	0.005124  
1198.000000	0.005112  
1197.000000	0.005124  
1196.000000	0.005170  
1195.000000	0.005242  
1194.000000	0.005327  
1193.000000	0.005414  
1192.000000	0.005492  
1191.000000	0.005520  
1190.000000	0.005467  
1189.000000	0.005359  
1188.000000	0.005266  
1187.000000	0.005239  
1186.000000	0.005279  
1185.000000	0.005363  
1184.000000	0.005465  
1183.000000	0.005547  
1182.000000	0.005583  
1181.000000	0.005587  
1180.000000	0.005602  
1179.000000	0.005638  
1178.000000	0.005682  
1177.000000	0.005747  
1176.000000	0.005883  
1175.000000	0.006103  
1174.000000	0.006351  
1173.000000	0.006567  
1172.000000	0.006743  
1171.000000	0.006899  
1170.000000	0.007022  
1169.000000	0.007083  
1168.000000	0.007076  
1167.000000	0.007033  
1166.000000	0.006997  
1165.000000	0.006991  
1164.000000	0.007001  
1163.000000	0.006990  
1162.000000	0.006958  
1161.000000	0.006967  
1160.000000	0.007075  
1159.000000	0.007243  
1158.000000	0.007370  
1157.000000	0.007402  
1156.000000	0.007368  
1155.000000	0.007296  
1154.000000	0.007167  
1153.000000	0.006980  
1152.000000	0.006802  
1151.000000	0.006699  
1150.000000	0.006678  
1149.000000	0.006714  
1148.000000	0.006791  
1147.000000	0.006885  
1146.000000	0.006939  
1145.000000	0.006905  
1144.000000	0.006798  
1143.000000	0.006661  
1142.000000	0.006514  
1141.000000	0.006353  
1140.000000	0.006187  
1139.000000	0.006043  
1138.000000	0.005957  
1137.000000	0.005970  
1136.000000	0.006083  
1135.000000	0.006203  
1134.000000	0.006200  
1133.000000	0.006049  
1132.000000	0.005865  
1131.000000	0.005768  
1130.000000	0.005753  
1129.000000	0.005755  
1128.000000	0.005765  
1127.000000	0.005799  
1126.000000	0.005825  
1125.000000	0.005789  
1124.000000	0.005704  
1123.000000	0.005630  
1122.000000	0.005588  
1121.000000	0.005557  
1120.000000	0.005547  
1119.000000	0.005584  
1118.000000	0.005645  
1117.000000	0.005684  
1116.000000	0.005712  
1115.000000	0.005780  
1114.000000	0.005883  
1113.000000	0.005951  
1112.000000	0.005947  
1111.000000	0.005899  
1110.000000	0.005824  
1109.000000	0.005700  
1108.000000	0.005546  
1107.000000	0.005453  
1106.000000	0.005497  
1105.000000	0.005640  
1104.000000	0.005757  
1103.000000	0.005756  
1102.000000	0.005655  
1101.000000	0.005556  
1100.000000	0.005556  
1099.000000	0.005660  
1098.000000	0.005790  
1097.000000	0.005880  
1096.000000	0.005949  
1095.000000	0.006038  
1094.000000	0.006125  
1093.000000	0.006149  
1092.000000	0.006111  
1091.000000	0.006078  
1090.000000	0.006075  
1089.000000	0.006043  
1088.000000	0.005935  
1087.000000	0.005798  
1086.000000	0.005723  
1085.000000	0.005752  
1084.000000	0.005842  
1083.000000	0.005910  
1082.000000	0.005893  
1081.000000	0.005801  
1080.000000	0.005736  
1079.000000	0.005801  
1078.000000	0.005997  
1077.000000	0.006215  
1076.000000	0.006369  
1075.000000	0.006489  
1074.000000	0.006644  
1073.000000	0.006833  
1072.000000	0.006966  
1071.000000	0.006969  
1070.000000	0.006847  
1069.000000	0.006677  
1068.000000	0.006537  
1067.000000	0.006452  
1066.000000	0.006406  
1065.000000	0.006383  
1064.000000	0.006397  
1063.000000	0.006457  
1062.000000	0.006516  
1061.000000	0.006501  
1060.000000	0.006403  
1059.000000	0.006298  
1058.000000	0.006276  
1057.000000	0.006371  
1056.000000	0.006564  
1055.000000	0.006810  
1054.000000	0.007015  
1053.000000	0.007033  
1052.000000	0.006782  
1051.000000	0.006373  
1050.000000	0.006068  
1049.000000	0.006037  
1048.000000	0.006213  
1047.000000	0.006403  
1046.000000	0.006485  
1045.000000	0.006474  
1044.000000	0.006456  
1043.000000	0.006503  
1042.000000	0.006633  
1041.000000	0.006797  
1040.000000	0.006915  
1039.000000	0.006934  
1038.000000	0.006869  
1037.000000	0.006789  
1036.000000	0.006760  
1035.000000	0.006816  
1034.000000	0.006958  
1033.000000	0.007149  
1032.000000	0.007319  
1031.000000	0.007394  
1030.000000	0.007360  
1029.000000	0.007270  
1028.000000	0.007187  
1027.000000	0.007143  
1026.000000	0.007141  
1025.000000	0.007169  
1024.000000	0.007193  
1023.000000	0.007164  
1022.000000	0.007073  
1021.000000	0.006968  
1020.000000	0.006907  
1019.000000	0.006895  
1018.000000	0.006910  
1017.000000	0.006961  
1016.000000	0.007073  
1015.000000	0.007215  
1014.000000	0.007308  
1013.000000	0.007301  
1012.000000	0.007210  
1011.000000	0.007088  
1010.000000	0.006989  
1009.000000	0.006967  
1008.000000	0.007048  
1007.000000	0.007188  
1006.000000	0.007286  
1005.000000	0.007290  
1004.000000	0.007243  
1003.000000	0.007222  
1002.000000	0.007255  
1001.000000	0.007303  
1000.000000	0.007299  
999.000000	 0.007179  
998.000000	 0.006940  
997.000000	 0.006677  
996.000000	 0.006544  
995.000000	 0.006613  
994.000000	 0.006799  
993.000000	 0.006942  
992.000000	 0.006954  
991.000000	 0.006875  
990.000000	 0.006801  
989.000000	 0.006811  
988.000000	 0.006915  
987.000000	 0.007059  
986.000000	 0.007163  
985.000000	 0.007201  
984.000000	 0.007220  
983.000000	 0.007278  
982.000000	 0.007364  
981.000000	 0.007433  
980.000000	 0.007473  
979.000000	 0.007518  
978.000000	 0.007606  
977.000000	 0.007737  
976.000000	 0.007886  
975.000000	 0.008014  
974.000000	 0.008089  
973.000000	 0.008120  
972.000000	 0.008160  
971.000000	 0.008258  
970.000000	 0.008406  
969.000000	 0.008558  
968.000000	 0.008682  
967.000000	 0.008759  
966.000000	 0.008761  
965.000000	 0.008659  
964.000000	 0.008483  
963.000000	 0.008315  
962.000000	 0.008230  
961.000000	 0.008238  
960.000000	 0.008291  
959.000000	 0.008324  
958.000000	 0.008300  
957.000000	 0.008239  
956.000000	 0.008196  
955.000000	 0.008192  
954.000000	 0.008197  
953.000000	 0.008173  
952.000000	 0.008147  
951.000000	 0.008167  
950.000000	 0.008227  
949.000000	 0.008264  
948.000000	 0.008238  
947.000000	 0.008196  
946.000000	 0.008211  
945.000000	 0.008315  
944.000000	 0.008480  
943.000000	 0.008652  
942.000000	 0.008783  
941.000000	 0.008828  
940.000000	 0.008757  
939.000000	 0.008568  
938.000000	 0.008313  
937.000000	 0.008079  
936.000000	 0.007926  
935.000000	 0.007834  
934.000000	 0.007749  
933.000000	 0.007674  
932.000000	 0.007682  
931.000000	 0.007793  
930.000000	 0.007902  
929.000000	 0.007881  
928.000000	 0.007749  
927.000000	 0.007653  
926.000000	 0.007700  
925.000000	 0.007842  
924.000000	 0.007962  
923.000000	 0.008021  
922.000000	 0.008062  
921.000000	 0.008112  
920.000000	 0.008127  
919.000000	 0.008054  
918.000000	 0.007916  
917.000000	 0.007805  
916.000000	 0.007805  
915.000000	 0.007906  
914.000000	 0.008008  
913.000000	 0.008014  
912.000000	 0.007901  
911.000000	 0.007731  
910.000000	 0.007601  
909.000000	 0.007585  
908.000000	 0.007686  
907.000000	 0.007813  
906.000000	 0.007843  
905.000000	 0.007743  
904.000000	 0.007623  
903.000000	 0.007632  
902.000000	 0.007797  
901.000000	 0.008013  
900.000000	 0.008175  
899.000000	 0.008273  
898.000000	 0.008360  
897.000000	 0.008461  
896.000000	 0.008552  
895.000000	 0.008603  
894.000000	 0.008611  
893.000000	 0.008590  
892.000000	 0.008569  
891.000000	 0.008580  
890.000000	 0.008648  
889.000000	 0.008770  
888.000000	 0.008904  
887.000000	 0.008978  
886.000000	 0.008934  
885.000000	 0.008775  
884.000000	 0.008567  
883.000000	 0.008384  
882.000000	 0.008263  
881.000000	 0.008203  
880.000000	 0.008198  
879.000000	 0.008233  
878.000000	 0.008269  
877.000000	 0.008263  
876.000000	 0.008208  
875.000000	 0.008130  
874.000000	 0.008030  
873.000000	 0.007868  
872.000000	 0.007616  
871.000000	 0.007341  
870.000000	 0.007202  
869.000000	 0.007326  
868.000000	 0.007678  
867.000000	 0.008049  
866.000000	 0.008222  
865.000000	 0.008157  
864.000000	 0.007988  
863.000000	 0.007846  
862.000000	 0.007753  
861.000000	 0.007685  
860.000000	 0.007672  
859.000000	 0.007754  
858.000000	 0.007881  
857.000000	 0.007952  
856.000000	 0.007963  
855.000000	 0.008035  
854.000000	 0.008270  
853.000000	 0.008628  
852.000000	 0.008991  
851.000000	 0.009278  
850.000000	 0.009478  
849.000000	 0.009574  
848.000000	 0.009516  
847.000000	 0.009284  
846.000000	 0.008938  
845.000000	 0.008602  
844.000000	 0.008373  
843.000000	 0.008269  
842.000000	 0.008232  
841.000000	 0.008198  
840.000000	 0.008156  
839.000000	 0.008149  
838.000000	 0.008216  
837.000000	 0.008326  
836.000000	 0.008363  
835.000000	 0.008204  
834.000000	 0.007846  
833.000000	 0.007451  
832.000000	 0.007235  
831.000000	 0.007265  
830.000000	 0.007411  
829.000000	 0.007514  
828.000000	 0.007583  
827.000000	 0.007756  
826.000000	 0.008098  
825.000000	 0.008485  
824.000000	 0.008733  
823.000000	 0.008768  
822.000000	 0.008664  
821.000000	 0.008578  
820.000000	 0.008663  
819.000000	 0.008984  
818.000000	 0.009468  
817.000000	 0.009954  
816.000000	 0.010294  
815.000000	 0.010422  
814.000000	 0.010347  
813.000000	 0.010140  
812.000000	 0.009935  
811.000000	 0.009885  
810.000000	 0.010070  
809.000000	 0.010443  
808.000000	 0.010870  
807.000000	 0.011213  
806.000000	 0.011390  
805.000000	 0.011379  
804.000000	 0.011194  
803.000000	 0.010871  
802.000000	 0.010470  
801.000000	 0.010069  
800.000000	 0.009722  
799.000000	 0.009423  
798.000000	 0.009132  
797.000000	 0.008842  
796.000000	 0.008593  
795.000000	 0.008398  
794.000000	 0.008212  
793.000000	 0.008033  
792.000000	 0.007959  
791.000000	 0.008082  
790.000000	 0.008325  
789.000000	 0.008485  
788.000000	 0.008459  
787.000000	 0.008367  
786.000000	 0.008410  
785.000000	 0.008651  
784.000000	 0.008987  
783.000000	 0.009302  
782.000000	 0.009593  
781.000000	 0.009935  
780.000000	 0.010358  
779.000000	 0.010789  
778.000000	 0.011129  
777.000000	 0.011379  
776.000000	 0.011659  
775.000000	 0.012063  
774.000000	 0.012525  
773.000000	 0.012877  
772.000000	 0.013041  
771.000000	 0.013120  
770.000000	 0.013261  
769.000000	 0.013484  
768.000000	 0.013692  
767.000000	 0.013772  
766.000000	 0.013649  
765.000000	 0.013290  
764.000000	 0.012750  
763.000000	 0.012222  
762.000000	 0.011944  
761.000000	 0.011987  
760.000000	 0.012181  
759.000000	 0.012292  
758.000000	 0.012259  
757.000000	 0.012220  
756.000000	 0.012319  
755.000000	 0.012546  
754.000000	 0.012774  
753.000000	 0.012906  
752.000000	 0.012932  
751.000000	 0.012893  
750.000000	 0.012843  
749.000000	 0.012856  
748.000000	 0.013042  
747.000000	 0.013506  
746.000000	 0.014327  
745.000000	 0.015544  
744.000000	 0.017089  
743.000000	 0.018700  
742.000000	 0.019946  
741.000000	 0.020469  
740.000000	 0.020251  
739.000000	 0.019620  
738.000000	 0.018962  
737.000000	 0.018446  
736.000000	 0.018009  
735.000000	 0.017561  
734.000000	 0.017136  
733.000000	 0.016863  
732.000000	 0.016820  
731.000000	 0.016962  
730.000000	 0.017200  
729.000000	 0.017546  
728.000000	 0.018133  
727.000000	 0.019074  
726.000000	 0.020302  
725.000000	 0.021589  
724.000000	 0.022695  
723.000000	 0.023475  
722.000000	 0.023791  
721.000000	 0.023428  
720.000000	 0.022224  
719.000000	 0.020325  
718.000000	 0.018199  
717.000000	 0.016344  
716.000000	 0.015011  
715.000000	 0.014114  
714.000000	 0.013351  
713.000000	 0.012462  
712.000000	 0.011443  
711.000000	 0.010512  
710.000000	 0.009893  
709.000000	 0.009646  
708.000000	 0.009657  
707.000000	 0.009783  
706.000000	 0.009972  
705.000000	 0.010273  
704.000000	 0.010715  
703.000000	 0.011196  
702.000000	 0.011537  
701.000000	 0.011669  
700.000000	 0.011695  
699.000000	 0.011699  
698.000000	 0.011539  
697.000000	 0.010983  
696.000000	 0.010085  
695.000000	 0.009269  
694.000000	 0.008912  
693.000000	 0.008894  
692.000000	 0.008696  
691.000000	 0.007976  
690.000000	 0.006942  
689.000000	 0.006091  
688.000000	 0.005639  
687.000000	 0.005336  
686.000000	 0.004899  
685.000000	 0.004408  
684.000000	 0.004157  
683.000000	 0.004268  
682.000000	 0.004587  
681.000000	 0.004874  
680.000000	 0.004964  
679.000000	 0.004820  
678.000000	 0.004547  
677.000000	 0.004323  
676.000000	 0.004260  
675.000000	 0.004243  
674.000000	 0.004097  
673.000000	 0.003926  
672.000000	 0.003964  
671.000000	 0.004079  
670.000000	 0.003793  
669.000000	 0.002757  
668.000000	 0.001174  
667.000000	 0.000081  
666.000000	 0.000476  
665.000000	 0.001732  
664.000000	 0.002812  
663.000000	 0.003572  
662.000000	 0.004061  
661.000000	 0.004156  
660.000000	 0.003914  
659.000000	 0.003761  
658.000000	 0.003966  
657.000000	 0.004174  
656.000000	 0.003851  
655.000000	 0.003008  
654.000000	 0.002235  
653.000000	 0.002072  
652.000000	 0.002468  
651.000000	 0.002938  
650.000000	 0.003138  

