PE IR                   SPECTRUM    ASCII       PEDS        1.60        
  -1
NB4-01~1.ASC
17/04/10
13:12:35.00
17/04/10
13:12:35.00
Admin

650.000000
6









SPECTRUM ONE,CPU32 MAIN 00.02.5000 17-APRIL-2002 13:00:00
MIR TGS
MIR
OPTKBR
68128
0.200000

4.000000
STRONG
RATIO
SPECTRUM
MAGNITUDE

DOUBLE

COMBINED


0


#HDR
-1
-1
#GR
CM-1
A
0.00000011920928955078
0.0
4000.000000
-1.000000
3351
8
0.220326
-0.002884
#DATA
4000.000000	0.001253  
3999.000000	0.001220  
3998.000000	0.001249  
3997.000000	0.001360  
3996.000000	0.001451  
3995.000000	0.001607  
3994.000000	0.001697  
3993.000000	0.001689  
3992.000000	0.001598  
3991.000000	0.001476  
3990.000000	0.001368  
3989.000000	0.001276  
3988.000000	0.001174  
3987.000000	0.001052  
3986.000000	0.000959  
3985.000000	0.000961  
3984.000000	0.001059  
3983.000000	0.001160  
3982.000000	0.001157  
3981.000000	0.001040  
3980.000000	0.000918  
3979.000000	0.000905  
3978.000000	0.001023  
3977.000000	0.001200  
3976.000000	0.001359  
3975.000000	0.001472  
3974.000000	0.001539  
3973.000000	0.001539  
3972.000000	0.001455  
3971.000000	0.001305  
3970.000000	0.001149  
3969.000000	0.001040  
3968.000000	0.000977  
3967.000000	0.000936  
3966.000000	0.000922  
3965.000000	0.000976  
3964.000000	0.001123  
3963.000000	0.001319  
3962.000000	0.001476  
3961.000000	0.001535  
3960.000000	0.001505  
3959.000000	0.001431  
3958.000000	0.001341  
3957.000000	0.001240  
3956.000000	0.001141  
3955.000000	0.001079  
3954.000000	0.001085  
3953.000000	0.001149  
3952.000000	0.001228  
3951.000000	0.001281  
3950.000000	0.001305  
3949.000000	0.001339  
3948.000000	0.001415  
3947.000000	0.001513  
3946.000000	0.001570  
3945.000000	0.001528  
3944.000000	0.001388  
3943.000000	0.001212  
3942.000000	0.001072  
3941.000000	0.001002  
3940.000000	0.001007  
3939.000000	0.001085  
3938.000000	0.001226  
3937.000000	0.001386  
3936.000000	0.001511  
3935.000000	0.001565  
3934.000000	0.001562  
3933.000000	0.001546  
3932.000000	0.001544  
3931.000000	0.001554  
3930.000000	0.001564  
3929.000000	0.001579  
3928.000000	0.001616  
3927.000000	0.001682  
3926.000000	0.001755  
3925.000000	0.001797  
3924.000000	0.001795  
3923.000000	0.001776  
3922.000000	0.001775  
3921.000000	0.001800  
3920.000000	0.001816  
3919.000000	0.001778  
3918.000000	0.001677  
3917.000000	0.001556  
3916.000000	0.001475  
3915.000000	0.001459  
3914.000000	0.001491  
3913.000000	0.001522  
3912.000000	0.001512  
3911.000000	0.001458  
3910.000000	0.001391  
3909.000000	0.001347  
3908.000000	0.001329  
3907.000000	0.001316  
3906.000000	0.001296  
3905.000000	0.001286  
3904.000000	0.001309  
3903.000000	0.001350  
3902.000000	0.001373  
3901.000000	0.001380  
3900.000000	0.001425  
3899.000000	0.001538  
3898.000000	0.001673  
3897.000000	0.001745  
3896.000000	0.001710  
3895.000000	0.001594  
3894.000000	0.001470  
3893.000000	0.001403  
3892.000000	0.001397  
3891.000000	0.001396  
3890.000000	0.001352  
3889.000000	0.001277  
3888.000000	0.001216  
3887.000000	0.001201  
3886.000000	0.001220  
3885.000000	0.001224  
3884.000000	0.001176  
3883.000000	0.001090  
3882.000000	0.001022  
3881.000000	0.001015  
3880.000000	0.001064  
3879.000000	0.001128  
3878.000000	0.001199  
3877.000000	0.001304  
3876.000000	0.001467  
3875.000000	0.001674  
3874.000000	0.001877  
3873.000000	0.002028  
3872.000000	0.002106  
3871.000000	0.002113  
3870.000000	0.002065  
3869.000000	0.001982  
3868.000000	0.001896  
3867.000000	0.001832  
3866.000000	0.001789  
3865.000000	0.001741  
3864.000000	0.001682  
3863.000000	0.001641  
3862.000000	0.001635  
3861.000000	0.001632  
3860.000000	0.001585  
3859.000000	0.001495  
3858.000000	0.001408  
3857.000000	0.001370  
3856.000000	0.001366  
3855.000000	0.001331  
3854.000000	0.001270  
3853.000000	0.001266  
3852.000000	0.001333  
3851.000000	0.001432  
3850.000000	0.001551  
3849.000000	0.001704  
3848.000000	0.001898  
3847.000000	0.002120  
3846.000000	0.002345  
3845.000000	0.002560  
3844.000000	0.002758  
3843.000000	0.002918  
3842.000000	0.003000  
3841.000000	0.002971  
3840.000000	0.002826  
3839.000000	0.002582  
3838.000000	0.002281  
3837.000000	0.002002  
3836.000000	0.001841  
3835.000000	0.001849  
3834.000000	0.001984  
3833.000000	0.002128  
3832.000000	0.002177  
3831.000000	0.002122  
3830.000000	0.002034  
3829.000000	0.001967  
3828.000000	0.001902  
3827.000000	0.001797  
3826.000000	0.001677  
3825.000000	0.001656  
3824.000000	0.001855  
3823.000000	0.002286  
3822.000000	0.002757  
3821.000000	0.002967  
3820.000000	0.002777  
3819.000000	0.002320  
3818.000000	0.001852  
3817.000000	0.001579  
3816.000000	0.001550  
3815.000000	0.001643  
3814.000000	0.001721  
3813.000000	0.001735  
3812.000000	0.001695  
3811.000000	0.001613  
3810.000000	0.001485  
3809.000000	0.001323  
3808.000000	0.001190  
3807.000000	0.001180  
3806.000000	0.001334  
3805.000000	0.001616  
3804.000000	0.001936  
3803.000000	0.002158  
3802.000000	0.002157  
3801.000000	0.001935  
3800.000000	0.001637  
3799.000000	0.001426  
3798.000000	0.001382  
3797.000000	0.001505  
3796.000000	0.001722  
3795.000000	0.001928  
3794.000000	0.002049  
3793.000000	0.002064  
3792.000000	0.001992  
3791.000000	0.001867  
3790.000000	0.001725  
3789.000000	0.001592  
3788.000000	0.001498  
3787.000000	0.001468  
3786.000000	0.001496  
3785.000000	0.001532  
3784.000000	0.001519  
3783.000000	0.001443  
3782.000000	0.001339  
3781.000000	0.001264  
3780.000000	0.001259  
3779.000000	0.001327  
3778.000000	0.001431  
3777.000000	0.001521  
3776.000000	0.001565  
3775.000000	0.001556  
3774.000000	0.001517  
3773.000000	0.001486  
3772.000000	0.001499  
3771.000000	0.001576  
3770.000000	0.001706  
3769.000000	0.001832  
3768.000000	0.001870  
3767.000000	0.001771  
3766.000000	0.001566  
3765.000000	0.001358  
3764.000000	0.001246  
3763.000000	0.001255  
3762.000000	0.001344  
3761.000000	0.001465  
3760.000000	0.001605  
3759.000000	0.001773  
3758.000000	0.001936  
3757.000000	0.002012  
3756.000000	0.001951  
3755.000000	0.001828  
3754.000000	0.001866  
3753.000000	0.002280  
3752.000000	0.002990  
3751.000000	0.003519  
3750.000000	0.003467  
3749.000000	0.002967  
3748.000000	0.002433  
3747.000000	0.002157  
3746.000000	0.002189  
3745.000000	0.002356  
3744.000000	0.002427  
3743.000000	0.002353  
3742.000000	0.002240  
3741.000000	0.002190  
3740.000000	0.002244  
3739.000000	0.002379  
3738.000000	0.002507  
3737.000000	0.002512  
3736.000000	0.002356  
3735.000000	0.002146  
3734.000000	0.002037  
3733.000000	0.002063  
3732.000000	0.002121  
3731.000000	0.002104  
3730.000000	0.001996  
3729.000000	0.001848  
3728.000000	0.001721  
3727.000000	0.001651  
3726.000000	0.001642  
3725.000000	0.001678  
3724.000000	0.001727  
3723.000000	0.001742  
3722.000000	0.001676  
3721.000000	0.001533  
3720.000000	0.001377  
3719.000000	0.001290  
3718.000000	0.001298  
3717.000000	0.001348  
3716.000000	0.001341  
3715.000000	0.001211  
3714.000000	0.000980  
3713.000000	0.000791  
3712.000000	0.000814  
3711.000000	0.001048  
3710.000000	0.001307  
3709.000000	0.001444  
3708.000000	0.001495  
3707.000000	0.001578  
3706.000000	0.001736  
3705.000000	0.001880  
3704.000000	0.001871  
3703.000000	0.001660  
3702.000000	0.001361  
3701.000000	0.001147  
3700.000000	0.001085  
3699.000000	0.001125  
3698.000000	0.001187  
3697.000000	0.001230  
3696.000000	0.001261  
3695.000000	0.001304  
3694.000000	0.001366  
3693.000000	0.001431  
3692.000000	0.001463  
3691.000000	0.001457  
3690.000000	0.001453  
3689.000000	0.001490  
3688.000000	0.001544  
3687.000000	0.001564  
3686.000000	0.001528  
3685.000000	0.001469  
3684.000000	0.001450  
3683.000000	0.001493  
3682.000000	0.001531  
3681.000000	0.001457  
3680.000000	0.001232  
3679.000000	0.000951  
3678.000000	0.000808  
3677.000000	0.000963  
3676.000000	0.001358  
3675.000000	0.001696  
3674.000000	0.001786  
3673.000000	0.001733  
3672.000000	0.001744  
3671.000000	0.001912  
3670.000000	0.002127  
3669.000000	0.002196  
3668.000000	0.002065  
3667.000000	0.001836  
3666.000000	0.001619  
3665.000000	0.001444  
3664.000000	0.001274  
3663.000000	0.001065  
3662.000000	0.000819  
3661.000000	0.000579  
3660.000000	0.000398  
3659.000000	0.000328  
3658.000000	0.000416  
3657.000000	0.000682  
3656.000000	0.001061  
3655.000000	0.001433  
3654.000000	0.001700  
3653.000000	0.001807  
3652.000000	0.001728  
3651.000000	0.001502  
3650.000000	0.001278  
3649.000000	0.001205  
3648.000000	0.001281  
3647.000000	0.001384  
3646.000000	0.001425  
3645.000000	0.001416  
3644.000000	0.001441  
3643.000000	0.001582  
3642.000000	0.001844  
3641.000000	0.002123  
3640.000000	0.002276  
3639.000000	0.002229  
3638.000000	0.002028  
3637.000000	0.001795  
3636.000000	0.001637  
3635.000000	0.001589  
3634.000000	0.001598  
3633.000000	0.001585  
3632.000000	0.001515  
3631.000000	0.001438  
3630.000000	0.001456  
3629.000000	0.001592  
3628.000000	0.001713  
3627.000000	0.001720  
3626.000000	0.001668  
3625.000000	0.001657  
3624.000000	0.001720  
3623.000000	0.001801  
3622.000000	0.001797  
3621.000000	0.001651  
3620.000000	0.001410  
3619.000000	0.001187  
3618.000000	0.001053  
3617.000000	0.001008  
3616.000000	0.001029  
3615.000000	0.001115  
3614.000000	0.001266  
3613.000000	0.001451  
3612.000000	0.001614  
3611.000000	0.001724  
3610.000000	0.001786  
3609.000000	0.001812  
3608.000000	0.001784  
3607.000000	0.001674  
3606.000000	0.001479  
3605.000000	0.001234  
3604.000000	0.001005  
3603.000000	0.000881  
3602.000000	0.000949  
3601.000000	0.001240  
3600.000000	0.001667  
3599.000000	0.002051  
3598.000000	0.002231  
3597.000000	0.002158  
3596.000000	0.001927  
3595.000000	0.001707  
3594.000000	0.001599  
3593.000000	0.001558  
3592.000000	0.001474  
3591.000000	0.001310  
3590.000000	0.001152  
3589.000000	0.001147  
3588.000000	0.001336  
3587.000000	0.001581  
3586.000000	0.001716  
3585.000000	0.001704  
3584.000000	0.001584  
3583.000000	0.001392  
3582.000000	0.001181  
3581.000000	0.001054  
3580.000000	0.001104  
3579.000000	0.001295  
3578.000000	0.001462  
3577.000000	0.001466  
3576.000000	0.001330  
3575.000000	0.001181  
3574.000000	0.001083  
3573.000000	0.000967  
3572.000000	0.000748  
3571.000000	0.000466  
3570.000000	0.000289  
3569.000000	0.000372  
3568.000000	0.000688  
3567.000000	0.001027  
3566.000000	0.001225  
3565.000000	0.001306  
3564.000000	0.001366  
3563.000000	0.001434  
3562.000000	0.001488  
3561.000000	0.001526  
3560.000000	0.001594  
3559.000000	0.001717  
3558.000000	0.001838  
3557.000000	0.001853  
3556.000000	0.001700  
3555.000000	0.001425  
3554.000000	0.001149  
3553.000000	0.000979  
3552.000000	0.000938  
3551.000000	0.000970  
3550.000000	0.001005  
3549.000000	0.000999  
3548.000000	0.000938  
3547.000000	0.000852  
3546.000000	0.000811  
3545.000000	0.000865  
3544.000000	0.000998  
3543.000000	0.001154  
3542.000000	0.001306  
3541.000000	0.001468  
3540.000000	0.001633  
3539.000000	0.001723  
3538.000000	0.001639  
3537.000000	0.001376  
3536.000000	0.001063  
3535.000000	0.000863  
3534.000000	0.000844  
3533.000000	0.000963  
3532.000000	0.001140  
3531.000000	0.001320  
3530.000000	0.001463  
3529.000000	0.001524  
3528.000000	0.001474  
3527.000000	0.001336  
3526.000000	0.001184  
3525.000000	0.001079  
3524.000000	0.001032  
3523.000000	0.001025  
3522.000000	0.001047  
3521.000000	0.001089  
3520.000000	0.001130  
3519.000000	0.001143  
3518.000000	0.001131  
3517.000000	0.001135  
3516.000000	0.001200  
3515.000000	0.001328  
3514.000000	0.001470  
3513.000000	0.001559  
3512.000000	0.001556  
3511.000000	0.001483  
3510.000000	0.001404  
3509.000000	0.001359  
3508.000000	0.001336  
3507.000000	0.001309  
3506.000000	0.001290  
3505.000000	0.001322  
3504.000000	0.001424  
3503.000000	0.001563  
3502.000000	0.001685  
3501.000000	0.001767  
3500.000000	0.001814  
3499.000000	0.001836  
3498.000000	0.001839  
3497.000000	0.001819  
3496.000000	0.001770  
3495.000000	0.001696  
3494.000000	0.001598  
3493.000000	0.001462  
3492.000000	0.001260  
3491.000000	0.001000  
3490.000000	0.000764  
3489.000000	0.000660  
3488.000000	0.000727  
3487.000000	0.000915  
3486.000000	0.001155  
3485.000000	0.001406  
3484.000000	0.001606  
3483.000000	0.001656  
3482.000000	0.001509  
3481.000000	0.001260  
3480.000000	0.001081  
3479.000000	0.001065  
3478.000000	0.001160  
3477.000000	0.001246  
3476.000000	0.001251  
3475.000000	0.001189  
3474.000000	0.001122  
3473.000000	0.001104  
3472.000000	0.001136  
3471.000000	0.001171  
3470.000000	0.001161  
3469.000000	0.001103  
3468.000000	0.001038  
3467.000000	0.001010  
3466.000000	0.001034  
3465.000000	0.001090  
3464.000000	0.001131  
3463.000000	0.001110  
3462.000000	0.001030  
3461.000000	0.000954  
3460.000000	0.000948  
3459.000000	0.001010  
3458.000000	0.001084  
3457.000000	0.001131  
3456.000000	0.001156  
3455.000000	0.001184  
3454.000000	0.001224  
3453.000000	0.001280  
3452.000000	0.001345  
3451.000000	0.001393  
3450.000000	0.001386  
3449.000000	0.001329  
3448.000000	0.001275  
3447.000000	0.001269  
3446.000000	0.001300  
3445.000000	0.001329  
3444.000000	0.001333  
3443.000000	0.001311  
3442.000000	0.001273  
3441.000000	0.001249  
3440.000000	0.001290  
3439.000000	0.001423  
3438.000000	0.001597  
3437.000000	0.001687  
3436.000000	0.001592  
3435.000000	0.001338  
3434.000000	0.001088  
3433.000000	0.001021  
3432.000000	0.001175  
3431.000000	0.001411  
3430.000000	0.001530  
3429.000000	0.001443  
3428.000000	0.001205  
3427.000000	0.000934  
3426.000000	0.000727  
3425.000000	0.000639  
3424.000000	0.000688  
3423.000000	0.000841  
3422.000000	0.001027  
3421.000000	0.001179  
3420.000000	0.001269  
3419.000000	0.001291  
3418.000000	0.001248  
3417.000000	0.001172  
3416.000000	0.001119  
3415.000000	0.001126  
3414.000000	0.001180  
3413.000000	0.001250  
3412.000000	0.001333  
3411.000000	0.001434  
3410.000000	0.001514  
3409.000000	0.001503  
3408.000000	0.001364  
3407.000000	0.001141  
3406.000000	0.000936  
3405.000000	0.000836  
3404.000000	0.000858  
3403.000000	0.000958  
3402.000000	0.001089  
3401.000000	0.001232  
3400.000000	0.001377  
3399.000000	0.001478  
3398.000000	0.001473  
3397.000000	0.001372  
3396.000000	0.001284  
3395.000000	0.001322  
3394.000000	0.001495  
3393.000000	0.001699  
3392.000000	0.001812  
3391.000000	0.001796  
3390.000000	0.001701  
3389.000000	0.001607  
3388.000000	0.001552  
3387.000000	0.001494  
3386.000000	0.001375  
3385.000000	0.001218  
3384.000000	0.001143  
3383.000000	0.001251  
3382.000000	0.001502  
3381.000000	0.001754  
3380.000000	0.001893  
3379.000000	0.001892  
3378.000000	0.001754  
3377.000000	0.001482  
3376.000000	0.001128  
3375.000000	0.000827  
3374.000000	0.000715  
3373.000000	0.000807  
3372.000000	0.000995  
3371.000000	0.001171  
3370.000000	0.001318  
3369.000000	0.001481  
3368.000000	0.001669  
3367.000000	0.001829  
3366.000000	0.001907  
3365.000000	0.001901  
3364.000000	0.001847  
3363.000000	0.001769  
3362.000000	0.001673  
3361.000000	0.001584  
3360.000000	0.001537  
3359.000000	0.001524  
3358.000000	0.001493  
3357.000000	0.001416  
3356.000000	0.001341  
3355.000000	0.001329  
3354.000000	0.001365  
3353.000000	0.001364  
3352.000000	0.001271  
3351.000000	0.001117  
3350.000000	0.000979  
3349.000000	0.000912  
3348.000000	0.000942  
3347.000000	0.001077  
3346.000000	0.001288  
3345.000000	0.001497  
3344.000000	0.001622  
3343.000000	0.001642  
3342.000000	0.001602  
3341.000000	0.001552  
3340.000000	0.001490  
3339.000000	0.001388  
3338.000000	0.001259  
3337.000000	0.001177  
3336.000000	0.001205  
3335.000000	0.001313  
3334.000000	0.001405  
3333.000000	0.001421  
3332.000000	0.001392  
3331.000000	0.001381  
3330.000000	0.001405  
3329.000000	0.001436  
3328.000000	0.001464  
3327.000000	0.001495  
3326.000000	0.001501  
3325.000000	0.001436  
3324.000000	0.001306  
3323.000000	0.001189  
3322.000000	0.001146  
3321.000000	0.001159  
3320.000000	0.001178  
3319.000000	0.001216  
3318.000000	0.001326  
3317.000000	0.001499  
3316.000000	0.001625  
3315.000000	0.001599  
3314.000000	0.001435  
3313.000000	0.001257  
3312.000000	0.001188  
3311.000000	0.001261  
3310.000000	0.001415  
3309.000000	0.001540  
3308.000000	0.001542  
3307.000000	0.001402  
3306.000000	0.001208  
3305.000000	0.001109  
3304.000000	0.001189  
3303.000000	0.001392  
3302.000000	0.001589  
3301.000000	0.001707  
3300.000000	0.001766  
3299.000000	0.001779  
3298.000000	0.001711  
3297.000000	0.001548  
3296.000000	0.001374  
3295.000000	0.001303  
3294.000000	0.001366  
3293.000000	0.001501  
3292.000000	0.001641  
3291.000000	0.001756  
3290.000000	0.001808  
3289.000000	0.001750  
3288.000000	0.001587  
3287.000000	0.001392  
3286.000000	0.001231  
3285.000000	0.001100  
3284.000000	0.000973  
3283.000000	0.000883  
3282.000000	0.000898  
3281.000000	0.001033  
3280.000000	0.001216  
3279.000000	0.001356  
3278.000000	0.001416  
3277.000000	0.001427  
3276.000000	0.001454  
3275.000000	0.001556  
3274.000000	0.001747  
3273.000000	0.001976  
3272.000000	0.002140  
3271.000000	0.002142  
3270.000000	0.001968  
3269.000000	0.001684  
3268.000000	0.001382  
3267.000000	0.001124  
3266.000000	0.000946  
3265.000000	0.000902  
3264.000000	0.001043  
3263.000000	0.001342  
3262.000000	0.001671  
3261.000000	0.001896  
3260.000000	0.001985  
3259.000000	0.002001  
3258.000000	0.001992  
3257.000000	0.001937  
3256.000000	0.001800  
3255.000000	0.001620  
3254.000000	0.001501  
3253.000000	0.001533  
3252.000000	0.001702  
3251.000000	0.001892  
3250.000000	0.001986  
3249.000000	0.001967  
3248.000000	0.001932  
3247.000000	0.001965  
3246.000000	0.002030  
3245.000000	0.002033  
3244.000000	0.001946  
3243.000000	0.001842  
3242.000000	0.001787  
3241.000000	0.001761  
3240.000000	0.001707  
3239.000000	0.001610  
3238.000000	0.001487  
3237.000000	0.001357  
3236.000000	0.001235  
3235.000000	0.001147  
3234.000000	0.001110  
3233.000000	0.001127  
3232.000000	0.001203  
3231.000000	0.001336  
3230.000000	0.001473  
3229.000000	0.001528  
3228.000000	0.001478  
3227.000000	0.001408  
3226.000000	0.001429  
3225.000000	0.001568  
3224.000000	0.001766  
3223.000000	0.001950  
3222.000000	0.002058  
3221.000000	0.002039  
3220.000000	0.001894  
3219.000000	0.001709  
3218.000000	0.001592  
3217.000000	0.001573  
3216.000000	0.001609  
3215.000000	0.001660  
3214.000000	0.001727  
3213.000000	0.001803  
3212.000000	0.001872  
3211.000000	0.001937  
3210.000000	0.002022  
3209.000000	0.002120  
3208.000000	0.002197  
3207.000000	0.002245  
3206.000000	0.002301  
3205.000000	0.002387  
3204.000000	0.002472  
3203.000000	0.002525  
3202.000000	0.002536  
3201.000000	0.002492  
3200.000000	0.002354  
3199.000000	0.002109  
3198.000000	0.001810  
3197.000000	0.001535  
3196.000000	0.001316  
3195.000000	0.001146  
3194.000000	0.001032  
3193.000000	0.001008  
3192.000000	0.001095  
3191.000000	0.001290  
3190.000000	0.001568  
3189.000000	0.001886  
3188.000000	0.002178  
3187.000000	0.002384  
3186.000000	0.002493  
3185.000000	0.002541  
3184.000000	0.002545  
3183.000000	0.002477  
3182.000000	0.002321  
3181.000000	0.002125  
3180.000000	0.001973  
3179.000000	0.001897  
3178.000000	0.001857  
3177.000000	0.001822  
3176.000000	0.001827  
3175.000000	0.001921  
3174.000000	0.002072  
3173.000000	0.002179  
3172.000000	0.002174  
3171.000000	0.002101  
3170.000000	0.002057  
3169.000000	0.002095  
3168.000000	0.002189  
3167.000000	0.002283  
3166.000000	0.002335  
3165.000000	0.002334  
3164.000000	0.002301  
3163.000000	0.002269  
3162.000000	0.002251  
3161.000000	0.002234  
3160.000000	0.002208  
3159.000000	0.002202  
3158.000000	0.002254  
3157.000000	0.002366  
3156.000000	0.002494  
3155.000000	0.002594  
3154.000000	0.002659  
3153.000000	0.002706  
3152.000000	0.002727  
3151.000000	0.002669  
3150.000000	0.002483  
3149.000000	0.002198  
3148.000000	0.001930  
3147.000000	0.001791  
3146.000000	0.001782  
3145.000000	0.001814  
3144.000000	0.001823  
3143.000000	0.001824  
3142.000000	0.001836  
3141.000000	0.001830  
3140.000000	0.001791  
3139.000000	0.001785  
3138.000000	0.001892  
3137.000000	0.002087  
3136.000000	0.002240  
3135.000000	0.002255  
3134.000000	0.002157  
3133.000000	0.002056  
3132.000000	0.002050  
3131.000000	0.002165  
3130.000000	0.002346  
3129.000000	0.002481  
3128.000000	0.002479  
3127.000000	0.002340  
3126.000000	0.002152  
3125.000000	0.002019  
3124.000000	0.002003  
3123.000000	0.002120  
3122.000000	0.002324  
3121.000000	0.002499  
3120.000000	0.002524  
3119.000000	0.002371  
3118.000000	0.002128  
3117.000000	0.001922  
3116.000000	0.001836  
3115.000000	0.001890  
3114.000000	0.002053  
3113.000000	0.002248  
3112.000000	0.002394  
3111.000000	0.002467  
3110.000000	0.002499  
3109.000000	0.002512  
3108.000000	0.002479  
3107.000000	0.002371  
3106.000000	0.002218  
3105.000000	0.002094  
3104.000000	0.002065  
3103.000000	0.002154  
3102.000000	0.002325  
3101.000000	0.002486  
3100.000000	0.002531  
3099.000000	0.002422  
3098.000000	0.002226  
3097.000000	0.002054  
3096.000000	0.001984  
3095.000000	0.002026  
3094.000000	0.002144  
3093.000000	0.002275  
3092.000000	0.002371  
3091.000000	0.002430  
3090.000000	0.002491  
3089.000000	0.002573  
3088.000000	0.002640  
3087.000000	0.002667  
3086.000000	0.002672  
3085.000000	0.002679  
3084.000000	0.002656  
3083.000000	0.002568  
3082.000000	0.002458  
3081.000000	0.002446  
3080.000000	0.002605  
3079.000000	0.002889  
3078.000000	0.003181  
3077.000000	0.003381  
3076.000000	0.003450  
3075.000000	0.003391  
3074.000000	0.003233  
3073.000000	0.003035  
3072.000000	0.002887  
3071.000000	0.002872  
3070.000000	0.003008  
3069.000000	0.003207  
3068.000000	0.003337  
3067.000000	0.003338  
3066.000000	0.003282  
3065.000000	0.003300  
3064.000000	0.003451  
3063.000000	0.003670  
3062.000000	0.003832  
3061.000000	0.003851  
3060.000000	0.003739  
3059.000000	0.003587  
3058.000000	0.003490  
3057.000000	0.003476  
3056.000000	0.003513  
3055.000000	0.003579  
3054.000000	0.003678  
3053.000000	0.003790  
3052.000000	0.003841  
3051.000000	0.003785  
3050.000000	0.003689  
3049.000000	0.003688  
3048.000000	0.003843  
3047.000000	0.004078  
3046.000000	0.004258  
3045.000000	0.004308  
3044.000000	0.004238  
3043.000000	0.004111  
3042.000000	0.004009  
3041.000000	0.003997  
3040.000000	0.004095  
3039.000000	0.004258  
3038.000000	0.004407  
3037.000000	0.004482  
3036.000000	0.004471  
3035.000000	0.004405  
3034.000000	0.004324  
3033.000000	0.004265  
3032.000000	0.004264  
3031.000000	0.004361  
3030.000000	0.004574  
3029.000000	0.004861  
3028.000000	0.005126  
3027.000000	0.005286  
3026.000000	0.005336  
3025.000000	0.005360  
3024.000000	0.005457  
3023.000000	0.005661  
3022.000000	0.005905  
3021.000000	0.006057  
3020.000000	0.006037  
3019.000000	0.005905  
3018.000000	0.005824  
3017.000000	0.005911  
3016.000000	0.006132  
3015.000000	0.006368  
3014.000000	0.006544  
3013.000000	0.006673  
3012.000000	0.006789  
3011.000000	0.006906  
3010.000000	0.007042  
3009.000000	0.007223  
3008.000000	0.007453  
3007.000000	0.007693  
3006.000000	0.007887  
3005.000000	0.007990  
3004.000000	0.007972  
3003.000000	0.007851  
3002.000000	0.007727  
3001.000000	0.007742  
3000.000000	0.007968  
2999.000000	0.008338  
2998.000000	0.008706  
2997.000000	0.008978  
2996.000000	0.009151  
2995.000000	0.009291  
2994.000000	0.009479  
2993.000000	0.009787  
2992.000000	0.010248  
2991.000000	0.010827  
2990.000000	0.011447  
2989.000000	0.012045  
2988.000000	0.012627  
2987.000000	0.013258  
2986.000000	0.014011  
2985.000000	0.014901  
2984.000000	0.015894  
2983.000000	0.016958  
2982.000000	0.018116  
2981.000000	0.019432  
2980.000000	0.020950  
2979.000000	0.022667  
2978.000000	0.024583  
2977.000000	0.026742  
2976.000000	0.029217  
2975.000000	0.032056  
2974.000000	0.035275  
2973.000000	0.038862  
2972.000000	0.042788  
2971.000000	0.047007  
2970.000000	0.051505  
2969.000000	0.056342  
2968.000000	0.061600  
2967.000000	0.067253  
2966.000000	0.073112  
2965.000000	0.078930  
2964.000000	0.084545  
2963.000000	0.089923  
2962.000000	0.095076  
2961.000000	0.099999  
2960.000000	0.104654  
2959.000000	0.108951  
2958.000000	0.112721  
2957.000000	0.115752  
2956.000000	0.117893  
2955.000000	0.119104  
2954.000000	0.119404  
2953.000000	0.118808  
2952.000000	0.117366  
2951.000000	0.115231  
2950.000000	0.112667  
2949.000000	0.109978  
2948.000000	0.107427  
2947.000000	0.105200  
2946.000000	0.103436  
2945.000000	0.102286  
2944.000000	0.101933  
2943.000000	0.102533  
2942.000000	0.104149  
2941.000000	0.106726  
2940.000000	0.110158  
2939.000000	0.114365  
2938.000000	0.119328  
2937.000000	0.125034  
2936.000000	0.131393  
2935.000000	0.138214  
2934.000000	0.145288  
2933.000000	0.152531  
2932.000000	0.160035  
2931.000000	0.167917  
2930.000000	0.176127  
2929.000000	0.184404  
2928.000000	0.192399  
2927.000000	0.199804  
2926.000000	0.206363  
2925.000000	0.211866  
2924.000000	0.216143  
2923.000000	0.219023  
2922.000000	0.220326  
2921.000000	0.219967  
2920.000000	0.218089  
2919.000000	0.215002  
2918.000000	0.210989  
2917.000000	0.206236  
2916.000000	0.200930  
2915.000000	0.195320  
2914.000000	0.189645  
2913.000000	0.184043  
2912.000000	0.178601  
2911.000000	0.173427  
2910.000000	0.168602  
2909.000000	0.164084  
2908.000000	0.159689  
2907.000000	0.155233  
2906.000000	0.150666  
2905.000000	0.146096  
2904.000000	0.141671  
2903.000000	0.137475  
2902.000000	0.133502  
2901.000000	0.129702  
2900.000000	0.126008  
2899.000000	0.122344  
2898.000000	0.118654  
2897.000000	0.114942  
2896.000000	0.111276  
2895.000000	0.107730  
2894.000000	0.104319  
2893.000000	0.100989  
2892.000000	0.097665  
2891.000000	0.094308  
2890.000000	0.090959  
2889.000000	0.087742  
2888.000000	0.084811  
2887.000000	0.082272  
2886.000000	0.080148  
2885.000000	0.078422  
2884.000000	0.077108  
2883.000000	0.076269  
2882.000000	0.075973  
2881.000000	0.076252  
2880.000000	0.077142  
2879.000000	0.078717  
2878.000000	0.081058  
2877.000000	0.084121  
2876.000000	0.087666  
2875.000000	0.091316  
2874.000000	0.094687  
2873.000000	0.097483  
2872.000000	0.099502  
2871.000000	0.100670  
2870.000000	0.101105  
2869.000000	0.101124  
2868.000000	0.101100  
2867.000000	0.101297  
2866.000000	0.101855  
2865.000000	0.102928  
2864.000000	0.104732  
2863.000000	0.107390  
2862.000000	0.110795  
2861.000000	0.114692  
2860.000000	0.118907  
2859.000000	0.123400  
2858.000000	0.128091  
2857.000000	0.132694  
2856.000000	0.136751  
2855.000000	0.139760  
2854.000000	0.141273  
2853.000000	0.140960  
2852.000000	0.138714  
2851.000000	0.134706  
2850.000000	0.129318  
2849.000000	0.122980  
2848.000000	0.116067  
2847.000000	0.108868  
2846.000000	0.101601  
2845.000000	0.094428  
2844.000000	0.087434  
2843.000000	0.080639  
2842.000000	0.074040  
2841.000000	0.067671  
2840.000000	0.061626  
2839.000000	0.056024  
2838.000000	0.050959  
2837.000000	0.046452  
2836.000000	0.042442  
2835.000000	0.038815  
2834.000000	0.035481  
2833.000000	0.032418  
2832.000000	0.029673  
2831.000000	0.027306  
2830.000000	0.025340  
2829.000000	0.023732  
2828.000000	0.022379  
2827.000000	0.021170  
2826.000000	0.020031  
2825.000000	0.018946  
2824.000000	0.017928  
2823.000000	0.016999  
2822.000000	0.016184  
2821.000000	0.015501  
2820.000000	0.014933  
2819.000000	0.014422  
2818.000000	0.013912  
2817.000000	0.013386  
2816.000000	0.012863  
2815.000000	0.012360  
2814.000000	0.011878  
2813.000000	0.011420  
2812.000000	0.011005  
2811.000000	0.010663  
2810.000000	0.010407  
2809.000000	0.010228  
2808.000000	0.010096  
2807.000000	0.009972  
2806.000000	0.009819  
2805.000000	0.009615  
2804.000000	0.009353  
2803.000000	0.009038  
2802.000000	0.008706  
2801.000000	0.008413  
2800.000000	0.008207  
2799.000000	0.008087  
2798.000000	0.008012  
2797.000000	0.007948  
2796.000000	0.007893  
2795.000000	0.007846  
2794.000000	0.007764  
2793.000000	0.007568  
2792.000000	0.007219  
2791.000000	0.006782  
2790.000000	0.006399  
2789.000000	0.006184  
2788.000000	0.006147  
2787.000000	0.006193  
2786.000000	0.006211  
2785.000000	0.006137  
2784.000000	0.005983  
2783.000000	0.005808  
2782.000000	0.005676  
2781.000000	0.005625  
2780.000000	0.005646  
2779.000000	0.005687  
2778.000000	0.005678  
2777.000000	0.005558  
2776.000000	0.005318  
2775.000000	0.005019  
2774.000000	0.004774  
2773.000000	0.004673  
2772.000000	0.004715  
2771.000000	0.004806  
2770.000000	0.004839  
2769.000000	0.004764  
2768.000000	0.004603  
2767.000000	0.004421  
2766.000000	0.004287  
2765.000000	0.004252  
2764.000000	0.004321  
2763.000000	0.004447  
2762.000000	0.004560  
2761.000000	0.004618  
2760.000000	0.004624  
2759.000000	0.004605  
2758.000000	0.004575  
2757.000000	0.004537  
2756.000000	0.004496  
2755.000000	0.004459  
2754.000000	0.004423  
2753.000000	0.004369  
2752.000000	0.004288  
2751.000000	0.004196  
2750.000000	0.004134  
2749.000000	0.004123  
2748.000000	0.004137  
2747.000000	0.004134  
2746.000000	0.004103  
2745.000000	0.004082  
2744.000000	0.004114  
2743.000000	0.004206  
2742.000000	0.004327  
2741.000000	0.004446  
2740.000000	0.004547  
2739.000000	0.004622  
2738.000000	0.004667  
2737.000000	0.004700  
2736.000000	0.004759  
2735.000000	0.004879  
2734.000000	0.005045  
2733.000000	0.005193  
2732.000000	0.005248  
2731.000000	0.005185  
2730.000000	0.005055  
2729.000000	0.004961  
2728.000000	0.004974  
2727.000000	0.005064  
2726.000000	0.005121  
2725.000000	0.005063  
2724.000000	0.004919  
2723.000000	0.004786  
2722.000000	0.004723  
2721.000000	0.004712  
2720.000000	0.004716  
2719.000000	0.004736  
2718.000000	0.004790  
2717.000000	0.004864  
2716.000000	0.004916  
2715.000000	0.004909  
2714.000000	0.004819  
2713.000000	0.004634  
2712.000000	0.004382  
2711.000000	0.004143  
2710.000000	0.004003  
2709.000000	0.003974  
2708.000000	0.003990  
2707.000000	0.003993  
2706.000000	0.003978  
2705.000000	0.003957  
2704.000000	0.003908  
2703.000000	0.003800  
2702.000000	0.003648  
2701.000000	0.003510  
2700.000000	0.003430  
2699.000000	0.003419  
2698.000000	0.003473  
2697.000000	0.003587  
2696.000000	0.003738  
2695.000000	0.003887  
2694.000000	0.003993  
2693.000000	0.004029  
2692.000000	0.003985  
2691.000000	0.003893  
2690.000000	0.003838  
2689.000000	0.003912  
2688.000000	0.004114  
2687.000000	0.004326  
2686.000000	0.004418  
2685.000000	0.004371  
2684.000000	0.004285  
2683.000000	0.004265  
2682.000000	0.004325  
2681.000000	0.004407  
2680.000000	0.004458  
2679.000000	0.004472  
2678.000000	0.004480  
2677.000000	0.004515  
2676.000000	0.004599  
2675.000000	0.004724  
2674.000000	0.004842  
2673.000000	0.004898  
2672.000000	0.004868  
2671.000000	0.004781  
2670.000000	0.004688  
2669.000000	0.004643  
2668.000000	0.004674  
2667.000000	0.004772  
2666.000000	0.004891  
2665.000000	0.004973  
2664.000000	0.004987  
2663.000000	0.004928  
2662.000000	0.004799  
2661.000000	0.004607  
2660.000000	0.004388  
2659.000000	0.004205  
2658.000000	0.004086  
2657.000000	0.004002  
2656.000000	0.003918  
2655.000000	0.003852  
2654.000000	0.003837  
2653.000000	0.003856  
2652.000000	0.003858  
2651.000000	0.003842  
2650.000000	0.003869  
2649.000000	0.003972  
2648.000000	0.004092  
2647.000000	0.004148  
2646.000000	0.004122  
2645.000000	0.004053  
2644.000000	0.003982  
2643.000000	0.003939  
2642.000000	0.003956  
2641.000000	0.004039  
2640.000000	0.004125  
2639.000000	0.004113  
2638.000000	0.003957  
2637.000000	0.003705  
2636.000000	0.003468  
2635.000000	0.003353  
2634.000000	0.003425  
2633.000000	0.003665  
2632.000000	0.003953  
2631.000000	0.004131  
2630.000000	0.004119  
2629.000000	0.003967  
2628.000000	0.003802  
2627.000000	0.003720  
2626.000000	0.003734  
2625.000000	0.003779  
2624.000000	0.003769  
2623.000000	0.003675  
2622.000000	0.003550  
2621.000000	0.003468  
2620.000000	0.003441  
2619.000000	0.003415  
2618.000000	0.003360  
2617.000000	0.003317  
2616.000000	0.003343  
2615.000000	0.003443  
2614.000000	0.003578  
2613.000000	0.003710  
2612.000000	0.003816  
2611.000000	0.003871  
2610.000000	0.003871  
2609.000000	0.003853  
2608.000000	0.003862  
2607.000000	0.003900  
2606.000000	0.003915  
2605.000000	0.003863  
2604.000000	0.003744  
2603.000000	0.003594  
2602.000000	0.003463  
2601.000000	0.003407  
2600.000000	0.003452  
2599.000000	0.003554  
2598.000000	0.003602  
2597.000000	0.003512  
2596.000000	0.003315  
2595.000000	0.003125  
2594.000000	0.003013  
2593.000000	0.002943  
2592.000000	0.002840  
2591.000000	0.002697  
2590.000000	0.002575  
2589.000000	0.002518  
2588.000000	0.002499  
2587.000000	0.002488  
2586.000000	0.002515  
2585.000000	0.002632  
2584.000000	0.002826  
2583.000000	0.003000  
2582.000000	0.003066  
2581.000000	0.003013  
2580.000000	0.002896  
2579.000000	0.002777  
2578.000000	0.002698  
2577.000000	0.002680  
2576.000000	0.002699  
2575.000000	0.002697  
2574.000000	0.002634  
2573.000000	0.002549  
2572.000000	0.002524  
2571.000000	0.002596  
2570.000000	0.002692  
2569.000000	0.002702  
2568.000000	0.002583  
2567.000000	0.002409  
2566.000000	0.002289  
2565.000000	0.002267  
2564.000000	0.002301  
2563.000000	0.002328  
2562.000000	0.002324  
2561.000000	0.002301  
2560.000000	0.002263  
2559.000000	0.002201  
2558.000000	0.002148  
2557.000000	0.002185  
2556.000000	0.002348  
2555.000000	0.002540  
2554.000000	0.002589  
2553.000000	0.002442  
2552.000000	0.002256  
2551.000000	0.002263  
2550.000000	0.002528  
2549.000000	0.002890  
2548.000000	0.003122  
2547.000000	0.003117  
2546.000000	0.002904  
2545.000000	0.002565  
2544.000000	0.002216  
2543.000000	0.001997  
2542.000000	0.001983  
2541.000000	0.002102  
2540.000000	0.002203  
2539.000000	0.002228  
2538.000000	0.002252  
2537.000000	0.002334  
2536.000000	0.002394  
2535.000000	0.002316  
2534.000000	0.002111  
2533.000000	0.001911  
2532.000000	0.001818  
2531.000000	0.001800  
2530.000000	0.001756  
2529.000000	0.001638  
2528.000000	0.001495  
2527.000000	0.001433  
2526.000000	0.001528  
2525.000000	0.001765  
2524.000000	0.002052  
2523.000000	0.002301  
2522.000000	0.002471  
2521.000000	0.002537  
2520.000000	0.002469  
2519.000000	0.002289  
2518.000000	0.002111  
2517.000000	0.002071  
2516.000000	0.002195  
2515.000000	0.002389  
2514.000000	0.002540  
2513.000000	0.002608  
2512.000000	0.002609  
2511.000000	0.002557  
2510.000000	0.002449  
2509.000000	0.002289  
2508.000000	0.002114  
2507.000000	0.001990  
2506.000000	0.001977  
2505.000000	0.002066  
2504.000000	0.002166  
2503.000000	0.002186  
2502.000000	0.002140  
2501.000000	0.002138  
2500.000000	0.002254  
2499.000000	0.002419  
2498.000000	0.002458  
2497.000000	0.002240  
2496.000000	0.001793  
2495.000000	0.001307  
2494.000000	0.001020  
2493.000000	0.001059  
2492.000000	0.001360  
2491.000000	0.001745  
2490.000000	0.002068  
2489.000000	0.002285  
2488.000000	0.002408  
2487.000000	0.002424  
2486.000000	0.002304  
2485.000000	0.002054  
2484.000000	0.001753  
2483.000000	0.001537  
2482.000000	0.001530  
2481.000000	0.001777  
2480.000000	0.002198  
2479.000000	0.002614  
2478.000000	0.002846  
2477.000000	0.002818  
2476.000000	0.002596  
2475.000000	0.002330  
2474.000000	0.002142  
2473.000000	0.002051  
2472.000000	0.001999  
2471.000000	0.001926  
2470.000000	0.001807  
2469.000000	0.001655  
2468.000000	0.001529  
2467.000000	0.001531  
2466.000000	0.001711  
2465.000000	0.001971  
2464.000000	0.002113  
2463.000000	0.002044  
2462.000000	0.001867  
2461.000000	0.001746  
2460.000000	0.001731  
2459.000000	0.001797  
2458.000000	0.001952  
2457.000000	0.002195  
2456.000000	0.002399  
2455.000000	0.002387  
2454.000000	0.002147  
2453.000000	0.001853  
2452.000000	0.001644  
2451.000000	0.001479  
2450.000000	0.001290  
2449.000000	0.001167  
2448.000000	0.001266  
2447.000000	0.001593  
2446.000000	0.001953  
2445.000000	0.002133  
2444.000000	0.002085  
2443.000000	0.001935  
2442.000000	0.001864  
2441.000000	0.001957  
2440.000000	0.002129  
2439.000000	0.002213  
2438.000000	0.002128  
2437.000000	0.001944  
2436.000000	0.001754  
2435.000000	0.001563  
2434.000000	0.001344  
2433.000000	0.001158  
2432.000000	0.001114  
2431.000000	0.001230  
2430.000000	0.001394  
2429.000000	0.001499  
2428.000000	0.001550  
2427.000000	0.001625  
2426.000000	0.001757  
2425.000000	0.001898  
2424.000000	0.001965  
2423.000000	0.001909  
2422.000000	0.001765  
2421.000000	0.001631  
2420.000000	0.001596  
2419.000000	0.001664  
2418.000000	0.001768  
2417.000000	0.001850  
2416.000000	0.001904  
2415.000000	0.001963  
2414.000000	0.002054  
2413.000000	0.002176  
2412.000000	0.002295  
2411.000000	0.002361  
2410.000000	0.002355  
2409.000000	0.002322  
2408.000000	0.002313  
2407.000000	0.002314  
2406.000000	0.002242  
2405.000000	0.002052  
2404.000000	0.001808  
2403.000000	0.001627  
2402.000000	0.001558  
2401.000000	0.001550  
2400.000000	0.001539  
2399.000000	0.001539  
2398.000000	0.001610  
2397.000000	0.001764  
2396.000000	0.001930  
2395.000000	0.002023  
2394.000000	0.002041  
2393.000000	0.002065  
2392.000000	0.002163  
2391.000000	0.002306  
2390.000000	0.002383  
2389.000000	0.002315  
2388.000000	0.002148  
2387.000000	0.002048  
2386.000000	0.002165  
2385.000000	0.002489  
2384.000000	0.002832  
2383.000000	0.002977  
2382.000000	0.002859  
2381.000000	0.002594  
2380.000000	0.002349  
2379.000000	0.002184  
2378.000000	0.002022  
2377.000000	0.001747  
2376.000000	0.001331  
2375.000000	0.000902  
2374.000000	0.000695  
2373.000000	0.000882  
2372.000000	0.001418  
2371.000000	0.002067  
2370.000000	0.002600  
2369.000000	0.002908  
2368.000000	0.002961  
2367.000000	0.002756  
2366.000000	0.002367  
2365.000000	0.001910  
2364.000000	0.001415  
2363.000000	0.000886  
2362.000000	0.000477  
2361.000000	0.000485  
2360.000000	0.001080  
2359.000000	0.001976  
2358.000000	0.002633  
2357.000000	0.002714  
2356.000000	0.002288  
2355.000000	0.001740  
2354.000000	0.001399  
2353.000000	0.001405  
2352.000000	0.001636  
2351.000000	0.001844  
2350.000000	0.001921  
2349.000000	0.001844  
2348.000000	0.001682  
2347.000000	0.001514  
2346.000000	0.001527  
2345.000000	0.001920  
2344.000000	0.002527  
2343.000000	0.002913  
2342.000000	0.002733  
2341.000000	0.002212  
2340.000000	0.001844  
2339.000000	0.001752  
2338.000000	0.001640  
2337.000000	0.001297  
2336.000000	0.000887  
2335.000000	0.000660  
2334.000000	0.000641  
2333.000000	0.000756  
2332.000000	0.001014  
2331.000000	0.001425  
2330.000000	0.001916  
2329.000000	0.002305  
2328.000000	0.002577  
2327.000000	0.002760  
2326.000000	0.002865  
2325.000000	0.002870  
2324.000000	0.002723  
2323.000000	0.002433  
2322.000000	0.002011  
2321.000000	0.001638  
2320.000000	0.001556  
2319.000000	0.001863  
2318.000000	0.002334  
2317.000000	0.002572  
2316.000000	0.002366  
2315.000000	0.001852  
2314.000000	0.001418  
2313.000000	0.001351  
2312.000000	0.001630  
2311.000000	0.001994  
2310.000000	0.002256  
2309.000000	0.002442  
2308.000000	0.002651  
2307.000000	0.002848  
2306.000000	0.002888  
2305.000000	0.002722  
2304.000000	0.002460  
2303.000000	0.002250  
2302.000000	0.002128  
2301.000000	0.002029  
2300.000000	0.001926  
2299.000000	0.001880  
2298.000000	0.001988  
2297.000000	0.002247  
2296.000000	0.002519  
2295.000000	0.002625  
2294.000000	0.002519  
2293.000000	0.002335  
2292.000000	0.002239  
2291.000000	0.002260  
2290.000000	0.002293  
2289.000000	0.002243  
2288.000000	0.002091  
2287.000000	0.001843  
2286.000000	0.001516  
2285.000000	0.001206  
2284.000000	0.001058  
2283.000000	0.001106  
2282.000000	0.001203  
2281.000000	0.001208  
2280.000000	0.001176  
2279.000000	0.001267  
2278.000000	0.001498  
2277.000000	0.001714  
2276.000000	0.001832  
2275.000000	0.001989  
2274.000000	0.002372  
2273.000000	0.002936  
2272.000000	0.003413  
2271.000000	0.003587  
2270.000000	0.003486  
2269.000000	0.003267  
2268.000000	0.002985  
2267.000000	0.002573  
2266.000000	0.002047  
2265.000000	0.001616  
2264.000000	0.001492  
2263.000000	0.001655  
2262.000000	0.001902  
2261.000000	0.002080  
2260.000000	0.002183  
2259.000000	0.002233  
2258.000000	0.002219  
2257.000000	0.002186  
2256.000000	0.002234  
2255.000000	0.002362  
2254.000000	0.002417  
2253.000000	0.002297  
2252.000000	0.002131  
2251.000000	0.002109  
2250.000000	0.002203  
2249.000000	0.002174  
2248.000000	0.001872  
2247.000000	0.001400  
2246.000000	0.000987  
2245.000000	0.000775  
2244.000000	0.000768  
2243.000000	0.000901  
2242.000000	0.001123  
2241.000000	0.001421  
2240.000000	0.001794  
2239.000000	0.002165  
2238.000000	0.002372  
2237.000000	0.002306  
2236.000000	0.002050  
2235.000000	0.001810  
2234.000000	0.001712  
2233.000000	0.001717  
2232.000000	0.001725  
2231.000000	0.001687  
2230.000000	0.001612  
2229.000000	0.001524  
2228.000000	0.001470  
2227.000000	0.001481  
2226.000000	0.001521  
2225.000000	0.001477  
2224.000000	0.001256  
2223.000000	0.000869  
2222.000000	0.000461  
2221.000000	0.000256  
2220.000000	0.000428  
2219.000000	0.000920  
2218.000000	0.001442  
2217.000000	0.001731  
2216.000000	0.001805  
2215.000000	0.001883  
2214.000000	0.002052  
2213.000000	0.002181  
2212.000000	0.002176  
2211.000000	0.002144  
2210.000000	0.002191  
2209.000000	0.002196  
2208.000000	0.001964  
2207.000000	0.001571  
2206.000000	0.001372  
2205.000000	0.001625  
2204.000000	0.002206  
2203.000000	0.002750  
2202.000000	0.003009  
2201.000000	0.003020  
2200.000000	0.002999  
2199.000000	0.003133  
2198.000000	0.003434  
2197.000000	0.003739  
2196.000000	0.003827  
2195.000000	0.003591  
2194.000000	0.003116  
2193.000000	0.002600  
2192.000000	0.002181  
2191.000000	0.001832  
2190.000000	0.001472  
2189.000000	0.001137  
2188.000000	0.000977  
2187.000000	0.001072  
2186.000000	0.001302  
2185.000000	0.001481  
2184.000000	0.001558  
2183.000000	0.001639  
2182.000000	0.001836  
2181.000000	0.002177  
2180.000000	0.002625  
2179.000000	0.003063  
2178.000000	0.003273  
2177.000000	0.003071  
2176.000000	0.002531  
2175.000000	0.001930  
2174.000000	0.001443  
2173.000000	0.001041  
2172.000000	0.000729  
2171.000000	0.000697  
2170.000000	0.001059  
2169.000000	0.001561  
2168.000000	0.001782  
2167.000000	0.001647  
2166.000000	0.001550  
2165.000000	0.001872  
2164.000000	0.002517  
2163.000000	0.003055  
2162.000000	0.003222  
2161.000000	0.003122  
2160.000000	0.002970  
2159.000000	0.002791  
2158.000000	0.002495  
2157.000000	0.002140  
2156.000000	0.001927  
2155.000000	0.001953  
2154.000000	0.002102  
2153.000000	0.002208  
2152.000000	0.002225  
2151.000000	0.002181  
2150.000000	0.002028  
2149.000000	0.001694  
2148.000000	0.001268  
2147.000000	0.001013  
2146.000000	0.001117  
2145.000000	0.001515  
2144.000000	0.001983  
2143.000000	0.002326  
2142.000000	0.002409  
2141.000000	0.002136  
2140.000000	0.001544  
2139.000000	0.000915  
2138.000000	0.000631  
2137.000000	0.000849  
2136.000000	0.001332  
2135.000000	0.001669  
2134.000000	0.001646  
2133.000000	0.001401  
2132.000000	0.001249  
2131.000000	0.001372  
2130.000000	0.001697  
2129.000000	0.002020  
2128.000000	0.002229  
2127.000000	0.002340  
2126.000000	0.002364  
2125.000000	0.002236  
2124.000000	0.001947  
2123.000000	0.001662  
2122.000000	0.001610  
2121.000000	0.001839  
2120.000000	0.002149  
2119.000000	0.002296  
2118.000000	0.002212  
2117.000000	0.002037  
2116.000000	0.001973  
2115.000000	0.002094  
2114.000000	0.002264  
2113.000000	0.002238  
2112.000000	0.001912  
2111.000000	0.001476  
2110.000000	0.001255  
2109.000000	0.001377  
2108.000000	0.001667  
2107.000000	0.001878  
2106.000000	0.001927  
2105.000000	0.001859  
2104.000000	0.001689  
2103.000000	0.001388  
2102.000000	0.001007  
2101.000000	0.000681  
2100.000000	0.000481  
2099.000000	0.000350  
2098.000000	0.000214  
2097.000000	0.000104  
2096.000000	0.000109  
2095.000000	0.000247  
2094.000000	0.000439  
2093.000000	0.000609  
2092.000000	0.000750  
2091.000000	0.000886  
2090.000000	0.001019  
2089.000000	0.001152  
2088.000000	0.001336  
2087.000000	0.001636  
2086.000000	0.002011  
2085.000000	0.002281  
2084.000000	0.002270  
2083.000000	0.001973  
2082.000000	0.001573  
2081.000000	0.001304  
2080.000000	0.001311  
2079.000000	0.001586  
2078.000000	0.001963  
2077.000000	0.002198  
2076.000000	0.002159  
2075.000000	0.001976  
2074.000000	0.001917  
2073.000000	0.002073  
2072.000000	0.002240  
2071.000000	0.002185  
2070.000000	0.001933  
2069.000000	0.001707  
2068.000000	0.001637  
2067.000000	0.001662  
2066.000000	0.001690  
2065.000000	0.001730  
2064.000000	0.001839  
2063.000000	0.002032  
2062.000000	0.002274  
2061.000000	0.002486  
2060.000000	0.002542  
2059.000000	0.002354  
2058.000000	0.002014  
2057.000000	0.001756  
2056.000000	0.001708  
2055.000000	0.001736  
2054.000000	0.001625  
2053.000000	0.001364  
2052.000000	0.001135  
2051.000000	0.001096  
2050.000000	0.001280  
2049.000000	0.001702  
2048.000000	0.002353  
2047.000000	0.003013  
2046.000000	0.003252  
2045.000000	0.002832  
2044.000000	0.002060  
2043.000000	0.001539  
2042.000000	0.001556  
2041.000000	0.001858  
2040.000000	0.002078  
2039.000000	0.002171  
2038.000000	0.002291  
2037.000000	0.002400  
2036.000000	0.002286  
2035.000000	0.001947  
2034.000000	0.001716  
2033.000000	0.001848  
2032.000000	0.002142  
2031.000000	0.002134  
2030.000000	0.001592  
2029.000000	0.000710  
2028.000000	-0.000103 
2027.000000	-0.000537 
2026.000000	-0.000517 
2025.000000	-0.000195 
2024.000000	0.000175  
2023.000000	0.000463  
2022.000000	0.000739  
2021.000000	0.001097  
2020.000000	0.001452  
2019.000000	0.001612  
2018.000000	0.001514  
2017.000000	0.001254  
2016.000000	0.000911  
2015.000000	0.000506  
2014.000000	0.000193  
2013.000000	0.000252  
2012.000000	0.000696  
2011.000000	0.001037  
2010.000000	0.000705  
2009.000000	-0.000280 
2008.000000	-0.001238 
2007.000000	-0.001521 
2006.000000	-0.001108 
2005.000000	-0.000427 
2004.000000	0.000203  
2003.000000	0.000790  
2002.000000	0.001447  
2001.000000	0.002137  
2000.000000	0.002639  
1999.000000	0.002685  
1998.000000	0.002170  
1997.000000	0.001325  
1996.000000	0.000635  
1995.000000	0.000470  
1994.000000	0.000808  
1993.000000	0.001333  
1992.000000	0.001770  
1991.000000	0.002050  
1990.000000	0.002179  
1989.000000	0.002150  
1988.000000	0.002022  
1987.000000	0.001923  
1986.000000	0.001901  
1985.000000	0.001895  
1984.000000	0.001908  
1983.000000	0.002048  
1982.000000	0.002296  
1981.000000	0.002412  
1980.000000	0.002233  
1979.000000	0.001932  
1978.000000	0.001764  
1977.000000	0.001645  
1976.000000	0.001303  
1975.000000	0.000772  
1974.000000	0.000400  
1973.000000	0.000354  
1972.000000	0.000439  
1971.000000	0.000446  
1970.000000	0.000423  
1969.000000	0.000484  
1968.000000	0.000591  
1967.000000	0.000664  
1966.000000	0.000757  
1965.000000	0.000946  
1964.000000	0.001163  
1963.000000	0.001302  
1962.000000	0.001369  
1961.000000	0.001425  
1960.000000	0.001472  
1959.000000	0.001508  
1958.000000	0.001591  
1957.000000	0.001710  
1956.000000	0.001691  
1955.000000	0.001380  
1954.000000	0.000916  
1953.000000	0.000644  
1952.000000	0.000761  
1951.000000	0.001146  
1950.000000	0.001539  
1949.000000	0.001767  
1948.000000	0.001786  
1947.000000	0.001646  
1946.000000	0.001465  
1945.000000	0.001379  
1944.000000	0.001442  
1943.000000	0.001572  
1942.000000	0.001640  
1941.000000	0.001576  
1940.000000	0.001380  
1939.000000	0.001121  
1938.000000	0.000961  
1937.000000	0.001091  
1936.000000	0.001530  
1935.000000	0.002059  
1934.000000	0.002427  
1933.000000	0.002576  
1932.000000	0.002620  
1931.000000	0.002643  
1930.000000	0.002609  
1929.000000	0.002467  
1928.000000	0.002233  
1927.000000	0.001946  
1926.000000	0.001613  
1925.000000	0.001265  
1924.000000	0.001009  
1923.000000	0.000970  
1922.000000	0.001159  
1921.000000	0.001473  
1920.000000	0.001802  
1919.000000	0.002074  
1918.000000	0.002257  
1917.000000	0.002363  
1916.000000	0.002426  
1915.000000	0.002413  
1914.000000	0.002239  
1913.000000	0.001890  
1912.000000	0.001520  
1911.000000	0.001326  
1910.000000	0.001350  
1909.000000	0.001452  
1908.000000	0.001499  
1907.000000	0.001501  
1906.000000	0.001522  
1905.000000	0.001565  
1904.000000	0.001585  
1903.000000	0.001582  
1902.000000	0.001612  
1901.000000	0.001712  
1900.000000	0.001853  
1899.000000	0.001965  
1898.000000	0.001991  
1897.000000	0.001930  
1896.000000	0.001839  
1895.000000	0.001810  
1894.000000	0.001900  
1893.000000	0.002098  
1892.000000	0.002333  
1891.000000	0.002525  
1890.000000	0.002602  
1889.000000	0.002544  
1888.000000	0.002396  
1887.000000	0.002220  
1886.000000	0.002056  
1885.000000	0.001941  
1884.000000	0.001896  
1883.000000	0.001890  
1882.000000	0.001858  
1881.000000	0.001780  
1880.000000	0.001701  
1879.000000	0.001654  
1878.000000	0.001613  
1877.000000	0.001566  
1876.000000	0.001582  
1875.000000	0.001736  
1874.000000	0.001986  
1873.000000	0.002195  
1872.000000	0.002287  
1871.000000	0.002298  
1870.000000	0.002259  
1869.000000	0.002131  
1868.000000	0.001927  
1867.000000	0.001779  
1866.000000	0.001775  
1865.000000	0.001857  
1864.000000	0.001927  
1863.000000	0.001966  
1862.000000	0.002004  
1861.000000	0.002041  
1860.000000	0.002049  
1859.000000	0.002039  
1858.000000	0.002058  
1857.000000	0.002121  
1856.000000	0.002175  
1855.000000	0.002151  
1854.000000	0.002019  
1853.000000	0.001830  
1852.000000	0.001698  
1851.000000	0.001703  
1850.000000	0.001797  
1849.000000	0.001841  
1848.000000	0.001757  
1847.000000	0.001629  
1846.000000	0.001606  
1845.000000	0.001735  
1844.000000	0.001910  
1843.000000	0.002003  
1842.000000	0.001995  
1841.000000	0.001922  
1840.000000	0.001819  
1839.000000	0.001747  
1838.000000	0.001761  
1837.000000	0.001838  
1836.000000	0.001896  
1835.000000	0.001904  
1834.000000	0.001879  
1833.000000	0.001812  
1832.000000	0.001659  
1831.000000	0.001472  
1830.000000	0.001424  
1829.000000	0.001609  
1828.000000	0.001893  
1827.000000	0.002081  
1826.000000	0.002091  
1825.000000	0.001989  
1824.000000	0.001920  
1823.000000	0.001979  
1822.000000	0.002112  
1821.000000	0.002155  
1820.000000	0.001983  
1819.000000	0.001672  
1818.000000	0.001456  
1817.000000	0.001488  
1816.000000	0.001683  
1815.000000	0.001851  
1814.000000	0.001903  
1813.000000	0.001875  
1812.000000	0.001844  
1811.000000	0.001863  
1810.000000	0.001941  
1809.000000	0.002042  
1808.000000	0.002112  
1807.000000	0.002133  
1806.000000	0.002126  
1805.000000	0.002123  
1804.000000	0.002138  
1803.000000	0.002174  
1802.000000	0.002232  
1801.000000	0.002301  
1800.000000	0.002363  
1799.000000	0.002411  
1798.000000	0.002434  
1797.000000	0.002412  
1796.000000	0.002337  
1795.000000	0.002225  
1794.000000	0.002112  
1793.000000	0.002035  
1792.000000	0.002003  
1791.000000	0.001997  
1790.000000	0.002000  
1789.000000	0.001991  
1788.000000	0.001958  
1787.000000	0.001925  
1786.000000	0.001941  
1785.000000	0.002008  
1784.000000	0.002056  
1783.000000	0.002031  
1782.000000	0.001968  
1781.000000	0.001949  
1780.000000	0.002016  
1779.000000	0.002132  
1778.000000	0.002236  
1777.000000	0.002298  
1776.000000	0.002318  
1775.000000	0.002285  
1774.000000	0.002174  
1773.000000	0.001999  
1772.000000	0.001816  
1771.000000	0.001690  
1770.000000	0.001663  
1769.000000	0.001720  
1768.000000	0.001805  
1767.000000	0.001874  
1766.000000	0.001928  
1765.000000	0.001984  
1764.000000	0.002034  
1763.000000	0.002069  
1762.000000	0.002102  
1761.000000	0.002147  
1760.000000	0.002189  
1759.000000	0.002202  
1758.000000	0.002187  
1757.000000	0.002174  
1756.000000	0.002177  
1755.000000	0.002187  
1754.000000	0.002200  
1753.000000	0.002231  
1752.000000	0.002301  
1751.000000	0.002399  
1750.000000	0.002481  
1749.000000	0.002538  
1748.000000	0.002607  
1747.000000	0.002720  
1746.000000	0.002883  
1745.000000	0.003063  
1744.000000	0.003197  
1743.000000	0.003233  
1742.000000	0.003171  
1741.000000	0.003035  
1740.000000	0.002847  
1739.000000	0.002649  
1738.000000	0.002493  
1737.000000	0.002371  
1736.000000	0.002216  
1735.000000	0.002024  
1734.000000	0.001917  
1733.000000	0.001910  
1732.000000	0.001915  
1731.000000	0.001932  
1730.000000	0.002010  
1729.000000	0.002159  
1728.000000	0.002311  
1727.000000	0.002397  
1726.000000	0.002414  
1725.000000	0.002405  
1724.000000	0.002387  
1723.000000	0.002348  
1722.000000	0.002292  
1721.000000	0.002243  
1720.000000	0.002204  
1719.000000	0.002164  
1718.000000	0.002116  
1717.000000	0.002039  
1716.000000	0.001965  
1715.000000	0.001972  
1714.000000	0.002058  
1713.000000	0.002151  
1712.000000	0.002178  
1711.000000	0.002123  
1710.000000	0.002028  
1709.000000	0.001942  
1708.000000	0.001891  
1707.000000	0.001905  
1706.000000	0.002021  
1705.000000	0.002231  
1704.000000	0.002491  
1703.000000	0.002754  
1702.000000	0.002919  
1701.000000	0.002880  
1700.000000	0.002686  
1699.000000	0.002525  
1698.000000	0.002488  
1697.000000	0.002498  
1696.000000	0.002484  
1695.000000	0.002467  
1694.000000	0.002449  
1693.000000	0.002408  
1692.000000	0.002335  
1691.000000	0.002264  
1690.000000	0.002263  
1689.000000	0.002357  
1688.000000	0.002503  
1687.000000	0.002633  
1686.000000	0.002687  
1685.000000	0.002700  
1684.000000	0.002706  
1683.000000	0.002676  
1682.000000	0.002651  
1681.000000	0.002662  
1680.000000	0.002661  
1679.000000	0.002624  
1678.000000	0.002526  
1677.000000	0.002354  
1676.000000	0.002141  
1675.000000	0.002029  
1674.000000	0.002107  
1673.000000	0.002297  
1672.000000	0.002460  
1671.000000	0.002513  
1670.000000	0.002493  
1669.000000	0.002495  
1668.000000	0.002534  
1667.000000	0.002561  
1666.000000	0.002562  
1665.000000	0.002563  
1664.000000	0.002587  
1663.000000	0.002628  
1662.000000	0.002642  
1661.000000	0.002625  
1660.000000	0.002606  
1659.000000	0.002593  
1658.000000	0.002578  
1657.000000	0.002572  
1656.000000	0.002565  
1655.000000	0.002505  
1654.000000	0.002446  
1653.000000	0.002525  
1652.000000	0.002625  
1651.000000	0.002628  
1650.000000	0.002628  
1649.000000	0.002682  
1648.000000	0.002769  
1647.000000	0.002775  
1646.000000	0.002664  
1645.000000	0.002501  
1644.000000	0.002345  
1643.000000	0.002228  
1642.000000	0.002201  
1641.000000	0.002259  
1640.000000	0.002343  
1639.000000	0.002389  
1638.000000	0.002379  
1637.000000	0.002354  
1636.000000	0.002352  
1635.000000	0.002343  
1634.000000	0.002319  
1633.000000	0.002324  
1632.000000	0.002361  
1631.000000	0.002403  
1630.000000	0.002430  
1629.000000	0.002458  
1628.000000	0.002505  
1627.000000	0.002564  
1626.000000	0.002628  
1625.000000	0.002700  
1624.000000	0.002777  
1623.000000	0.002842  
1622.000000	0.002901  
1621.000000	0.002994  
1620.000000	0.003128  
1619.000000	0.003249  
1618.000000	0.003307  
1617.000000	0.003343  
1616.000000	0.003432  
1615.000000	0.003558  
1614.000000	0.003684  
1613.000000	0.003807  
1612.000000	0.003932  
1611.000000	0.004069  
1610.000000	0.004222  
1609.000000	0.004365  
1608.000000	0.004428  
1607.000000	0.004362  
1606.000000	0.004204  
1605.000000	0.004046  
1604.000000	0.003947  
1603.000000	0.003896  
1602.000000	0.003858  
1601.000000	0.003811  
1600.000000	0.003728  
1599.000000	0.003587  
1598.000000	0.003420  
1597.000000	0.003303  
1596.000000	0.003288  
1595.000000	0.003345  
1594.000000	0.003417  
1593.000000	0.003477  
1592.000000	0.003543  
1591.000000	0.003622  
1590.000000	0.003682  
1589.000000	0.003684  
1588.000000	0.003613  
1587.000000	0.003495  
1586.000000	0.003376  
1585.000000	0.003284  
1584.000000	0.003219  
1583.000000	0.003176  
1582.000000	0.003168  
1581.000000	0.003215  
1580.000000	0.003318  
1579.000000	0.003440  
1578.000000	0.003492  
1577.000000	0.003380  
1576.000000	0.003131  
1575.000000	0.002925  
1574.000000	0.002908  
1573.000000	0.003060  
1572.000000	0.003229  
1571.000000	0.003265  
1570.000000	0.003155  
1569.000000	0.003041  
1568.000000	0.003007  
1567.000000	0.002995  
1566.000000	0.002934  
1565.000000	0.002840  
1564.000000	0.002772  
1563.000000	0.002769  
1562.000000	0.002806  
1561.000000	0.002800  
1560.000000	0.002801  
1559.000000	0.002850  
1558.000000	0.002826  
1557.000000	0.002872  
1556.000000	0.003054  
1555.000000	0.003244  
1554.000000	0.003398  
1553.000000	0.003439  
1552.000000	0.003359  
1551.000000	0.003182  
1550.000000	0.003027  
1549.000000	0.002995  
1548.000000	0.003073  
1547.000000	0.003184  
1546.000000	0.003285  
1545.000000	0.003350  
1544.000000	0.003322  
1543.000000	0.003199  
1542.000000	0.003108  
1541.000000	0.003176  
1540.000000	0.003334  
1539.000000	0.003449  
1538.000000	0.003551  
1537.000000	0.003682  
1536.000000	0.003784  
1535.000000	0.003784  
1534.000000	0.003684  
1533.000000	0.003583  
1532.000000	0.003526  
1531.000000	0.003484  
1530.000000	0.003429  
1529.000000	0.003380  
1528.000000	0.003385  
1527.000000	0.003484  
1526.000000	0.003692  
1525.000000	0.003948  
1524.000000	0.004137  
1523.000000	0.004206  
1522.000000	0.004257  
1521.000000	0.004400  
1520.000000	0.004546  
1519.000000	0.004583  
1518.000000	0.004556  
1517.000000	0.004577  
1516.000000	0.004686  
1515.000000	0.004858  
1514.000000	0.005089  
1513.000000	0.005368  
1512.000000	0.005624  
1511.000000	0.005789  
1510.000000	0.005898  
1509.000000	0.006059  
1508.000000	0.006372  
1507.000000	0.006821  
1506.000000	0.007242  
1505.000000	0.007495  
1504.000000	0.007547  
1503.000000	0.007469  
1502.000000	0.007400  
1501.000000	0.007405  
1500.000000	0.007470  
1499.000000	0.007580  
1498.000000	0.007866  
1497.000000	0.008405  
1496.000000	0.008950  
1495.000000	0.009233  
1494.000000	0.009329  
1493.000000	0.009396  
1492.000000	0.009426  
1491.000000	0.009400  
1490.000000	0.009486  
1489.000000	0.009816  
1488.000000	0.010249  
1487.000000	0.010634  
1486.000000	0.011008  
1485.000000	0.011460  
1484.000000	0.011992  
1483.000000	0.012608  
1482.000000	0.013395  
1481.000000	0.014365  
1480.000000	0.015385  
1479.000000	0.016428  
1478.000000	0.017715  
1477.000000	0.019429  
1476.000000	0.021470  
1475.000000	0.023868  
1474.000000	0.027369  
1473.000000	0.032869  
1472.000000	0.039844  
1471.000000	0.046831  
1470.000000	0.053283  
1469.000000	0.059261  
1468.000000	0.064586  
1467.000000	0.069067  
1466.000000	0.072837  
1465.000000	0.076064  
1464.000000	0.078578  
1463.000000	0.080333  
1462.000000	0.081650  
1461.000000	0.082802  
1460.000000	0.083866  
1459.000000	0.084896  
1458.000000	0.085889  
1457.000000	0.086170  
1456.000000	0.085024  
1455.000000	0.082916  
1454.000000	0.080497  
1453.000000	0.077837  
1452.000000	0.074967  
1451.000000	0.072143  
1450.000000	0.069558  
1449.000000	0.067005  
1448.000000	0.064211  
1447.000000	0.061229  
1446.000000	0.058195  
1445.000000	0.055009  
1444.000000	0.051545  
1443.000000	0.047901  
1442.000000	0.044336  
1441.000000	0.041073  
1440.000000	0.038182  
1439.000000	0.035500  
1438.000000	0.032660  
1437.000000	0.029517  
1436.000000	0.026593  
1435.000000	0.024401  
1434.000000	0.022705  
1433.000000	0.021036  
1432.000000	0.019246  
1431.000000	0.017476  
1430.000000	0.015884  
1429.000000	0.014538  
1428.000000	0.013507  
1427.000000	0.012788  
1426.000000	0.012213  
1425.000000	0.011620  
1424.000000	0.011043  
1423.000000	0.010608  
1422.000000	0.010291  
1421.000000	0.009940  
1420.000000	0.009516  
1419.000000	0.009136  
1418.000000	0.008857  
1417.000000	0.008644  
1416.000000	0.008507  
1415.000000	0.008451  
1414.000000	0.008409  
1413.000000	0.008299  
1412.000000	0.008128  
1411.000000	0.007949  
1410.000000	0.007785  
1409.000000	0.007652  
1408.000000	0.007594  
1407.000000	0.007624  
1406.000000	0.007649  
1405.000000	0.007587  
1404.000000	0.007512  
1403.000000	0.007532  
1402.000000	0.007611  
1401.000000	0.007649  
1400.000000	0.007667  
1399.000000	0.007761  
1398.000000	0.007933  
1397.000000	0.008114  
1396.000000	0.008317  
1395.000000	0.008607  
1394.000000	0.008979  
1393.000000	0.009394  
1392.000000	0.009888  
1391.000000	0.010547  
1390.000000	0.011476  
1389.000000	0.012851  
1388.000000	0.014905  
1387.000000	0.017617  
1386.000000	0.020607  
1385.000000	0.023583  
1384.000000	0.026645  
1383.000000	0.030061  
1382.000000	0.033997  
1381.000000	0.038400  
1380.000000	0.042893  
1379.000000	0.046694  
1378.000000	0.048929  
1377.000000	0.049164  
1376.000000	0.047466  
1375.000000	0.044160  
1374.000000	0.039912  
1373.000000	0.035673  
1372.000000	0.032134  
1371.000000	0.029482  
1370.000000	0.027699  
1369.000000	0.026723  
1368.000000	0.026307  
1367.000000	0.025982  
1366.000000	0.025292  
1365.000000	0.024002  
1364.000000	0.022140  
1363.000000	0.019993  
1362.000000	0.018009  
1361.000000	0.016500  
1360.000000	0.015467  
1359.000000	0.014747  
1358.000000	0.014199  
1357.000000	0.013777  
1356.000000	0.013503  
1355.000000	0.013384  
1354.000000	0.013367  
1353.000000	0.013362  
1352.000000	0.013316  
1351.000000	0.013232  
1350.000000	0.013133  
1349.000000	0.013030  
1348.000000	0.012905  
1347.000000	0.012731  
1346.000000	0.012513  
1345.000000	0.012327  
1344.000000	0.012266  
1343.000000	0.012341  
1342.000000	0.012463  
1341.000000	0.012520  
1340.000000	0.012454  
1339.000000	0.012266  
1338.000000	0.011982  
1337.000000	0.011645  
1336.000000	0.011307  
1335.000000	0.010998  
1334.000000	0.010696  
1333.000000	0.010382  
1332.000000	0.010092  
1331.000000	0.009886  
1330.000000	0.009763  
1329.000000	0.009661  
1328.000000	0.009536  
1327.000000	0.009390  
1326.000000	0.009240  
1325.000000	0.009099  
1324.000000	0.008997  
1323.000000	0.008962  
1322.000000	0.008987  
1321.000000	0.009030  
1320.000000	0.009062  
1319.000000	0.009095  
1318.000000	0.009144  
1317.000000	0.009197  
1316.000000	0.009232  
1315.000000	0.009259  
1314.000000	0.009312  
1313.000000	0.009406  
1312.000000	0.009524  
1311.000000	0.009637  
1310.000000	0.009740  
1309.000000	0.009858  
1308.000000	0.010010  
1307.000000	0.010179  
1306.000000	0.010304  
1305.000000	0.010339  
1304.000000	0.010282  
1303.000000	0.010171  
1302.000000	0.010052  
1301.000000	0.009961  
1300.000000	0.009912  
1299.000000	0.009886  
1298.000000	0.009841  
1297.000000	0.009744  
1296.000000	0.009601  
1295.000000	0.009433  
1294.000000	0.009255  
1293.000000	0.009069  
1292.000000	0.008892  
1291.000000	0.008755  
1290.000000	0.008673  
1289.000000	0.008628  
1288.000000	0.008595  
1287.000000	0.008559  
1286.000000	0.008522  
1285.000000	0.008484  
1284.000000	0.008433  
1283.000000	0.008357  
1282.000000	0.008272  
1281.000000	0.008212  
1280.000000	0.008196  
1279.000000	0.008207  
1278.000000	0.008218  
1277.000000	0.008228  
1276.000000	0.008247  
1275.000000	0.008267  
1274.000000	0.008267  
1273.000000	0.008258  
1272.000000	0.008271  
1271.000000	0.008303  
1270.000000	0.008316  
1269.000000	0.008288  
1268.000000	0.008247  
1267.000000	0.008211  
1266.000000	0.008144  
1265.000000	0.008009  
1264.000000	0.007826  
1263.000000	0.007670  
1262.000000	0.007600  
1261.000000	0.007609  
1260.000000	0.007643  
1259.000000	0.007650  
1258.000000	0.007610  
1257.000000	0.007536  
1256.000000	0.007449  
1255.000000	0.007356  
1254.000000	0.007277  
1253.000000	0.007261  
1252.000000	0.007332  
1251.000000	0.007423  
1250.000000	0.007427  
1249.000000	0.007324  
1248.000000	0.007211  
1247.000000	0.007182  
1246.000000	0.007214  
1245.000000	0.007218  
1244.000000	0.007159  
1243.000000	0.007073  
1242.000000	0.006991  
1241.000000	0.006915  
1240.000000	0.006843  
1239.000000	0.006782  
1238.000000	0.006724  
1237.000000	0.006664  
1236.000000	0.006623  
1235.000000	0.006629  
1234.000000	0.006649  
1233.000000	0.006613  
1232.000000	0.006496  
1231.000000	0.006343  
1230.000000	0.006207  
1229.000000	0.006104  
1228.000000	0.006039  
1227.000000	0.006031  
1226.000000	0.006075  
1225.000000	0.006123  
1224.000000	0.006134  
1223.000000	0.006123  
1222.000000	0.006126  
1221.000000	0.006135  
1220.000000	0.006111  
1219.000000	0.006055  
1218.000000	0.006018  
1217.000000	0.006040  
1216.000000	0.006104  
1215.000000	0.006156  
1214.000000	0.006164  
1213.000000	0.006131  
1212.000000	0.006082  
1211.000000	0.006053  
1210.000000	0.006073  
1209.000000	0.006128  
1208.000000	0.006158  
1207.000000	0.006114  
1206.000000	0.006024  
1205.000000	0.005960  
1204.000000	0.005954  
1203.000000	0.005958  
1202.000000	0.005922  
1201.000000	0.005859  
1200.000000	0.005824  
1199.000000	0.005840  
1198.000000	0.005879  
1197.000000	0.005912  
1196.000000	0.005933  
1195.000000	0.005954  
1194.000000	0.005999  
1193.000000	0.006090  
1192.000000	0.006209  
1191.000000	0.006292  
1190.000000	0.006283  
1189.000000	0.006200  
1188.000000	0.006117  
1187.000000	0.006083  
1186.000000	0.006089  
1185.000000	0.006122  
1184.000000	0.006190  
1183.000000	0.006296  
1182.000000	0.006424  
1181.000000	0.006556  
1180.000000	0.006678  
1179.000000	0.006777  
1178.000000	0.006846  
1177.000000	0.006926  
1176.000000	0.007080  
1175.000000	0.007314  
1174.000000	0.007561  
1173.000000	0.007757  
1172.000000	0.007906  
1171.000000	0.008046  
1170.000000	0.008170  
1169.000000	0.008230  
1168.000000	0.008200  
1167.000000	0.008117  
1166.000000	0.008043  
1165.000000	0.008009  
1164.000000	0.007987  
1163.000000	0.007920  
1162.000000	0.007802  
1161.000000	0.007712  
1160.000000	0.007746  
1159.000000	0.007905  
1158.000000	0.008082  
1157.000000	0.008172  
1156.000000	0.008158  
1155.000000	0.008071  
1154.000000	0.007923  
1153.000000	0.007718  
1152.000000	0.007494  
1151.000000	0.007316  
1150.000000	0.007234  
1149.000000	0.007260  
1148.000000	0.007365  
1147.000000	0.007482  
1146.000000	0.007533  
1145.000000	0.007482  
1144.000000	0.007353  
1143.000000	0.007195  
1142.000000	0.007038  
1141.000000	0.006897  
1140.000000	0.006770  
1139.000000	0.006648  
1138.000000	0.006541  
1137.000000	0.006493  
1136.000000	0.006535  
1135.000000	0.006604  
1134.000000	0.006583  
1133.000000	0.006439  
1132.000000	0.006267  
1131.000000	0.006165  
1130.000000	0.006129  
1129.000000	0.006107  
1128.000000	0.006096  
1127.000000	0.006122  
1126.000000	0.006162  
1125.000000	0.006170  
1124.000000	0.006152  
1123.000000	0.006154  
1122.000000	0.006180  
1121.000000	0.006199  
1120.000000	0.006198  
1119.000000	0.006201  
1118.000000	0.006215  
1117.000000	0.006227  
1116.000000	0.006241  
1115.000000	0.006278  
1114.000000	0.006315  
1113.000000	0.006302  
1112.000000	0.006218  
1111.000000	0.006092  
1110.000000	0.005947  
1109.000000	0.005800  
1108.000000	0.005700  
1107.000000	0.005713  
1106.000000	0.005844  
1105.000000	0.006005  
1104.000000	0.006084  
1103.000000	0.006045  
1102.000000	0.005943  
1101.000000	0.005875  
1100.000000	0.005907  
1099.000000	0.006030  
1098.000000	0.006174  
1097.000000	0.006289  
1096.000000	0.006388  
1095.000000	0.006493  
1094.000000	0.006563  
1093.000000	0.006547  
1092.000000	0.006476  
1091.000000	0.006441  
1090.000000	0.006462  
1089.000000	0.006451  
1088.000000	0.006339  
1087.000000	0.006179  
1086.000000	0.006084  
1085.000000	0.006101  
1084.000000	0.006183  
1083.000000	0.006254  
1082.000000	0.006261  
1081.000000	0.006194  
1080.000000	0.006100  
1079.000000	0.006069  
1078.000000	0.006165  
1077.000000	0.006374  
1076.000000	0.006635  
1075.000000	0.006895  
1074.000000	0.007126  
1073.000000	0.007293  
1072.000000	0.007358  
1071.000000	0.007321  
1070.000000	0.007232  
1069.000000	0.007152  
1068.000000	0.007095  
1067.000000	0.007027  
1066.000000	0.006920  
1065.000000	0.006799  
1064.000000	0.006731  
1063.000000	0.006746  
1062.000000	0.006790  
1061.000000	0.006772  
1060.000000	0.006674  
1059.000000	0.006573  
1058.000000	0.006561  
1057.000000	0.006675  
1056.000000	0.006904  
1055.000000	0.007198  
1054.000000	0.007449  
1053.000000	0.007487  
1052.000000	0.007216  
1051.000000	0.006759  
1050.000000	0.006396  
1049.000000	0.006305  
1048.000000	0.006415  
1047.000000	0.006536  
1046.000000	0.006573  
1045.000000	0.006560  
1044.000000	0.006570  
1043.000000	0.006645  
1042.000000	0.006793  
1041.000000	0.006992  
1040.000000	0.007182  
1039.000000	0.007289  
1038.000000	0.007272  
1037.000000	0.007168  
1036.000000	0.007064  
1035.000000	0.007044  
1034.000000	0.007139  
1033.000000	0.007309  
1032.000000	0.007467  
1031.000000	0.007544  
1030.000000	0.007542  
1029.000000	0.007512  
1028.000000	0.007498  
1027.000000	0.007498  
1026.000000	0.007490  
1025.000000	0.007467  
1024.000000	0.007431  
1023.000000	0.007383  
1022.000000	0.007338  
1021.000000	0.007318  
1020.000000	0.007318  
1019.000000	0.007301  
1018.000000	0.007257  
1017.000000	0.007234  
1016.000000	0.007284  
1015.000000	0.007393  
1014.000000	0.007492  
1013.000000	0.007528  
1012.000000	0.007493  
1011.000000	0.007398  
1010.000000	0.007277  
1009.000000	0.007195  
1008.000000	0.007210  
1007.000000	0.007305  
1006.000000	0.007392  
1005.000000	0.007403  
1004.000000	0.007352  
1003.000000	0.007308  
1002.000000	0.007327  
1001.000000	0.007414  
1000.000000	0.007506  
999.000000	 0.007502  
998.000000	 0.007361  
997.000000	 0.007165  
996.000000	 0.007061  
995.000000	 0.007108  
994.000000	 0.007229  
993.000000	 0.007305  
992.000000	 0.007289  
991.000000	 0.007211  
990.000000	 0.007134  
989.000000	 0.007124  
988.000000	 0.007209  
987.000000	 0.007332  
986.000000	 0.007394  
985.000000	 0.007373  
984.000000	 0.007361  
983.000000	 0.007443  
982.000000	 0.007583  
981.000000	 0.007687  
980.000000	 0.007738  
979.000000	 0.007806  
978.000000	 0.007941  
977.000000	 0.008126  
976.000000	 0.008320  
975.000000	 0.008493  
974.000000	 0.008618  
973.000000	 0.008676  
972.000000	 0.008698  
971.000000	 0.008743  
970.000000	 0.008837  
969.000000	 0.008948  
968.000000	 0.009027  
967.000000	 0.009046  
966.000000	 0.008997  
965.000000	 0.008888  
964.000000	 0.008752  
963.000000	 0.008637  
962.000000	 0.008569  
961.000000	 0.008545  
960.000000	 0.008554  
959.000000	 0.008582  
958.000000	 0.008606  
957.000000	 0.008617  
956.000000	 0.008628  
955.000000	 0.008656  
954.000000	 0.008677  
953.000000	 0.008643  
952.000000	 0.008556  
951.000000	 0.008479  
950.000000	 0.008464  
949.000000	 0.008491  
948.000000	 0.008506  
947.000000	 0.008501  
946.000000	 0.008524  
945.000000	 0.008619  
944.000000	 0.008774  
943.000000	 0.008930  
942.000000	 0.009027  
941.000000	 0.009041  
940.000000	 0.008980  
939.000000	 0.008852  
938.000000	 0.008669  
937.000000	 0.008471  
936.000000	 0.008306  
935.000000	 0.008194  
934.000000	 0.008118  
933.000000	 0.008085  
932.000000	 0.008134  
931.000000	 0.008261  
930.000000	 0.008361  
929.000000	 0.008322  
928.000000	 0.008174  
927.000000	 0.008067  
926.000000	 0.008101  
925.000000	 0.008230  
924.000000	 0.008346  
923.000000	 0.008412  
922.000000	 0.008456  
921.000000	 0.008476  
920.000000	 0.008429  
919.000000	 0.008296  
918.000000	 0.008135  
917.000000	 0.008036  
916.000000	 0.008037  
915.000000	 0.008091  
914.000000	 0.008109  
913.000000	 0.008032  
912.000000	 0.007875  
911.000000	 0.007716  
910.000000	 0.007648  
909.000000	 0.007712  
908.000000	 0.007866  
907.000000	 0.007998  
906.000000	 0.008006  
905.000000	 0.007894  
904.000000	 0.007773  
903.000000	 0.007764  
902.000000	 0.007882  
901.000000	 0.008055  
900.000000	 0.008224  
899.000000	 0.008394  
898.000000	 0.008583  
897.000000	 0.008771  
896.000000	 0.008911  
895.000000	 0.008974  
894.000000	 0.008968  
893.000000	 0.008940  
892.000000	 0.008953  
891.000000	 0.009039  
890.000000	 0.009157  
889.000000	 0.009217  
888.000000	 0.009171  
887.000000	 0.009049  
886.000000	 0.008903  
885.000000	 0.008748  
884.000000	 0.008567  
883.000000	 0.008376  
882.000000	 0.008241  
881.000000	 0.008239  
880.000000	 0.008391  
879.000000	 0.008624  
878.000000	 0.008803  
877.000000	 0.008824  
876.000000	 0.008712  
875.000000	 0.008581  
874.000000	 0.008501  
873.000000	 0.008421  
872.000000	 0.008249  
871.000000	 0.007994  
870.000000	 0.007795  
869.000000	 0.007798  
868.000000	 0.008024  
867.000000	 0.008328  
866.000000	 0.008511  
865.000000	 0.008471  
864.000000	 0.008271  
863.000000	 0.008057  
862.000000	 0.007928  
861.000000	 0.007894  
860.000000	 0.007938  
859.000000	 0.008047  
858.000000	 0.008174  
857.000000	 0.008246  
856.000000	 0.008244  
855.000000	 0.008265  
854.000000	 0.008436  
853.000000	 0.008777  
852.000000	 0.009184  
851.000000	 0.009529  
850.000000	 0.009749  
849.000000	 0.009831  
848.000000	 0.009779  
847.000000	 0.009620  
846.000000	 0.009409  
845.000000	 0.009206  
844.000000	 0.009029  
843.000000	 0.008862  
842.000000	 0.008694  
841.000000	 0.008548  
840.000000	 0.008478  
839.000000	 0.008539  
838.000000	 0.008735  
837.000000	 0.008962  
836.000000	 0.009028  
835.000000	 0.008792  
834.000000	 0.008311  
833.000000	 0.007830  
832.000000	 0.007573  
831.000000	 0.007552  
830.000000	 0.007608  
829.000000	 0.007642  
828.000000	 0.007731  
827.000000	 0.007994  
826.000000	 0.008388  
825.000000	 0.008721  
824.000000	 0.008865  
823.000000	 0.008874  
822.000000	 0.008871  
821.000000	 0.008931  
820.000000	 0.009080  
819.000000	 0.009340  
818.000000	 0.009703  
817.000000	 0.010107  
816.000000	 0.010448  
815.000000	 0.010640  
814.000000	 0.010650  
813.000000	 0.010518  
812.000000	 0.010343  
811.000000	 0.010252  
810.000000	 0.010345  
809.000000	 0.010655  
808.000000	 0.011126  
807.000000	 0.011617  
806.000000	 0.011951  
805.000000	 0.012004  
804.000000	 0.011766  
803.000000	 0.011338  
802.000000	 0.010843  
801.000000	 0.010373  
800.000000	 0.009957  
799.000000	 0.009574  
798.000000	 0.009192  
797.000000	 0.008825  
796.000000	 0.008541  
795.000000	 0.008389  
794.000000	 0.008324  
793.000000	 0.008263  
792.000000	 0.008213  
791.000000	 0.008272  
790.000000	 0.008464  
789.000000	 0.008657  
788.000000	 0.008709  
787.000000	 0.008668  
786.000000	 0.008746  
785.000000	 0.009070  
784.000000	 0.009544  
783.000000	 0.009960  
782.000000	 0.010228  
781.000000	 0.010428  
780.000000	 0.010676  
779.000000	 0.010989  
778.000000	 0.011308  
777.000000	 0.011599  
776.000000	 0.011900  
775.000000	 0.012257  
774.000000	 0.012654  
773.000000	 0.013029  
772.000000	 0.013350  
771.000000	 0.013628  
770.000000	 0.013876  
769.000000	 0.014084  
768.000000	 0.014233  
767.000000	 0.014304  
766.000000	 0.014237  
765.000000	 0.013949  
764.000000	 0.013453  
763.000000	 0.012920  
762.000000	 0.012569  
761.000000	 0.012470  
760.000000	 0.012512  
759.000000	 0.012561  
758.000000	 0.012618  
757.000000	 0.012770  
756.000000	 0.013037  
755.000000	 0.013315  
754.000000	 0.013473  
753.000000	 0.013471  
752.000000	 0.013373  
751.000000	 0.013277  
750.000000	 0.013241  
749.000000	 0.013287  
748.000000	 0.013450  
747.000000	 0.013824  
746.000000	 0.014540  
745.000000	 0.015674  
744.000000	 0.017143  
743.000000	 0.018676  
742.000000	 0.019911  
741.000000	 0.020571  
740.000000	 0.020622  
739.000000	 0.020251  
738.000000	 0.019690  
737.000000	 0.019060  
736.000000	 0.018396  
735.000000	 0.017756  
734.000000	 0.017272  
733.000000	 0.017055  
732.000000	 0.017111  
731.000000	 0.017352  
730.000000	 0.017714  
729.000000	 0.018233  
728.000000	 0.019014  
727.000000	 0.020101  
726.000000	 0.021376  
725.000000	 0.022586  
724.000000	 0.023504  
723.000000	 0.024057  
722.000000	 0.024235  
721.000000	 0.023903  
720.000000	 0.022835  
719.000000	 0.021035  
718.000000	 0.018899  
717.000000	 0.016951  
716.000000	 0.015497  
715.000000	 0.014501  
714.000000	 0.013731  
713.000000	 0.012991  
712.000000	 0.012242  
711.000000	 0.011566  
710.000000	 0.011064  
709.000000	 0.010782  
708.000000	 0.010686  
707.000000	 0.010705  
706.000000	 0.010817  
705.000000	 0.011057  
704.000000	 0.011412  
703.000000	 0.011751  
702.000000	 0.011937  
701.000000	 0.011996  
700.000000	 0.012084  
699.000000	 0.012244  
698.000000	 0.012246  
697.000000	 0.011779  
696.000000	 0.010835  
695.000000	 0.009813  
694.000000	 0.009143  
693.000000	 0.008820  
692.000000	 0.008434  
691.000000	 0.007680  
690.000000	 0.006757  
689.000000	 0.006110  
688.000000	 0.005826  
687.000000	 0.005516  
686.000000	 0.004883  
685.000000	 0.004154  
684.000000	 0.003771  
683.000000	 0.003873  
682.000000	 0.004255  
681.000000	 0.004660  
680.000000	 0.004939  
679.000000	 0.005018  
678.000000	 0.004924  
677.000000	 0.004829  
676.000000	 0.004810  
675.000000	 0.004724  
674.000000	 0.004455  
673.000000	 0.004107  
672.000000	 0.003745  
671.000000	 0.003042  
670.000000	 0.001536  
669.000000	 -0.000878 
668.000000	 -0.002884 
667.000000	 -0.002232 
666.000000	 0.000087  
665.000000	 0.001999  
664.000000	 0.003218  
663.000000	 0.004098  
662.000000	 0.004649  
661.000000	 0.004618  
660.000000	 0.004156  
659.000000	 0.003859  
658.000000	 0.004023  
657.000000	 0.004226  
656.000000	 0.003830  
655.000000	 0.002834  
654.000000	 0.001957  
653.000000	 0.001837  
652.000000	 0.002369  
651.000000	 0.002936  
650.000000	 0.003139  

