PE IR                   SPECTRUM    ASCII       PEDS        1.60        
  -1
NB4-05~2.ASC
17/04/10
13:19:58.00
17/04/10
13:19:58.00
Admin

650.000000
6









SPECTRUM ONE,CPU32 MAIN 00.02.5000 17-APRIL-2002 13:00:00
MIR TGS
MIR
OPTKBR
68128
0.200000

4.000000
STRONG
RATIO
SPECTRUM
MAGNITUDE

DOUBLE

COMBINED


0


#HDR
-1
-1
#GR
CM-1
A
0.00000011920928955078
0.0
4000.000000
-1.000000
3351
8
0.219210
-0.006782
#DATA
4000.000000	0.001059  
3999.000000	0.000975  
3998.000000	0.000988  
3997.000000	0.001139  
3996.000000	0.001261  
3995.000000	0.001475  
3994.000000	0.001593  
3993.000000	0.001584  
3992.000000	0.001473  
3991.000000	0.001322  
3990.000000	0.001196  
3989.000000	0.001130  
3988.000000	0.001109  
3987.000000	0.001098  
3986.000000	0.001091  
3985.000000	0.001109  
3984.000000	0.001149  
3983.000000	0.001158  
3982.000000	0.001074  
3981.000000	0.000901  
3980.000000	0.000726  
3979.000000	0.000652  
3978.000000	0.000719  
3977.000000	0.000887  
3976.000000	0.001091  
3975.000000	0.001275  
3974.000000	0.001402  
3973.000000	0.001441  
3972.000000	0.001383  
3971.000000	0.001268  
3970.000000	0.001161  
3969.000000	0.001098  
3968.000000	0.001054  
3967.000000	0.000987  
3966.000000	0.000910  
3965.000000	0.000890  
3964.000000	0.000987  
3963.000000	0.001182  
3962.000000	0.001387  
3961.000000	0.001516  
3960.000000	0.001546  
3959.000000	0.001500  
3958.000000	0.001419  
3957.000000	0.001326  
3956.000000	0.001227  
3955.000000	0.001126  
3954.000000	0.001027  
3953.000000	0.000941  
3952.000000	0.000875  
3951.000000	0.000839  
3950.000000	0.000841  
3949.000000	0.000884  
3948.000000	0.000961  
3947.000000	0.001056  
3946.000000	0.001145  
3945.000000	0.001204  
3944.000000	0.001217  
3943.000000	0.001186  
3942.000000	0.001123  
3941.000000	0.001049  
3940.000000	0.000988  
3939.000000	0.000967  
3938.000000	0.000997  
3937.000000	0.001058  
3936.000000	0.001108  
3935.000000	0.001119  
3934.000000	0.001107  
3933.000000	0.001109  
3932.000000	0.001135  
3931.000000	0.001153  
3930.000000	0.001141  
3929.000000	0.001126  
3928.000000	0.001169  
3927.000000	0.001295  
3926.000000	0.001456  
3925.000000	0.001575  
3924.000000	0.001625  
3923.000000	0.001646  
3922.000000	0.001680  
3921.000000	0.001719  
3920.000000	0.001724  
3919.000000	0.001662  
3918.000000	0.001533  
3917.000000	0.001371  
3916.000000	0.001239  
3915.000000	0.001191  
3914.000000	0.001228  
3913.000000	0.001287  
3912.000000	0.001283  
3911.000000	0.001182  
3910.000000	0.001034  
3909.000000	0.000944  
3908.000000	0.000991  
3907.000000	0.001178  
3906.000000	0.001415  
3905.000000	0.001573  
3904.000000	0.001574  
3903.000000	0.001438  
3902.000000	0.001257  
3901.000000	0.001125  
3900.000000	0.001102  
3899.000000	0.001195  
3898.000000	0.001345  
3897.000000	0.001461  
3896.000000	0.001473  
3895.000000	0.001386  
3894.000000	0.001269  
3893.000000	0.001192  
3892.000000	0.001140  
3891.000000	0.001043  
3890.000000	0.000896  
3889.000000	0.000768  
3888.000000	0.000720  
3887.000000	0.000744  
3886.000000	0.000795  
3885.000000	0.000862  
3884.000000	0.000957  
3883.000000	0.001063  
3882.000000	0.001120  
3881.000000	0.001084  
3880.000000	0.000984  
3879.000000	0.000929  
3878.000000	0.001012  
3877.000000	0.001219  
3876.000000	0.001432  
3875.000000	0.001530  
3874.000000	0.001509  
3873.000000	0.001492  
3872.000000	0.001569  
3871.000000	0.001687  
3870.000000	0.001719  
3869.000000	0.001644  
3868.000000	0.001561  
3867.000000	0.001522  
3866.000000	0.001494  
3865.000000	0.001446  
3864.000000	0.001395  
3863.000000	0.001350  
3862.000000	0.001286  
3861.000000	0.001171  
3860.000000	0.000999  
3859.000000	0.000798  
3858.000000	0.000617  
3857.000000	0.000517  
3856.000000	0.000506  
3855.000000	0.000469  
3854.000000	0.000338  
3853.000000	0.000259  
3852.000000	0.000389  
3851.000000	0.000700  
3850.000000	0.001066  
3849.000000	0.001414  
3848.000000	0.001741  
3847.000000	0.002042  
3846.000000	0.002276  
3845.000000	0.002421  
3844.000000	0.002489  
3843.000000	0.002511  
3842.000000	0.002499  
3841.000000	0.002438  
3840.000000	0.002301  
3839.000000	0.002082  
3838.000000	0.001828  
3837.000000	0.001637  
3836.000000	0.001605  
3835.000000	0.001758  
3834.000000	0.002022  
3833.000000	0.002241  
3832.000000	0.002282  
3831.000000	0.002161  
3830.000000	0.002013  
3829.000000	0.001941  
3828.000000	0.001906  
3827.000000	0.001800  
3826.000000	0.001621  
3825.000000	0.001542  
3824.000000	0.001750  
3823.000000	0.002225  
3822.000000	0.002659  
3821.000000	0.002693  
3820.000000	0.002291  
3819.000000	0.001721  
3818.000000	0.001248  
3817.000000	0.000976  
3816.000000	0.000880  
3815.000000	0.000910  
3814.000000	0.001018  
3813.000000	0.001122  
3812.000000	0.001153  
3811.000000	0.001115  
3810.000000	0.001072  
3809.000000	0.001066  
3808.000000	0.001070  
3807.000000	0.001060  
3806.000000	0.001098  
3805.000000	0.001268  
3804.000000	0.001557  
3803.000000	0.001788  
3802.000000	0.001751  
3801.000000	0.001476  
3800.000000	0.001240  
3799.000000	0.001232  
3798.000000	0.001402  
3797.000000	0.001588  
3796.000000	0.001678  
3795.000000	0.001676  
3794.000000	0.001640  
3793.000000	0.001600  
3792.000000	0.001561  
3791.000000	0.001526  
3790.000000	0.001494  
3789.000000	0.001458  
3788.000000	0.001424  
3787.000000	0.001409  
3786.000000	0.001415  
3785.000000	0.001409  
3784.000000	0.001362  
3783.000000	0.001292  
3782.000000	0.001234  
3781.000000	0.001191  
3780.000000	0.001145  
3779.000000	0.001095  
3778.000000	0.001074  
3777.000000	0.001104  
3776.000000	0.001152  
3775.000000	0.001164  
3774.000000	0.001141  
3773.000000	0.001144  
3772.000000	0.001224  
3771.000000	0.001382  
3770.000000	0.001573  
3769.000000	0.001742  
3768.000000	0.001821  
3767.000000	0.001740  
3766.000000	0.001484  
3765.000000	0.001170  
3764.000000	0.000988  
3763.000000	0.001042  
3762.000000	0.001263  
3761.000000	0.001486  
3760.000000	0.001601  
3759.000000	0.001613  
3758.000000	0.001565  
3757.000000	0.001458  
3756.000000	0.001297  
3755.000000	0.001159  
3754.000000	0.001226  
3753.000000	0.001663  
3752.000000	0.002372  
3751.000000	0.002864  
3750.000000	0.002713  
3749.000000	0.002066  
3748.000000	0.001403  
3747.000000	0.001099  
3746.000000	0.001210  
3745.000000	0.001457  
3744.000000	0.001569  
3743.000000	0.001600  
3742.000000	0.001669  
3741.000000	0.001767  
3740.000000	0.001894  
3739.000000	0.002105  
3738.000000	0.002392  
3737.000000	0.002622  
3736.000000	0.002662  
3735.000000	0.002532  
3734.000000	0.002357  
3733.000000	0.002199  
3732.000000	0.002041  
3731.000000	0.001901  
3730.000000	0.001828  
3729.000000	0.001827  
3728.000000	0.001831  
3727.000000	0.001782  
3726.000000	0.001714  
3725.000000	0.001714  
3724.000000	0.001785  
3723.000000	0.001827  
3722.000000	0.001739  
3721.000000	0.001515  
3720.000000	0.001238  
3719.000000	0.001000  
3718.000000	0.000841  
3717.000000	0.000758  
3716.000000	0.000724  
3715.000000	0.000704  
3714.000000	0.000671  
3713.000000	0.000660  
3712.000000	0.000759  
3711.000000	0.000980  
3710.000000	0.001206  
3709.000000	0.001342  
3708.000000	0.001414  
3707.000000	0.001524  
3706.000000	0.001724  
3705.000000	0.001942  
3704.000000	0.002020  
3703.000000	0.001849  
3702.000000	0.001499  
3701.000000	0.001179  
3700.000000	0.001058  
3699.000000	0.001142  
3698.000000	0.001304  
3697.000000	0.001415  
3696.000000	0.001454  
3695.000000	0.001475  
3694.000000	0.001497  
3693.000000	0.001470  
3692.000000	0.001354  
3691.000000	0.001206  
3690.000000	0.001130  
3689.000000	0.001140  
3688.000000	0.001171  
3687.000000	0.001197  
3686.000000	0.001224  
3685.000000	0.001264  
3684.000000	0.001349  
3683.000000	0.001488  
3682.000000	0.001609  
3681.000000	0.001580  
3680.000000	0.001347  
3679.000000	0.001043  
3678.000000	0.000909  
3677.000000	0.001065  
3676.000000	0.001379  
3675.000000	0.001608  
3674.000000	0.001706  
3673.000000	0.001807  
3672.000000	0.001999  
3671.000000	0.002235  
3670.000000	0.002398  
3669.000000	0.002419  
3668.000000	0.002316  
3667.000000	0.002151  
3666.000000	0.001960  
3665.000000	0.001740  
3664.000000	0.001463  
3663.000000	0.001120  
3662.000000	0.000751  
3661.000000	0.000432  
3660.000000	0.000239  
3659.000000	0.000222  
3658.000000	0.000387  
3657.000000	0.000680  
3656.000000	0.001009  
3655.000000	0.001293  
3654.000000	0.001475  
3653.000000	0.001494  
3652.000000	0.001315  
3651.000000	0.001035  
3650.000000	0.000892  
3649.000000	0.001009  
3648.000000	0.001258  
3647.000000	0.001455  
3646.000000	0.001533  
3645.000000	0.001522  
3644.000000	0.001483  
3643.000000	0.001472  
3642.000000	0.001523  
3641.000000	0.001621  
3640.000000	0.001691  
3639.000000	0.001652  
3638.000000	0.001515  
3637.000000	0.001390  
3636.000000	0.001388  
3635.000000	0.001492  
3634.000000	0.001576  
3633.000000	0.001539  
3632.000000	0.001409  
3631.000000	0.001300  
3630.000000	0.001308  
3629.000000	0.001409  
3628.000000	0.001475  
3627.000000	0.001464  
3626.000000	0.001435  
3625.000000	0.001444  
3624.000000	0.001520  
3623.000000	0.001641  
3622.000000	0.001724  
3621.000000	0.001681  
3620.000000	0.001502  
3619.000000	0.001271  
3618.000000	0.001079  
3617.000000	0.000968  
3616.000000	0.000945  
3615.000000	0.000998  
3614.000000	0.001108  
3613.000000	0.001243  
3612.000000	0.001375  
3611.000000	0.001496  
3610.000000	0.001603  
3609.000000	0.001659  
3608.000000	0.001609  
3607.000000	0.001438  
3606.000000	0.001188  
3605.000000	0.000937  
3604.000000	0.000770  
3603.000000	0.000765  
3602.000000	0.000972  
3601.000000	0.001369  
3600.000000	0.001846  
3599.000000	0.002229  
3598.000000	0.002366  
3597.000000	0.002224  
3596.000000	0.001920  
3595.000000	0.001646  
3594.000000	0.001516  
3593.000000	0.001486  
3592.000000	0.001439  
3591.000000	0.001329  
3590.000000	0.001220  
3589.000000	0.001233  
3588.000000	0.001416  
3587.000000	0.001659  
3586.000000	0.001806  
3585.000000	0.001795  
3584.000000	0.001643  
3583.000000	0.001410  
3582.000000	0.001198  
3581.000000	0.001125  
3580.000000	0.001230  
3579.000000	0.001419  
3578.000000	0.001531  
3577.000000	0.001485  
3576.000000	0.001342  
3575.000000	0.001209  
3574.000000	0.001102  
3573.000000	0.000945  
3572.000000	0.000682  
3571.000000	0.000379  
3570.000000	0.000185  
3569.000000	0.000211  
3568.000000	0.000410  
3567.000000	0.000619  
3566.000000	0.000759  
3565.000000	0.000914  
3564.000000	0.001158  
3563.000000	0.001433  
3562.000000	0.001613  
3561.000000	0.001642  
3560.000000	0.001587  
3559.000000	0.001561  
3558.000000	0.001599  
3557.000000	0.001631  
3556.000000	0.001572  
3555.000000	0.001401  
3554.000000	0.001174  
3553.000000	0.000976  
3552.000000	0.000862  
3551.000000	0.000821  
3550.000000	0.000793  
3549.000000	0.000716  
3548.000000	0.000580  
3547.000000	0.000456  
3546.000000	0.000438  
3545.000000	0.000564  
3544.000000	0.000784  
3543.000000	0.001018  
3542.000000	0.001222  
3541.000000	0.001387  
3540.000000	0.001504  
3539.000000	0.001537  
3538.000000	0.001444  
3537.000000	0.001245  
3536.000000	0.001041  
3535.000000	0.000951  
3534.000000	0.001019  
3533.000000	0.001187  
3532.000000	0.001355  
3531.000000	0.001459  
3530.000000	0.001492  
3529.000000	0.001473  
3528.000000	0.001409  
3527.000000	0.001299  
3526.000000	0.001151  
3525.000000	0.000984  
3524.000000	0.000840  
3523.000000	0.000775  
3522.000000	0.000818  
3521.000000	0.000931  
3520.000000	0.001030  
3519.000000	0.001061  
3518.000000	0.001048  
3517.000000	0.001063  
3516.000000	0.001149  
3515.000000	0.001289  
3514.000000	0.001428  
3513.000000	0.001506  
3512.000000	0.001489  
3511.000000	0.001392  
3510.000000	0.001280  
3509.000000	0.001214  
3508.000000	0.001210  
3507.000000	0.001240  
3506.000000	0.001281  
3505.000000	0.001336  
3504.000000	0.001406  
3503.000000	0.001475  
3502.000000	0.001517  
3501.000000	0.001517  
3500.000000	0.001474  
3499.000000	0.001411  
3498.000000	0.001379  
3497.000000	0.001423  
3496.000000	0.001529  
3495.000000	0.001630  
3494.000000	0.001654  
3493.000000	0.001570  
3492.000000	0.001383  
3491.000000	0.001137  
3490.000000	0.000921  
3489.000000	0.000841  
3488.000000	0.000943  
3487.000000	0.001181  
3486.000000	0.001469  
3485.000000	0.001732  
3484.000000	0.001905  
3483.000000	0.001921  
3482.000000	0.001757  
3481.000000	0.001482  
3480.000000	0.001226  
3479.000000	0.001088  
3478.000000	0.001079  
3477.000000	0.001142  
3476.000000	0.001194  
3475.000000	0.001183  
3474.000000	0.001124  
3473.000000	0.001081  
3472.000000	0.001090  
3471.000000	0.001118  
3470.000000	0.001102  
3469.000000	0.001028  
3468.000000	0.000943  
3467.000000	0.000900  
3466.000000	0.000911  
3465.000000	0.000952  
3464.000000	0.000976  
3463.000000	0.000933  
3462.000000	0.000810  
3461.000000	0.000660  
3460.000000	0.000568  
3459.000000	0.000586  
3458.000000	0.000705  
3457.000000	0.000878  
3456.000000	0.001048  
3455.000000	0.001162  
3454.000000	0.001203  
3453.000000	0.001207  
3452.000000	0.001237  
3451.000000	0.001310  
3450.000000	0.001390  
3449.000000	0.001439  
3448.000000	0.001462  
3447.000000	0.001491  
3446.000000	0.001548  
3445.000000	0.001631  
3444.000000	0.001720  
3443.000000	0.001769  
3442.000000	0.001741  
3441.000000	0.001659  
3440.000000	0.001610  
3439.000000	0.001662  
3438.000000	0.001767  
3437.000000	0.001788  
3436.000000	0.001622  
3435.000000	0.001314  
3434.000000	0.001047  
3433.000000	0.000999  
3432.000000	0.001193  
3431.000000	0.001464  
3430.000000	0.001603  
3429.000000	0.001524  
3428.000000	0.001298  
3427.000000	0.001052  
3426.000000	0.000873  
3425.000000	0.000797  
3424.000000	0.000831  
3423.000000	0.000955  
3422.000000	0.001124  
3421.000000	0.001292  
3420.000000	0.001427  
3419.000000	0.001500  
3418.000000	0.001493  
3417.000000	0.001433  
3416.000000	0.001392  
3415.000000	0.001411  
3414.000000	0.001462  
3413.000000	0.001506  
3412.000000	0.001560  
3411.000000	0.001661  
3410.000000	0.001771  
3409.000000	0.001787  
3408.000000	0.001660  
3407.000000	0.001459  
3406.000000	0.001309  
3405.000000	0.001264  
3404.000000	0.001288  
3403.000000	0.001328  
3402.000000	0.001389  
3401.000000	0.001504  
3400.000000	0.001643  
3399.000000	0.001704  
3398.000000	0.001620  
3397.000000	0.001463  
3396.000000	0.001407  
3395.000000	0.001553  
3394.000000	0.001831  
3393.000000	0.002074  
3392.000000	0.002169  
3391.000000	0.002118  
3390.000000	0.001993  
3389.000000	0.001868  
3388.000000	0.001782  
3387.000000	0.001720  
3386.000000	0.001634  
3385.000000	0.001511  
3384.000000	0.001414  
3383.000000	0.001418  
3382.000000	0.001529  
3381.000000	0.001677  
3380.000000	0.001785  
3379.000000	0.001811  
3378.000000	0.001716  
3377.000000	0.001476  
3376.000000	0.001140  
3375.000000	0.000853  
3374.000000	0.000760  
3373.000000	0.000890  
3372.000000	0.001134  
3371.000000	0.001363  
3370.000000	0.001531  
3369.000000	0.001670  
3368.000000	0.001812  
3367.000000	0.001933  
3366.000000	0.001989  
3365.000000	0.001977  
3364.000000	0.001927  
3363.000000	0.001850  
3362.000000	0.001737  
3361.000000	0.001608  
3360.000000	0.001522  
3359.000000	0.001512  
3358.000000	0.001533  
3357.000000	0.001533  
3356.000000	0.001523  
3355.000000	0.001552  
3354.000000	0.001614  
3353.000000	0.001641  
3352.000000	0.001594  
3351.000000	0.001506  
3350.000000	0.001434  
3349.000000	0.001395  
3348.000000	0.001400  
3347.000000	0.001479  
3346.000000	0.001639  
3345.000000	0.001809  
3344.000000	0.001872  
3343.000000	0.001779  
3342.000000	0.001599  
3341.000000	0.001441  
3340.000000	0.001351  
3339.000000	0.001298  
3338.000000	0.001252  
3337.000000	0.001239  
3336.000000	0.001298  
3335.000000	0.001408  
3334.000000	0.001489  
3333.000000	0.001496  
3332.000000	0.001460  
3331.000000	0.001433  
3330.000000	0.001429  
3329.000000	0.001448  
3328.000000	0.001514  
3327.000000	0.001652  
3326.000000	0.001813  
3325.000000	0.001897  
3324.000000	0.001863  
3323.000000	0.001784  
3322.000000	0.001753  
3321.000000	0.001782  
3320.000000	0.001818  
3319.000000	0.001839  
3318.000000	0.001874  
3317.000000	0.001940  
3316.000000	0.001989  
3315.000000	0.001952  
3314.000000	0.001811  
3313.000000	0.001634  
3312.000000	0.001523  
3311.000000	0.001544  
3310.000000	0.001678  
3309.000000	0.001822  
3308.000000	0.001841  
3307.000000	0.001673  
3306.000000	0.001414  
3305.000000	0.001267  
3304.000000	0.001371  
3303.000000	0.001670  
3302.000000	0.001972  
3301.000000	0.002128  
3300.000000	0.002129  
3299.000000	0.002030  
3298.000000	0.001859  
3297.000000	0.001638  
3296.000000	0.001441  
3295.000000	0.001356  
3294.000000	0.001399  
3293.000000	0.001515  
3292.000000	0.001657  
3291.000000	0.001809  
3290.000000	0.001932  
3289.000000	0.001952  
3288.000000	0.001843  
3287.000000	0.001666  
3286.000000	0.001510  
3285.000000	0.001406  
3284.000000	0.001337  
3283.000000	0.001307  
3282.000000	0.001341  
3281.000000	0.001441  
3280.000000	0.001553  
3279.000000	0.001616  
3278.000000	0.001623  
3277.000000	0.001627  
3276.000000	0.001697  
3275.000000	0.001868  
3274.000000	0.002106  
3273.000000	0.002322  
3272.000000	0.002414  
3271.000000	0.002325  
3270.000000	0.002079  
3269.000000	0.001772  
3268.000000	0.001501  
3267.000000	0.001308  
3266.000000	0.001194  
3265.000000	0.001176  
3264.000000	0.001290  
3263.000000	0.001504  
3262.000000	0.001708  
3261.000000	0.001814  
3260.000000	0.001859  
3259.000000	0.001942  
3258.000000	0.002083  
3257.000000	0.002180  
3256.000000	0.002134  
3255.000000	0.001961  
3254.000000	0.001788  
3253.000000	0.001747  
3252.000000	0.001866  
3251.000000	0.002043  
3250.000000	0.002126  
3249.000000	0.002066  
3248.000000	0.001969  
3247.000000	0.001954  
3246.000000	0.001999  
3245.000000	0.001985  
3244.000000	0.001881  
3243.000000	0.001792  
3242.000000	0.001805  
3241.000000	0.001874  
3240.000000	0.001903  
3239.000000	0.001865  
3238.000000	0.001789  
3237.000000	0.001681  
3236.000000	0.001537  
3235.000000	0.001389  
3234.000000	0.001289  
3233.000000	0.001267  
3232.000000	0.001328  
3231.000000	0.001467  
3230.000000	0.001649  
3229.000000	0.001793  
3228.000000	0.001840  
3227.000000	0.001825  
3226.000000	0.001832  
3225.000000	0.001905  
3224.000000	0.002019  
3223.000000	0.002124  
3222.000000	0.002167  
3221.000000	0.002089  
3220.000000	0.001877  
3219.000000	0.001623  
3218.000000	0.001476  
3217.000000	0.001519  
3216.000000	0.001706  
3215.000000	0.001918  
3214.000000	0.002053  
3213.000000	0.002072  
3212.000000	0.002007  
3211.000000	0.001936  
3210.000000	0.001935  
3209.000000	0.002028  
3208.000000	0.002191  
3207.000000	0.002378  
3206.000000	0.002540  
3205.000000	0.002636  
3204.000000	0.002662  
3203.000000	0.002662  
3202.000000	0.002674  
3201.000000	0.002669  
3200.000000	0.002573  
3199.000000	0.002357  
3198.000000	0.002068  
3197.000000	0.001778  
3196.000000	0.001540  
3195.000000	0.001394  
3194.000000	0.001372  
3193.000000	0.001463  
3192.000000	0.001607  
3191.000000	0.001758  
3190.000000	0.001924  
3189.000000	0.002126  
3188.000000	0.002330  
3187.000000	0.002460  
3186.000000	0.002484  
3185.000000	0.002447  
3184.000000	0.002407  
3183.000000	0.002363  
3182.000000	0.002267  
3181.000000	0.002113  
3180.000000	0.001964  
3179.000000	0.001883  
3178.000000	0.001864  
3177.000000	0.001861  
3176.000000	0.001862  
3175.000000	0.001900  
3174.000000	0.001976  
3173.000000	0.002043  
3172.000000	0.002064  
3171.000000	0.002068  
3170.000000	0.002108  
3169.000000	0.002192  
3168.000000	0.002288  
3167.000000	0.002370  
3166.000000	0.002427  
3165.000000	0.002440  
3164.000000	0.002395  
3163.000000	0.002313  
3162.000000	0.002231  
3161.000000	0.002167  
3160.000000	0.002126  
3159.000000	0.002129  
3158.000000	0.002202  
3157.000000	0.002332  
3156.000000	0.002469  
3155.000000	0.002569  
3154.000000	0.002633  
3153.000000	0.002672  
3152.000000	0.002673  
3151.000000	0.002597  
3150.000000	0.002427  
3149.000000	0.002205  
3148.000000	0.002007  
3147.000000	0.001891  
3146.000000	0.001848  
3145.000000	0.001832  
3144.000000	0.001826  
3143.000000	0.001853  
3142.000000	0.001915  
3141.000000	0.001971  
3140.000000	0.002000  
3139.000000	0.002044  
3138.000000	0.002155  
3137.000000	0.002305  
3136.000000	0.002400  
3135.000000	0.002381  
3134.000000	0.002275  
3133.000000	0.002163  
3132.000000	0.002122  
3131.000000	0.002192  
3130.000000	0.002345  
3129.000000	0.002488  
3128.000000	0.002527  
3127.000000	0.002447  
3126.000000	0.002299  
3125.000000	0.002146  
3124.000000	0.002033  
3123.000000	0.002012  
3122.000000	0.002122  
3121.000000	0.002321  
3120.000000	0.002479  
3119.000000	0.002472  
3118.000000	0.002282  
3117.000000	0.002013  
3116.000000	0.001814  
3115.000000	0.001797  
3114.000000	0.001961  
3113.000000	0.002197  
3112.000000	0.002372  
3111.000000	0.002435  
3110.000000	0.002433  
3109.000000	0.002416  
3108.000000	0.002372  
3107.000000	0.002274  
3106.000000	0.002135  
3105.000000	0.002017  
3104.000000	0.001989  
3103.000000	0.002088  
3102.000000	0.002289  
3101.000000	0.002489  
3100.000000	0.002554  
3099.000000	0.002420  
3098.000000	0.002162  
3097.000000	0.001942  
3096.000000	0.001893  
3095.000000	0.002031  
3094.000000	0.002262  
3093.000000	0.002448  
3092.000000	0.002509  
3091.000000	0.002475  
3090.000000	0.002441  
3089.000000	0.002464  
3088.000000	0.002524  
3087.000000	0.002578  
3086.000000	0.002612  
3085.000000	0.002629  
3084.000000	0.002615  
3083.000000	0.002559  
3082.000000	0.002502  
3081.000000	0.002513  
3080.000000	0.002631  
3079.000000	0.002830  
3078.000000	0.003042  
3077.000000	0.003205  
3076.000000	0.003285  
3075.000000	0.003284  
3074.000000	0.003226  
3073.000000	0.003149  
3072.000000	0.003096  
3071.000000	0.003108  
3070.000000	0.003194  
3069.000000	0.003302  
3068.000000	0.003357  
3067.000000	0.003334  
3066.000000	0.003292  
3065.000000	0.003319  
3064.000000	0.003445  
3063.000000	0.003623  
3062.000000	0.003771  
3061.000000	0.003824  
3060.000000	0.003769  
3059.000000	0.003655  
3058.000000	0.003561  
3057.000000	0.003538  
3056.000000	0.003579  
3055.000000	0.003650  
3054.000000	0.003729  
3053.000000	0.003796  
3052.000000	0.003817  
3051.000000	0.003784  
3050.000000	0.003747  
3049.000000	0.003781  
3048.000000	0.003910  
3047.000000	0.004073  
3046.000000	0.004186  
3045.000000	0.004211  
3044.000000	0.004162  
3043.000000	0.004078  
3042.000000	0.004007  
3041.000000	0.003988  
3040.000000	0.004039  
3039.000000	0.004143  
3038.000000	0.004256  
3037.000000	0.004340  
3036.000000	0.004379  
3035.000000	0.004384  
3034.000000	0.004374  
3033.000000	0.004364  
3032.000000	0.004387  
3031.000000	0.004489  
3030.000000	0.004690  
3029.000000	0.004938  
3028.000000	0.005133  
3027.000000	0.005216  
3026.000000	0.005230  
3025.000000	0.005285  
3024.000000	0.005459  
3023.000000	0.005740  
3022.000000	0.006030  
3021.000000	0.006212  
3020.000000	0.006227  
3019.000000	0.006135  
3018.000000	0.006077  
3017.000000	0.006167  
3016.000000	0.006409  
3015.000000	0.006722  
3014.000000	0.007028  
3013.000000	0.007279  
3012.000000	0.007448  
3011.000000	0.007538  
3010.000000	0.007606  
3009.000000	0.007727  
3008.000000	0.007921  
3007.000000	0.008139  
3006.000000	0.008309  
3005.000000	0.008392  
3004.000000	0.008377  
3003.000000	0.008275  
3002.000000	0.008157  
3001.000000	0.008142  
3000.000000	0.008310  
2999.000000	0.008615  
2998.000000	0.008914  
2997.000000	0.009103  
2996.000000	0.009187  
2995.000000	0.009255  
2994.000000	0.009409  
2993.000000	0.009702  
2992.000000	0.010139  
2991.000000	0.010675  
2990.000000	0.011254  
2989.000000	0.011839  
2988.000000	0.012437  
2987.000000	0.013088  
2986.000000	0.013845  
2985.000000	0.014750  
2984.000000	0.015801  
2983.000000	0.016954  
2982.000000	0.018169  
2981.000000	0.019461  
2980.000000	0.020899  
2979.000000	0.022546  
2978.000000	0.024429  
2977.000000	0.026571  
2976.000000	0.029022  
2975.000000	0.031844  
2974.000000	0.035060  
2973.000000	0.038636  
2972.000000	0.042513  
2971.000000	0.046656  
2970.000000	0.051096  
2969.000000	0.055919  
2968.000000	0.061182  
2967.000000	0.066800  
2966.000000	0.072529  
2965.000000	0.078114  
2964.000000	0.083457  
2963.000000	0.088624  
2962.000000	0.093691  
2961.000000	0.098638  
2960.000000	0.103349  
2959.000000	0.107656  
2958.000000	0.111345  
2957.000000	0.114214  
2956.000000	0.116159  
2955.000000	0.117190  
2954.000000	0.117354  
2953.000000	0.116690  
2952.000000	0.115288  
2951.000000	0.113326  
2950.000000	0.111012  
2949.000000	0.108537  
2948.000000	0.106094  
2947.000000	0.103922  
2946.000000	0.102270  
2945.000000	0.101329  
2944.000000	0.101221  
2943.000000	0.102014  
2942.000000	0.103731  
2941.000000	0.106347  
2940.000000	0.109812  
2939.000000	0.114092  
2938.000000	0.119148  
2937.000000	0.124908  
2936.000000	0.131247  
2935.000000	0.138022  
2934.000000	0.145118  
2933.000000	0.152474  
2932.000000	0.160095  
2931.000000	0.167989  
2930.000000	0.176072  
2929.000000	0.184142  
2928.000000	0.191934  
2927.000000	0.199179  
2926.000000	0.205625  
2925.000000	0.211042  
2924.000000	0.215238  
2923.000000	0.218024  
2922.000000	0.219210  
2921.000000	0.218714  
2920.000000	0.216686  
2919.000000	0.213443  
2918.000000	0.209281  
2917.000000	0.204414  
2916.000000	0.199058  
2915.000000	0.193466  
2914.000000	0.187814  
2913.000000	0.182169  
2912.000000	0.176596  
2911.000000	0.171256  
2910.000000	0.166314  
2909.000000	0.161774  
2908.000000	0.157451  
2907.000000	0.153123  
2906.000000	0.148693  
2905.000000	0.144222  
2904.000000	0.139855  
2903.000000	0.135706  
2902.000000	0.131792  
2901.000000	0.128043  
2900.000000	0.124361  
2899.000000	0.120681  
2898.000000	0.116993  
2897.000000	0.113332  
2896.000000	0.109752  
2895.000000	0.106294  
2894.000000	0.102956  
2893.000000	0.099678  
2892.000000	0.096378  
2891.000000	0.093028  
2890.000000	0.089692  
2889.000000	0.086510  
2888.000000	0.083624  
2887.000000	0.081120  
2886.000000	0.079027  
2885.000000	0.077353  
2884.000000	0.076119  
2883.000000	0.075357  
2882.000000	0.075097  
2881.000000	0.075363  
2880.000000	0.076212  
2879.000000	0.077737  
2878.000000	0.080019  
2877.000000	0.083015  
2876.000000	0.086503  
2875.000000	0.090120  
2874.000000	0.093468  
2873.000000	0.096211  
2872.000000	0.098150  
2871.000000	0.099259  
2870.000000	0.099681  
2869.000000	0.099699  
2868.000000	0.099646  
2867.000000	0.099819  
2866.000000	0.100438  
2865.000000	0.101672  
2864.000000	0.103648  
2863.000000	0.106400  
2862.000000	0.109824  
2861.000000	0.113741  
2860.000000	0.118024  
2859.000000	0.122619  
2858.000000	0.127417  
2857.000000	0.132115  
2856.000000	0.136224  
2855.000000	0.139203  
2854.000000	0.140594  
2853.000000	0.140118  
2852.000000	0.137749  
2851.000000	0.133719  
2850.000000	0.128403  
2849.000000	0.122175  
2848.000000	0.115335  
2847.000000	0.108139  
2846.000000	0.100849  
2845.000000	0.093684  
2844.000000	0.086735  
2843.000000	0.079974  
2842.000000	0.073381  
2841.000000	0.067035  
2840.000000	0.061065  
2839.000000	0.055553  
2838.000000	0.050529  
2837.000000	0.046019  
2836.000000	0.042034  
2835.000000	0.038503  
2834.000000	0.035295  
2833.000000	0.032331  
2832.000000	0.029652  
2831.000000	0.027350  
2830.000000	0.025457  
2829.000000	0.023900  
2828.000000	0.022556  
2827.000000	0.021317  
2826.000000	0.020133  
2825.000000	0.019012  
2824.000000	0.017989  
2823.000000	0.017092  
2822.000000	0.016324  
2821.000000	0.015675  
2820.000000	0.015123  
2819.000000	0.014632  
2818.000000	0.014156  
2817.000000	0.013674  
2816.000000	0.013197  
2815.000000	0.012741  
2814.000000	0.012292  
2813.000000	0.011816  
2812.000000	0.011315  
2811.000000	0.010835  
2810.000000	0.010442  
2809.000000	0.010174  
2808.000000	0.010026  
2807.000000	0.009944  
2806.000000	0.009853  
2805.000000	0.009688  
2804.000000	0.009425  
2803.000000	0.009087  
2802.000000	0.008731  
2801.000000	0.008425  
2800.000000	0.008210  
2799.000000	0.008081  
2798.000000	0.007992  
2797.000000	0.007906  
2796.000000	0.007824  
2795.000000	0.007757  
2794.000000	0.007661  
2793.000000	0.007454  
2792.000000	0.007103  
2791.000000	0.006685  
2790.000000	0.006340  
2789.000000	0.006152  
2788.000000	0.006103  
2787.000000	0.006112  
2786.000000	0.006109  
2785.000000	0.006063  
2784.000000	0.005974  
2783.000000	0.005856  
2782.000000	0.005739  
2781.000000	0.005666  
2780.000000	0.005676  
2779.000000	0.005752  
2778.000000	0.005810  
2777.000000	0.005736  
2776.000000	0.005487  
2775.000000	0.005143  
2774.000000	0.004863  
2773.000000	0.004752  
2772.000000	0.004791  
2771.000000	0.004869  
2770.000000	0.004887  
2769.000000	0.004821  
2768.000000	0.004703  
2767.000000	0.004570  
2766.000000	0.004451  
2765.000000	0.004379  
2764.000000	0.004388  
2763.000000	0.004475  
2762.000000	0.004575  
2761.000000	0.004611  
2760.000000	0.004551  
2759.000000	0.004436  
2758.000000	0.004326  
2757.000000	0.004257  
2756.000000	0.004235  
2755.000000	0.004257  
2754.000000	0.004311  
2753.000000	0.004368  
2752.000000	0.004401  
2751.000000	0.004404  
2750.000000	0.004403  
2749.000000	0.004418  
2748.000000	0.004439  
2747.000000	0.004427  
2746.000000	0.004354  
2745.000000	0.004243  
2744.000000	0.004159  
2743.000000	0.004156  
2742.000000	0.004232  
2741.000000	0.004346  
2740.000000	0.004460  
2739.000000	0.004545  
2738.000000	0.004587  
2737.000000	0.004593  
2736.000000	0.004612  
2735.000000	0.004699  
2734.000000	0.004846  
2733.000000	0.004972  
2732.000000	0.004993  
2731.000000	0.004902  
2730.000000	0.004784  
2729.000000	0.004738  
2728.000000	0.004805  
2727.000000	0.004930  
2726.000000	0.005008  
2725.000000	0.004978  
2724.000000	0.004879  
2723.000000	0.004799  
2722.000000	0.004779  
2721.000000	0.004785  
2720.000000	0.004780  
2719.000000	0.004771  
2718.000000	0.004765  
2717.000000	0.004740  
2716.000000	0.004682  
2715.000000	0.004618  
2714.000000	0.004568  
2713.000000	0.004488  
2712.000000	0.004328  
2711.000000	0.004121  
2710.000000	0.003965  
2709.000000	0.003912  
2708.000000	0.003916  
2707.000000	0.003920  
2706.000000	0.003918  
2705.000000	0.003928  
2704.000000	0.003932  
2703.000000	0.003895  
2702.000000	0.003806  
2701.000000	0.003689  
2700.000000	0.003568  
2699.000000	0.003470  
2698.000000	0.003431  
2697.000000	0.003477  
2696.000000	0.003593  
2695.000000	0.003723  
2694.000000	0.003807  
2693.000000	0.003815  
2692.000000	0.003756  
2691.000000	0.003682  
2690.000000	0.003682  
2689.000000	0.003824  
2688.000000	0.004089  
2687.000000	0.004355  
2686.000000	0.004483  
2685.000000	0.004428  
2684.000000	0.004277  
2683.000000	0.004168  
2682.000000	0.004169  
2681.000000	0.004240  
2680.000000	0.004304  
2679.000000	0.004329  
2678.000000	0.004344  
2677.000000	0.004391  
2676.000000	0.004481  
2675.000000	0.004587  
2674.000000	0.004660  
2673.000000	0.004671  
2672.000000	0.004625  
2671.000000	0.004555  
2670.000000	0.004486  
2669.000000	0.004429  
2668.000000	0.004398  
2667.000000	0.004424  
2666.000000	0.004524  
2665.000000	0.004661  
2664.000000	0.004759  
2663.000000	0.004751  
2662.000000	0.004613  
2661.000000	0.004378  
2660.000000	0.004126  
2659.000000	0.003943  
2658.000000	0.003860  
2657.000000	0.003835  
2656.000000	0.003824  
2655.000000	0.003836  
2654.000000	0.003885  
2653.000000	0.003927  
2652.000000	0.003895  
2651.000000	0.003799  
2650.000000	0.003730  
2649.000000	0.003748  
2648.000000	0.003817  
2647.000000	0.003860  
2646.000000	0.003844  
2645.000000	0.003779  
2644.000000	0.003693  
2643.000000	0.003627  
2642.000000	0.003636  
2641.000000	0.003731  
2640.000000	0.003841  
2639.000000	0.003862  
2638.000000	0.003744  
2637.000000	0.003525  
2636.000000	0.003305  
2635.000000	0.003200  
2634.000000	0.003280  
2633.000000	0.003513  
2632.000000	0.003763  
2631.000000	0.003888  
2630.000000	0.003845  
2629.000000	0.003701  
2628.000000	0.003567  
2627.000000	0.003534  
2626.000000	0.003619  
2625.000000	0.003745  
2624.000000	0.003787  
2623.000000	0.003690  
2622.000000	0.003520  
2621.000000	0.003381  
2620.000000	0.003298  
2619.000000	0.003219  
2618.000000	0.003127  
2617.000000	0.003073  
2616.000000	0.003099  
2615.000000	0.003179  
2614.000000	0.003253  
2613.000000	0.003300  
2612.000000	0.003336  
2611.000000	0.003388  
2610.000000	0.003468  
2609.000000	0.003584  
2608.000000	0.003734  
2607.000000	0.003896  
2606.000000	0.004021  
2605.000000	0.004051  
2604.000000	0.003951  
2603.000000	0.003748  
2602.000000	0.003535  
2601.000000	0.003425  
2600.000000	0.003460  
2599.000000	0.003569  
2598.000000	0.003620  
2597.000000	0.003526  
2596.000000	0.003318  
2595.000000	0.003112  
2594.000000	0.002985  
2593.000000	0.002906  
2592.000000	0.002799  
2591.000000	0.002662  
2590.000000	0.002573  
2589.000000	0.002581  
2588.000000	0.002635  
2587.000000	0.002652  
2586.000000	0.002614  
2585.000000	0.002569  
2584.000000	0.002550  
2583.000000	0.002545  
2582.000000	0.002527  
2581.000000	0.002497  
2580.000000	0.002486  
2579.000000	0.002545  
2578.000000	0.002702  
2577.000000	0.002908  
2576.000000	0.003034  
2575.000000	0.002972  
2574.000000	0.002748  
2573.000000	0.002510  
2572.000000	0.002397  
2571.000000	0.002422  
2570.000000	0.002492  
2569.000000	0.002516  
2568.000000	0.002472  
2567.000000	0.002397  
2566.000000	0.002324  
2565.000000	0.002243  
2564.000000	0.002135  
2563.000000	0.002030  
2562.000000	0.002004  
2561.000000	0.002090  
2560.000000	0.002221  
2559.000000	0.002293  
2558.000000	0.002277  
2557.000000	0.002250  
2556.000000	0.002287  
2555.000000	0.002369  
2554.000000	0.002406  
2553.000000	0.002369  
2552.000000	0.002333  
2551.000000	0.002398  
2550.000000	0.002562  
2549.000000	0.002719  
2548.000000	0.002775  
2547.000000	0.002728  
2546.000000	0.002615  
2545.000000	0.002431  
2544.000000	0.002178  
2543.000000	0.001941  
2542.000000	0.001842  
2541.000000	0.001891  
2540.000000	0.001975  
2539.000000	0.002007  
2538.000000	0.002019  
2537.000000	0.002064  
2536.000000	0.002100  
2535.000000	0.002043  
2534.000000	0.001905  
2533.000000	0.001794  
2532.000000	0.001771  
2531.000000	0.001782  
2530.000000	0.001728  
2529.000000	0.001584  
2528.000000	0.001428  
2527.000000	0.001384  
2526.000000	0.001527  
2525.000000	0.001818  
2524.000000	0.002130  
2523.000000	0.002356  
2522.000000	0.002467  
2521.000000	0.002467  
2520.000000	0.002346  
2519.000000	0.002132  
2518.000000	0.001954  
2517.000000	0.001958  
2516.000000	0.002154  
2515.000000	0.002393  
2514.000000	0.002509  
2513.000000	0.002459  
2512.000000	0.002309  
2511.000000	0.002151  
2510.000000	0.002052  
2509.000000	0.002033  
2508.000000	0.002073  
2507.000000	0.002132  
2506.000000	0.002188  
2505.000000	0.002233  
2504.000000	0.002235  
2503.000000	0.002153  
2502.000000	0.002008  
2501.000000	0.001912  
2500.000000	0.001964  
2499.000000	0.002123  
2498.000000	0.002217  
2497.000000	0.002090  
2496.000000	0.001752  
2495.000000	0.001375  
2494.000000	0.001161  
2493.000000	0.001201  
2492.000000	0.001443  
2491.000000	0.001766  
2490.000000	0.002067  
2489.000000	0.002278  
2488.000000	0.002363  
2487.000000	0.002312  
2486.000000	0.002139  
2485.000000	0.001874  
2484.000000	0.001572  
2483.000000	0.001335  
2482.000000	0.001284  
2481.000000	0.001473  
2480.000000	0.001828  
2479.000000	0.002182  
2478.000000	0.002386  
2477.000000	0.002384  
2476.000000	0.002226  
2475.000000	0.002021  
2474.000000	0.001865  
2473.000000	0.001775  
2472.000000	0.001706  
2471.000000	0.001619  
2470.000000	0.001525  
2469.000000	0.001468  
2468.000000	0.001493  
2467.000000	0.001634  
2466.000000	0.001877  
2465.000000	0.002111  
2464.000000	0.002174  
2463.000000	0.002012  
2462.000000	0.001753  
2461.000000	0.001580  
2460.000000	0.001562  
2459.000000	0.001668  
2458.000000	0.001862  
2457.000000	0.002112  
2456.000000	0.002302  
2455.000000	0.002287  
2454.000000	0.002056  
2453.000000	0.001767  
2452.000000	0.001559  
2451.000000	0.001414  
2450.000000	0.001249  
2449.000000	0.001088  
2448.000000	0.001060  
2447.000000	0.001238  
2446.000000	0.001534  
2445.000000	0.001775  
2444.000000	0.001852  
2443.000000	0.001796  
2442.000000	0.001727  
2441.000000	0.001738  
2440.000000	0.001812  
2439.000000	0.001865  
2438.000000	0.001860  
2437.000000	0.001834  
2436.000000	0.001824  
2435.000000	0.001796  
2434.000000	0.001692  
2433.000000	0.001522  
2432.000000	0.001366  
2431.000000	0.001297  
2430.000000	0.001327  
2429.000000	0.001416  
2428.000000	0.001523  
2427.000000	0.001629  
2426.000000	0.001722  
2425.000000	0.001774  
2424.000000	0.001742  
2423.000000	0.001628  
2422.000000	0.001500  
2421.000000	0.001446  
2420.000000	0.001483  
2419.000000	0.001537  
2418.000000	0.001535  
2417.000000	0.001480  
2416.000000	0.001433  
2415.000000	0.001452  
2414.000000	0.001554  
2413.000000	0.001715  
2412.000000	0.001872  
2411.000000	0.001959  
2410.000000	0.001965  
2409.000000	0.001955  
2408.000000	0.001997  
2407.000000	0.002073  
2406.000000	0.002098  
2405.000000	0.002018  
2404.000000	0.001872  
2403.000000	0.001736  
2402.000000	0.001637  
2401.000000	0.001547  
2400.000000	0.001458  
2399.000000	0.001420  
2398.000000	0.001495  
2397.000000	0.001679  
2396.000000	0.001878  
2395.000000	0.001992  
2394.000000	0.002017  
2393.000000	0.002042  
2392.000000	0.002149  
2391.000000	0.002313  
2390.000000	0.002427  
2389.000000	0.002414  
2388.000000	0.002329  
2387.000000	0.002337  
2386.000000	0.002581  
2385.000000	0.003047  
2384.000000	0.003545  
2383.000000	0.003836  
2382.000000	0.003795  
2381.000000	0.003497  
2380.000000	0.003140  
2379.000000	0.002877  
2378.000000	0.002689  
2377.000000	0.002434  
2376.000000	0.002053  
2375.000000	0.001708  
2374.000000	0.001652  
2373.000000	0.001970  
2372.000000	0.002512  
2371.000000	0.003083  
2370.000000	0.003580  
2369.000000	0.003873  
2368.000000	0.003762  
2367.000000	0.003237  
2366.000000	0.002632  
2365.000000	0.002302  
2364.000000	0.002234  
2363.000000	0.002254  
2362.000000	0.002388  
2361.000000	0.002784  
2360.000000	0.003427  
2359.000000	0.004001  
2358.000000	0.004180  
2357.000000	0.003887  
2356.000000	0.003296  
2355.000000	0.002742  
2354.000000	0.002416  
2353.000000	0.002372  
2352.000000	0.002552  
2351.000000	0.002812  
2350.000000	0.003039  
2349.000000	0.003103  
2348.000000	0.003008  
2347.000000	0.002880  
2346.000000	0.002992  
2345.000000	0.003532  
2344.000000	0.004170  
2343.000000	0.004376  
2342.000000	0.003897  
2341.000000	0.003191  
2340.000000	0.002917  
2339.000000	0.003120  
2338.000000	0.003249  
2337.000000	0.002894  
2336.000000	0.002244  
2335.000000	0.001726  
2334.000000	0.001499  
2333.000000	0.001538  
2332.000000	0.001865  
2331.000000	0.002463  
2330.000000	0.003189  
2329.000000	0.003735  
2328.000000	0.004027  
2327.000000	0.004122  
2326.000000	0.004086  
2325.000000	0.003941  
2324.000000	0.003633  
2323.000000	0.003193  
2322.000000	0.002675  
2321.000000	0.002310  
2320.000000	0.002351  
2319.000000	0.002846  
2318.000000	0.003510  
2317.000000	0.003900  
2316.000000	0.003793  
2315.000000	0.003317  
2314.000000	0.002862  
2313.000000	0.002739  
2312.000000	0.002996  
2311.000000	0.003425  
2310.000000	0.003815  
2309.000000	0.004081  
2308.000000	0.004229  
2307.000000	0.004230  
2306.000000	0.004015  
2305.000000	0.003605  
2304.000000	0.003150  
2303.000000	0.002833  
2302.000000	0.002712  
2301.000000	0.002703  
2300.000000	0.002708  
2299.000000	0.002727  
2298.000000	0.002837  
2297.000000	0.003031  
2296.000000	0.003171  
2295.000000	0.003107  
2294.000000	0.002870  
2293.000000	0.002656  
2292.000000	0.002622  
2291.000000	0.002725  
2290.000000	0.002795  
2289.000000	0.002720  
2288.000000	0.002500  
2287.000000	0.002174  
2286.000000	0.001786  
2285.000000	0.001439  
2284.000000	0.001260  
2283.000000	0.001272  
2282.000000	0.001348  
2281.000000	0.001387  
2280.000000	0.001460  
2279.000000	0.001702  
2278.000000	0.002067  
2277.000000	0.002312  
2276.000000	0.002299  
2275.000000	0.002228  
2274.000000	0.002440  
2273.000000	0.003006  
2272.000000	0.003611  
2271.000000	0.003888  
2270.000000	0.003770  
2269.000000	0.003448  
2268.000000	0.003067  
2267.000000	0.002612  
2266.000000	0.002094  
2265.000000	0.001698  
2264.000000	0.001618  
2263.000000	0.001815  
2262.000000	0.002058  
2261.000000	0.002175  
2260.000000	0.002171  
2259.000000	0.002119  
2258.000000	0.002068  
2257.000000	0.002072  
2256.000000	0.002202  
2255.000000	0.002438  
2254.000000	0.002621  
2253.000000	0.002602  
2252.000000	0.002416  
2251.000000	0.002233  
2250.000000	0.002149  
2249.000000	0.002087  
2248.000000	0.001898  
2247.000000	0.001511  
2246.000000	0.001001  
2245.000000	0.000551  
2244.000000	0.000370  
2243.000000	0.000556  
2242.000000	0.001012  
2241.000000	0.001509  
2240.000000	0.001846  
2239.000000	0.001971  
2238.000000	0.001938  
2237.000000	0.001819  
2236.000000	0.001667  
2235.000000	0.001541  
2234.000000	0.001494  
2233.000000	0.001525  
2232.000000	0.001573  
2231.000000	0.001577  
2230.000000	0.001525  
2229.000000	0.001454  
2228.000000	0.001413  
2227.000000	0.001448  
2226.000000	0.001572  
2225.000000	0.001699  
2224.000000	0.001640  
2223.000000	0.001255  
2222.000000	0.000667  
2221.000000	0.000266  
2220.000000	0.000366  
2219.000000	0.000874  
2218.000000	0.001383  
2217.000000	0.001631  
2216.000000	0.001775  
2215.000000	0.002115  
2214.000000	0.002651  
2213.000000	0.003040  
2212.000000	0.003011  
2211.000000	0.002664  
2210.000000	0.002282  
2209.000000	0.001973  
2208.000000	0.001641  
2207.000000	0.001270  
2206.000000	0.001060  
2205.000000	0.001206  
2204.000000	0.001643  
2203.000000	0.002113  
2202.000000	0.002445  
2201.000000	0.002663  
2200.000000	0.002852  
2199.000000	0.003025  
2198.000000	0.003169  
2197.000000	0.003303  
2196.000000	0.003421  
2195.000000	0.003405  
2194.000000	0.003131  
2193.000000	0.002629  
2192.000000	0.002082  
2191.000000	0.001634  
2190.000000	0.001297  
2189.000000	0.001067  
2188.000000	0.001013  
2187.000000	0.001182  
2186.000000	0.001458  
2185.000000	0.001626  
2184.000000	0.001589  
2183.000000	0.001472  
2182.000000	0.001523  
2181.000000	0.001880  
2180.000000	0.002435  
2179.000000	0.002880  
2178.000000	0.002959  
2177.000000	0.002710  
2176.000000	0.002428  
2175.000000	0.002311  
2174.000000	0.002217  
2173.000000	0.001910  
2172.000000	0.001462  
2171.000000	0.001236  
2170.000000	0.001419  
2169.000000	0.001743  
2168.000000	0.001791  
2167.000000	0.001502  
2166.000000	0.001247  
2165.000000	0.001394  
2164.000000	0.001888  
2163.000000	0.002333  
2162.000000	0.002396  
2161.000000	0.002113  
2160.000000	0.001803  
2159.000000	0.001728  
2158.000000	0.001863  
2157.000000	0.002030  
2156.000000	0.002134  
2155.000000	0.002171  
2154.000000	0.002115  
2153.000000	0.001947  
2152.000000	0.001765  
2151.000000	0.001711  
2150.000000	0.001763  
2149.000000	0.001712  
2148.000000	0.001442  
2147.000000	0.001148  
2146.000000	0.001155  
2145.000000	0.001570  
2144.000000	0.002169  
2143.000000	0.002609  
2142.000000	0.002660  
2141.000000	0.002285  
2140.000000	0.001645  
2139.000000	0.001060  
2138.000000	0.000847  
2137.000000	0.001099  
2136.000000	0.001583  
2135.000000	0.001914  
2134.000000	0.001859  
2133.000000	0.001509  
2132.000000	0.001174  
2131.000000	0.001115  
2130.000000	0.001346  
2129.000000	0.001685  
2128.000000	0.001934  
2127.000000	0.002004  
2126.000000	0.001875  
2125.000000	0.001572  
2124.000000	0.001221  
2123.000000	0.001062  
2122.000000	0.001279  
2121.000000	0.001792  
2120.000000	0.002290  
2119.000000	0.002493  
2118.000000	0.002356  
2117.000000	0.002067  
2116.000000	0.001882  
2115.000000	0.001935  
2114.000000	0.002102  
2113.000000	0.002088  
2112.000000	0.001735  
2111.000000	0.001260  
2110.000000	0.001092  
2109.000000	0.001395  
2108.000000	0.001870  
2107.000000	0.002092  
2106.000000	0.001938  
2105.000000	0.001604  
2104.000000	0.001300  
2103.000000	0.001067  
2102.000000	0.000871  
2101.000000	0.000719  
2100.000000	0.000631  
2099.000000	0.000599  
2098.000000	0.000618  
2097.000000	0.000685  
2096.000000	0.000756  
2095.000000	0.000757  
2094.000000	0.000686  
2093.000000	0.000650  
2092.000000	0.000746  
2091.000000	0.000936  
2090.000000	0.001090  
2089.000000	0.001154  
2088.000000	0.001233  
2087.000000	0.001484  
2086.000000	0.001912  
2085.000000	0.002299  
2084.000000	0.002373  
2083.000000	0.002067  
2082.000000	0.001596  
2081.000000	0.001284  
2080.000000	0.001309  
2079.000000	0.001599  
2078.000000	0.001917  
2077.000000	0.002016  
2076.000000	0.001798  
2075.000000	0.001419  
2074.000000	0.001195  
2073.000000	0.001329  
2072.000000	0.001690  
2071.000000	0.001955  
2070.000000	0.001937  
2069.000000	0.001725  
2068.000000	0.001524  
2067.000000	0.001455  
2066.000000	0.001538  
2065.000000	0.001745  
2064.000000	0.002006  
2063.000000	0.002235  
2062.000000	0.002391  
2061.000000	0.002466  
2060.000000	0.002414  
2059.000000	0.002180  
2058.000000	0.001850  
2057.000000	0.001633  
2056.000000	0.001599  
2055.000000	0.001534  
2054.000000	0.001207  
2053.000000	0.000697  
2052.000000	0.000302  
2051.000000	0.000186  
2050.000000	0.000311  
2049.000000	0.000677  
2048.000000	0.001356  
2047.000000	0.002179  
2046.000000	0.002638  
2045.000000	0.002372  
2044.000000	0.001618  
2043.000000	0.000964  
2042.000000	0.000734  
2041.000000	0.000817  
2040.000000	0.001056  
2039.000000	0.001470  
2038.000000	0.001998  
2037.000000	0.002308  
2036.000000	0.002137  
2035.000000	0.001713  
2034.000000	0.001574  
2033.000000	0.001947  
2032.000000	0.002497  
2031.000000	0.002708  
2030.000000	0.002349  
2029.000000	0.001548  
2028.000000	0.000610  
2027.000000	-0.000160 
2026.000000	-0.000578 
2025.000000	-0.000656 
2024.000000	-0.000545 
2023.000000	-0.000313 
2022.000000	0.000135  
2021.000000	0.000815  
2020.000000	0.001441  
2019.000000	0.001649  
2018.000000	0.001411  
2017.000000	0.001065  
2016.000000	0.000893  
2015.000000	0.000850  
2014.000000	0.000806  
2013.000000	0.000809  
2012.000000	0.000908  
2011.000000	0.000876  
2010.000000	0.000400  
2009.000000	-0.000449 
2008.000000	-0.001155 
2007.000000	-0.001269 
2006.000000	-0.000816 
2005.000000	-0.000120 
2004.000000	0.000558  
2003.000000	0.001148  
2002.000000	0.001671  
2001.000000	0.002175  
2000.000000	0.002617  
1999.000000	0.002745  
1998.000000	0.002246  
1997.000000	0.001207  
1996.000000	0.000252  
1995.000000	-0.000009 
1994.000000	0.000409  
1993.000000	0.000953  
1992.000000	0.001169  
1991.000000	0.001105  
1990.000000	0.001014  
1989.000000	0.001025  
1988.000000	0.001196  
1987.000000	0.001584  
1986.000000	0.002075  
1985.000000	0.002366  
1984.000000	0.002314  
1983.000000	0.002142  
1982.000000	0.002113  
1981.000000	0.002158  
1980.000000	0.002053  
1979.000000	0.001809  
1978.000000	0.001594  
1977.000000	0.001340  
1976.000000	0.000833  
1975.000000	0.000167  
1974.000000	-0.000283 
1973.000000	-0.000404 
1972.000000	-0.000457 
1971.000000	-0.000587 
1970.000000	-0.000549 
1969.000000	-0.000130 
1968.000000	0.000435  
1967.000000	0.000726  
1966.000000	0.000695  
1965.000000	0.000675  
1964.000000	0.000895  
1963.000000	0.001259  
1962.000000	0.001535  
1961.000000	0.001596  
1960.000000	0.001496  
1959.000000	0.001393  
1958.000000	0.001398  
1957.000000	0.001428  
1956.000000	0.001270  
1955.000000	0.000849  
1954.000000	0.000401  
1953.000000	0.000277  
1952.000000	0.000585  
1951.000000	0.001118  
1950.000000	0.001571  
1949.000000	0.001768  
1948.000000	0.001715  
1947.000000	0.001561  
1946.000000	0.001492  
1945.000000	0.001578  
1944.000000	0.001696  
1943.000000	0.001673  
1942.000000	0.001520  
1941.000000	0.001403  
1940.000000	0.001396  
1939.000000	0.001406  
1938.000000	0.001380  
1937.000000	0.001423  
1936.000000	0.001646  
1935.000000	0.001978  
1934.000000	0.002231  
1933.000000	0.002316  
1932.000000	0.002309  
1931.000000	0.002304  
1930.000000	0.002285  
1929.000000	0.002185  
1928.000000	0.001986  
1927.000000	0.001726  
1926.000000	0.001442  
1925.000000	0.001172  
1924.000000	0.000998  
1923.000000	0.001019  
1922.000000	0.001247  
1921.000000	0.001571  
1920.000000	0.001832  
1919.000000	0.001926  
1918.000000	0.001879  
1917.000000	0.001840  
1916.000000	0.001905  
1915.000000	0.001979  
1914.000000	0.001872  
1913.000000	0.001538  
1912.000000	0.001174  
1911.000000	0.001032  
1910.000000	0.001144  
1909.000000	0.001322  
1908.000000	0.001417  
1907.000000	0.001463  
1906.000000	0.001538  
1905.000000	0.001619  
1904.000000	0.001638  
1903.000000	0.001609  
1902.000000	0.001607  
1901.000000	0.001657  
1900.000000	0.001703  
1899.000000	0.001701  
1898.000000	0.001683  
1897.000000	0.001715  
1896.000000	0.001827  
1895.000000	0.001988  
1894.000000	0.002135  
1893.000000	0.002222  
1892.000000	0.002246  
1891.000000	0.002237  
1890.000000	0.002224  
1889.000000	0.002204  
1888.000000	0.002152  
1887.000000	0.002059  
1886.000000	0.001956  
1885.000000	0.001898  
1884.000000	0.001908  
1883.000000	0.001937  
1882.000000	0.001909  
1881.000000	0.001815  
1880.000000	0.001722  
1879.000000	0.001683  
1878.000000	0.001672  
1877.000000	0.001656  
1876.000000	0.001675  
1875.000000	0.001802  
1874.000000	0.002011  
1873.000000	0.002180  
1872.000000	0.002206  
1871.000000	0.002079  
1870.000000	0.001852  
1869.000000	0.001599  
1868.000000	0.001433  
1867.000000	0.001457  
1866.000000	0.001647  
1865.000000	0.001866  
1864.000000	0.001993  
1863.000000	0.002011  
1862.000000	0.001976  
1861.000000	0.001932  
1860.000000	0.001885  
1859.000000	0.001851  
1858.000000	0.001863  
1857.000000	0.001934  
1856.000000	0.002015  
1855.000000	0.002018  
1854.000000	0.001891  
1853.000000	0.001685  
1852.000000	0.001537  
1851.000000	0.001535  
1850.000000	0.001608  
1849.000000	0.001596  
1848.000000	0.001441  
1847.000000	0.001269  
1846.000000	0.001251  
1845.000000	0.001425  
1844.000000	0.001641  
1843.000000	0.001738  
1842.000000	0.001703  
1841.000000	0.001609  
1840.000000	0.001523  
1839.000000	0.001504  
1838.000000	0.001570  
1837.000000	0.001652  
1836.000000	0.001660  
1835.000000	0.001597  
1834.000000	0.001536  
1833.000000	0.001491  
1832.000000	0.001403  
1831.000000	0.001283  
1830.000000	0.001264  
1829.000000	0.001426  
1828.000000	0.001658  
1827.000000	0.001814  
1826.000000	0.001854  
1825.000000	0.001828  
1824.000000	0.001811  
1823.000000	0.001856  
1822.000000	0.001951  
1821.000000	0.002002  
1820.000000	0.001898  
1819.000000	0.001656  
1818.000000	0.001448  
1817.000000	0.001428  
1816.000000	0.001569  
1815.000000	0.001723  
1814.000000	0.001790  
1813.000000	0.001764  
1812.000000	0.001698  
1811.000000	0.001658  
1810.000000	0.001692  
1809.000000	0.001782  
1808.000000	0.001870  
1807.000000	0.001910  
1806.000000	0.001898  
1805.000000	0.001867  
1804.000000	0.001854  
1803.000000	0.001892  
1802.000000	0.001992  
1801.000000	0.002126  
1800.000000	0.002245  
1799.000000	0.002319  
1798.000000	0.002338  
1797.000000	0.002308  
1796.000000	0.002253  
1795.000000	0.002195  
1794.000000	0.002138  
1793.000000	0.002081  
1792.000000	0.002030  
1791.000000	0.001993  
1790.000000	0.001970  
1789.000000	0.001939  
1788.000000	0.001889  
1787.000000	0.001847  
1786.000000	0.001856  
1785.000000	0.001897  
1784.000000	0.001887  
1783.000000	0.001778  
1782.000000	0.001643  
1781.000000	0.001628  
1780.000000	0.001806  
1779.000000	0.002089  
1778.000000	0.002320  
1777.000000	0.002419  
1776.000000	0.002398  
1775.000000	0.002295  
1774.000000	0.002140  
1773.000000	0.001977  
1772.000000	0.001859  
1771.000000	0.001804  
1770.000000	0.001819  
1769.000000	0.001899  
1768.000000	0.002000  
1767.000000	0.002075  
1766.000000	0.002119  
1765.000000	0.002175  
1764.000000	0.002275  
1763.000000	0.002426  
1762.000000	0.002604  
1761.000000	0.002760  
1760.000000	0.002859  
1759.000000	0.002906  
1758.000000	0.002941  
1757.000000	0.003024  
1756.000000	0.003172  
1755.000000	0.003350  
1754.000000	0.003547  
1753.000000	0.003818  
1752.000000	0.004246  
1751.000000	0.004860  
1750.000000	0.005640  
1749.000000	0.006600  
1748.000000	0.007750  
1747.000000	0.009042  
1746.000000	0.010418  
1745.000000	0.011805  
1744.000000	0.013008  
1743.000000	0.013768  
1742.000000	0.013949  
1741.000000	0.013550  
1740.000000	0.012638  
1739.000000	0.011448  
1738.000000	0.010308  
1737.000000	0.009311  
1736.000000	0.008280  
1735.000000	0.007044  
1734.000000	0.005809  
1733.000000	0.004920  
1732.000000	0.004374  
1731.000000	0.004024  
1730.000000	0.003818  
1729.000000	0.003741  
1728.000000	0.003721  
1727.000000	0.003677  
1726.000000	0.003576  
1725.000000	0.003428  
1724.000000	0.003257  
1723.000000	0.003103  
1722.000000	0.003012  
1721.000000	0.002980  
1720.000000	0.002938  
1719.000000	0.002824  
1718.000000	0.002652  
1717.000000	0.002459  
1716.000000	0.002326  
1715.000000	0.002349  
1714.000000	0.002499  
1713.000000	0.002646  
1712.000000	0.002676  
1711.000000	0.002581  
1710.000000	0.002443  
1709.000000	0.002349  
1708.000000	0.002322  
1707.000000	0.002350  
1706.000000	0.002428  
1705.000000	0.002548  
1704.000000	0.002726  
1703.000000	0.002978  
1702.000000	0.003232  
1701.000000	0.003291  
1700.000000	0.003079  
1699.000000	0.002828  
1698.000000	0.002732  
1697.000000	0.002723  
1696.000000	0.002669  
1695.000000	0.002572  
1694.000000	0.002491  
1693.000000	0.002439  
1692.000000	0.002384  
1691.000000	0.002322  
1690.000000	0.002299  
1689.000000	0.002354  
1688.000000	0.002466  
1687.000000	0.002571  
1686.000000	0.002604  
1685.000000	0.002578  
1684.000000	0.002570  
1683.000000	0.002573  
1682.000000	0.002575  
1681.000000	0.002593  
1680.000000	0.002601  
1679.000000	0.002596  
1678.000000	0.002545  
1677.000000	0.002421  
1676.000000	0.002251  
1675.000000	0.002172  
1674.000000	0.002268  
1673.000000	0.002465  
1672.000000	0.002649  
1671.000000	0.002748  
1670.000000	0.002767  
1669.000000	0.002746  
1668.000000	0.002708  
1667.000000	0.002672  
1666.000000	0.002675  
1665.000000	0.002732  
1664.000000	0.002815  
1663.000000	0.002878  
1662.000000	0.002888  
1661.000000	0.002866  
1660.000000	0.002850  
1659.000000	0.002856  
1658.000000	0.002873  
1657.000000	0.002909  
1656.000000	0.002943  
1655.000000	0.002919  
1654.000000	0.002872  
1653.000000	0.002957  
1652.000000	0.003061  
1651.000000	0.003059  
1650.000000	0.003058  
1649.000000	0.003081  
1648.000000	0.003120  
1647.000000	0.003095  
1646.000000	0.002977  
1645.000000	0.002803  
1644.000000	0.002638  
1643.000000	0.002518  
1642.000000	0.002483  
1641.000000	0.002523  
1640.000000	0.002597  
1639.000000	0.002658  
1638.000000	0.002688  
1637.000000	0.002687  
1636.000000	0.002677  
1635.000000	0.002665  
1634.000000	0.002663  
1633.000000	0.002689  
1632.000000	0.002716  
1631.000000	0.002708  
1630.000000	0.002660  
1629.000000	0.002627  
1628.000000	0.002658  
1627.000000	0.002750  
1626.000000	0.002865  
1625.000000	0.002968  
1624.000000	0.003028  
1623.000000	0.003039  
1622.000000	0.003044  
1621.000000	0.003110  
1620.000000	0.003244  
1619.000000	0.003389  
1618.000000	0.003493  
1617.000000	0.003577  
1616.000000	0.003670  
1615.000000	0.003736  
1614.000000	0.003765  
1613.000000	0.003785  
1612.000000	0.003830  
1611.000000	0.003928  
1610.000000	0.004089  
1609.000000	0.004277  
1608.000000	0.004403  
1607.000000	0.004398  
1606.000000	0.004281  
1605.000000	0.004130  
1604.000000	0.003997  
1603.000000	0.003881  
1602.000000	0.003783  
1601.000000	0.003713  
1600.000000	0.003647  
1599.000000	0.003544  
1598.000000	0.003410  
1597.000000	0.003312  
1596.000000	0.003297  
1595.000000	0.003340  
1594.000000	0.003389  
1593.000000	0.003428  
1592.000000	0.003482  
1591.000000	0.003562  
1590.000000	0.003640  
1589.000000	0.003678  
1588.000000	0.003656  
1587.000000	0.003585  
1586.000000	0.003502  
1585.000000	0.003443  
1584.000000	0.003413  
1583.000000	0.003395  
1582.000000	0.003381  
1581.000000	0.003390  
1580.000000	0.003441  
1579.000000	0.003522  
1578.000000	0.003576  
1577.000000	0.003527  
1576.000000	0.003360  
1575.000000	0.003177  
1574.000000	0.003118  
1573.000000	0.003218  
1572.000000	0.003373  
1571.000000	0.003450  
1570.000000	0.003406  
1569.000000	0.003325  
1568.000000	0.003271  
1567.000000	0.003237  
1566.000000	0.003189  
1565.000000	0.003133  
1564.000000	0.003071  
1563.000000	0.003020  
1562.000000	0.002989  
1561.000000	0.002960  
1560.000000	0.002949  
1559.000000	0.002965  
1558.000000	0.002906  
1557.000000	0.002913  
1556.000000	0.003095  
1555.000000	0.003292  
1554.000000	0.003451  
1553.000000	0.003473  
1552.000000	0.003369  
1551.000000	0.003191  
1550.000000	0.003074  
1549.000000	0.003090  
1548.000000	0.003175  
1547.000000	0.003226  
1546.000000	0.003222  
1545.000000	0.003200  
1544.000000	0.003171  
1543.000000	0.003132  
1542.000000	0.003139  
1541.000000	0.003231  
1540.000000	0.003322  
1539.000000	0.003331  
1538.000000	0.003348  
1537.000000	0.003450  
1536.000000	0.003572  
1535.000000	0.003625  
1534.000000	0.003580  
1533.000000	0.003508  
1532.000000	0.003459  
1531.000000	0.003433  
1530.000000	0.003404  
1529.000000	0.003375  
1528.000000	0.003388  
1527.000000	0.003498  
1526.000000	0.003728  
1525.000000	0.004003  
1524.000000	0.004200  
1523.000000	0.004264  
1522.000000	0.004280  
1521.000000	0.004350  
1520.000000	0.004433  
1519.000000	0.004455  
1518.000000	0.004438  
1517.000000	0.004448  
1516.000000	0.004516  
1515.000000	0.004653  
1514.000000	0.004875  
1513.000000	0.005148  
1512.000000	0.005370  
1511.000000	0.005475  
1510.000000	0.005530  
1509.000000	0.005676  
1508.000000	0.006024  
1507.000000	0.006576  
1506.000000	0.007118  
1505.000000	0.007430  
1504.000000	0.007502  
1503.000000	0.007430  
1502.000000	0.007348  
1501.000000	0.007301  
1500.000000	0.007286  
1499.000000	0.007345  
1498.000000	0.007670  
1497.000000	0.008292  
1496.000000	0.008851  
1495.000000	0.009083  
1494.000000	0.009151  
1493.000000	0.009227  
1492.000000	0.009253  
1491.000000	0.009185  
1490.000000	0.009241  
1489.000000	0.009589  
1488.000000	0.010060  
1487.000000	0.010470  
1486.000000	0.010859  
1485.000000	0.011321  
1484.000000	0.011850  
1483.000000	0.012451  
1482.000000	0.013247  
1481.000000	0.014277  
1480.000000	0.015385  
1479.000000	0.016493  
1478.000000	0.017803  
1477.000000	0.019514  
1476.000000	0.021547  
1475.000000	0.023928  
1474.000000	0.027387  
1473.000000	0.032839  
1472.000000	0.039812  
1471.000000	0.046855  
1470.000000	0.053381  
1469.000000	0.059412  
1468.000000	0.064763  
1467.000000	0.069265  
1466.000000	0.073056  
1465.000000	0.076272  
1464.000000	0.078699  
1463.000000	0.080303  
1462.000000	0.081449  
1461.000000	0.082437  
1460.000000	0.083352  
1459.000000	0.084270  
1458.000000	0.085224  
1457.000000	0.085511  
1456.000000	0.084327  
1455.000000	0.082139  
1454.000000	0.079650  
1453.000000	0.076942  
1452.000000	0.074052  
1451.000000	0.071241  
1450.000000	0.068695  
1449.000000	0.066188  
1448.000000	0.063431  
1447.000000	0.060492  
1446.000000	0.057527  
1445.000000	0.054434  
1444.000000	0.051072  
1443.000000	0.047532  
1442.000000	0.044060  
1441.000000	0.040872  
1440.000000	0.038045  
1439.000000	0.035447  
1438.000000	0.032756  
1437.000000	0.029812  
1436.000000	0.027050  
1435.000000	0.024933  
1434.000000	0.023255  
1433.000000	0.021578  
1432.000000	0.019768  
1431.000000	0.017981  
1430.000000	0.016392  
1429.000000	0.015057  
1428.000000	0.014010  
1427.000000	0.013243  
1426.000000	0.012630  
1425.000000	0.012049  
1424.000000	0.011523  
1423.000000	0.011128  
1422.000000	0.010813  
1421.000000	0.010440  
1420.000000	0.009992  
1419.000000	0.009612  
1418.000000	0.009376  
1417.000000	0.009214  
1416.000000	0.009087  
1415.000000	0.008994  
1414.000000	0.008891  
1413.000000	0.008733  
1412.000000	0.008538  
1411.000000	0.008354  
1410.000000	0.008191  
1409.000000	0.008045  
1408.000000	0.007945  
1407.000000	0.007923  
1406.000000	0.007949  
1405.000000	0.007984  
1404.000000	0.008059  
1403.000000	0.008204  
1402.000000	0.008356  
1401.000000	0.008420  
1400.000000	0.008408  
1399.000000	0.008404  
1398.000000	0.008450  
1397.000000	0.008552  
1396.000000	0.008756  
1395.000000	0.009109  
1394.000000	0.009570  
1393.000000	0.010078  
1392.000000	0.010644  
1391.000000	0.011330  
1390.000000	0.012216  
1389.000000	0.013481  
1388.000000	0.015390  
1387.000000	0.017978  
1386.000000	0.020885  
1385.000000	0.023794  
1384.000000	0.026760  
1383.000000	0.030030  
1382.000000	0.033774  
1381.000000	0.037963  
1380.000000	0.042255  
1379.000000	0.045917  
1378.000000	0.048111  
1377.000000	0.048398  
1376.000000	0.046802  
1375.000000	0.043611  
1374.000000	0.039483  
1373.000000	0.035371  
1372.000000	0.031955  
1371.000000	0.029393  
1370.000000	0.027652  
1369.000000	0.026687  
1368.000000	0.026287  
1367.000000	0.026010  
1366.000000	0.025400  
1365.000000	0.024203  
1364.000000	0.022428  
1363.000000	0.020365  
1362.000000	0.018474  
1361.000000	0.017071  
1360.000000	0.016154  
1359.000000	0.015536  
1358.000000	0.015063  
1357.000000	0.014695  
1356.000000	0.014466  
1355.000000	0.014393  
1354.000000	0.014407  
1353.000000	0.014399  
1352.000000	0.014317  
1351.000000	0.014189  
1350.000000	0.014058  
1349.000000	0.013939  
1348.000000	0.013806  
1347.000000	0.013626  
1346.000000	0.013409  
1345.000000	0.013221  
1344.000000	0.013127  
1343.000000	0.013108  
1342.000000	0.013078  
1341.000000	0.012973  
1340.000000	0.012806  
1339.000000	0.012608  
1338.000000	0.012379  
1337.000000	0.012105  
1336.000000	0.011803  
1335.000000	0.011507  
1334.000000	0.011230  
1333.000000	0.010975  
1332.000000	0.010755  
1331.000000	0.010581  
1330.000000	0.010422  
1329.000000	0.010236  
1328.000000	0.010034  
1327.000000	0.009865  
1326.000000	0.009756  
1325.000000	0.009698  
1324.000000	0.009683  
1323.000000	0.009706  
1322.000000	0.009754  
1321.000000	0.009806  
1320.000000	0.009849  
1319.000000	0.009885  
1318.000000	0.009915  
1317.000000	0.009938  
1316.000000	0.009966  
1315.000000	0.010031  
1314.000000	0.010149  
1313.000000	0.010301  
1312.000000	0.010451  
1311.000000	0.010578  
1310.000000	0.010686  
1309.000000	0.010794  
1308.000000	0.010906  
1307.000000	0.011008  
1306.000000	0.011081  
1305.000000	0.011111  
1304.000000	0.011098  
1303.000000	0.011047  
1302.000000	0.010973  
1301.000000	0.010904  
1300.000000	0.010864  
1299.000000	0.010851  
1298.000000	0.010832  
1297.000000	0.010783  
1296.000000	0.010692  
1295.000000	0.010550  
1294.000000	0.010340  
1293.000000	0.010079  
1292.000000	0.009827  
1291.000000	0.009653  
1290.000000	0.009573  
1289.000000	0.009544  
1288.000000	0.009519  
1287.000000	0.009492  
1286.000000	0.009481  
1285.000000	0.009491  
1284.000000	0.009501  
1283.000000	0.009493  
1282.000000	0.009479  
1281.000000	0.009483  
1280.000000	0.009513  
1279.000000	0.009544  
1278.000000	0.009554  
1277.000000	0.009555  
1276.000000	0.009577  
1275.000000	0.009633  
1274.000000	0.009709  
1273.000000	0.009792  
1272.000000	0.009872  
1271.000000	0.009925  
1270.000000	0.009926  
1269.000000	0.009879  
1268.000000	0.009810  
1267.000000	0.009726  
1266.000000	0.009609  
1265.000000	0.009459  
1264.000000	0.009322  
1263.000000	0.009257  
1262.000000	0.009275  
1261.000000	0.009336  
1260.000000	0.009386  
1259.000000	0.009391  
1258.000000	0.009348  
1257.000000	0.009278  
1256.000000	0.009204  
1255.000000	0.009139  
1254.000000	0.009101  
1253.000000	0.009127  
1252.000000	0.009245  
1251.000000	0.009409  
1250.000000	0.009522  
1249.000000	0.009538  
1248.000000	0.009516  
1247.000000	0.009541  
1246.000000	0.009616  
1245.000000	0.009674  
1244.000000	0.009667  
1243.000000	0.009613  
1242.000000	0.009549  
1241.000000	0.009490  
1240.000000	0.009432  
1239.000000	0.009376  
1238.000000	0.009320  
1237.000000	0.009255  
1236.000000	0.009176  
1235.000000	0.009088  
1234.000000	0.008983  
1233.000000	0.008846  
1232.000000	0.008682  
1231.000000	0.008515  
1230.000000	0.008359  
1229.000000	0.008211  
1228.000000	0.008077  
1227.000000	0.007994  
1226.000000	0.007978  
1225.000000	0.007998  
1224.000000	0.008005  
1223.000000	0.007990  
1222.000000	0.007965  
1221.000000	0.007927  
1220.000000	0.007857  
1219.000000	0.007778  
1218.000000	0.007752  
1217.000000	0.007820  
1216.000000	0.007948  
1215.000000	0.008056  
1214.000000	0.008085  
1213.000000	0.008032  
1212.000000	0.007946  
1211.000000	0.007898  
1210.000000	0.007940  
1209.000000	0.008042  
1208.000000	0.008115  
1207.000000	0.008107  
1206.000000	0.008070  
1205.000000	0.008089  
1204.000000	0.008162  
1203.000000	0.008207  
1202.000000	0.008186  
1201.000000	0.008159  
1200.000000	0.008212  
1199.000000	0.008351  
1198.000000	0.008518  
1197.000000	0.008667  
1196.000000	0.008796  
1195.000000	0.008925  
1194.000000	0.009084  
1193.000000	0.009298  
1192.000000	0.009545  
1191.000000	0.009744  
1190.000000	0.009836  
1189.000000	0.009858  
1188.000000	0.009913  
1187.000000	0.010052  
1186.000000	0.010236  
1185.000000	0.010399  
1184.000000	0.010535  
1183.000000	0.010683  
1182.000000	0.010879  
1181.000000	0.011126  
1180.000000	0.011387  
1179.000000	0.011611  
1178.000000	0.011780  
1177.000000	0.011928  
1176.000000	0.012105  
1175.000000	0.012315  
1174.000000	0.012516  
1173.000000	0.012675  
1172.000000	0.012793  
1171.000000	0.012882  
1170.000000	0.012929  
1169.000000	0.012906  
1168.000000	0.012796  
1167.000000	0.012613  
1166.000000	0.012407  
1165.000000	0.012227  
1164.000000	0.012072  
1163.000000	0.011886  
1162.000000	0.011649  
1161.000000	0.011431  
1160.000000	0.011329  
1159.000000	0.011342  
1158.000000	0.011363  
1157.000000	0.011299  
1156.000000	0.011149  
1155.000000	0.010948  
1154.000000	0.010704  
1153.000000	0.010422  
1152.000000	0.010147  
1151.000000	0.009936  
1150.000000	0.009813  
1149.000000	0.009764  
1148.000000	0.009762  
1147.000000	0.009769  
1146.000000	0.009731  
1145.000000	0.009612  
1144.000000	0.009416  
1143.000000	0.009175  
1142.000000	0.008927  
1141.000000	0.008699  
1140.000000	0.008496  
1139.000000	0.008306  
1138.000000	0.008130  
1137.000000	0.008014  
1136.000000	0.007999  
1135.000000	0.008031  
1134.000000	0.007999  
1133.000000	0.007862  
1132.000000	0.007702  
1131.000000	0.007613  
1130.000000	0.007602  
1129.000000	0.007624  
1128.000000	0.007670  
1127.000000	0.007746  
1126.000000	0.007819  
1125.000000	0.007851  
1124.000000	0.007858  
1123.000000	0.007883  
1122.000000	0.007923  
1121.000000	0.007937  
1120.000000	0.007914  
1119.000000	0.007881  
1118.000000	0.007849  
1117.000000	0.007816  
1116.000000	0.007795  
1115.000000	0.007796  
1114.000000	0.007788  
1113.000000	0.007732  
1112.000000	0.007645  
1111.000000	0.007580  
1110.000000	0.007528  
1109.000000	0.007424  
1108.000000	0.007260  
1107.000000	0.007129  
1106.000000	0.007113  
1105.000000	0.007182  
1104.000000	0.007232  
1103.000000	0.007213  
1102.000000	0.007178  
1101.000000	0.007207  
1100.000000	0.007323  
1099.000000	0.007472  
1098.000000	0.007575  
1097.000000	0.007623  
1096.000000	0.007678  
1095.000000	0.007796  
1094.000000	0.007948  
1093.000000	0.008055  
1092.000000	0.008088  
1091.000000	0.008073  
1090.000000	0.008014  
1089.000000	0.007868  
1088.000000	0.007632  
1087.000000	0.007395  
1086.000000	0.007263  
1085.000000	0.007258  
1084.000000	0.007307  
1083.000000	0.007318  
1082.000000	0.007251  
1081.000000	0.007140  
1080.000000	0.007074  
1079.000000	0.007130  
1078.000000	0.007303  
1077.000000	0.007525  
1076.000000	0.007750  
1075.000000	0.007991  
1074.000000	0.008259  
1073.000000	0.008503  
1072.000000	0.008644  
1071.000000	0.008658  
1070.000000	0.008595  
1069.000000	0.008527  
1068.000000	0.008488  
1067.000000	0.008468  
1066.000000	0.008436  
1065.000000	0.008377  
1064.000000	0.008322  
1063.000000	0.008319  
1062.000000	0.008358  
1061.000000	0.008365  
1060.000000	0.008275  
1059.000000	0.008114  
1058.000000	0.007977  
1057.000000	0.007941  
1056.000000	0.008022  
1055.000000	0.008174  
1054.000000	0.008292  
1053.000000	0.008235  
1052.000000	0.007932  
1051.000000	0.007507  
1050.000000	0.007227  
1049.000000	0.007259  
1048.000000	0.007510  
1047.000000	0.007747  
1046.000000	0.007821  
1045.000000	0.007759  
1044.000000	0.007684  
1043.000000	0.007714  
1042.000000	0.007889  
1041.000000	0.008151  
1040.000000	0.008372  
1039.000000	0.008442  
1038.000000	0.008347  
1037.000000	0.008167  
1036.000000	0.008014  
1035.000000	0.007971  
1034.000000	0.008079  
1033.000000	0.008312  
1032.000000	0.008565  
1031.000000	0.008706  
1030.000000	0.008685  
1029.000000	0.008570  
1028.000000	0.008474  
1027.000000	0.008454  
1026.000000	0.008491  
1025.000000	0.008535  
1024.000000	0.008535  
1023.000000	0.008459  
1022.000000	0.008321  
1021.000000	0.008171  
1020.000000	0.008049  
1019.000000	0.007949  
1018.000000	0.007863  
1017.000000	0.007834  
1016.000000	0.007924  
1015.000000	0.008114  
1014.000000	0.008285  
1013.000000	0.008318  
1012.000000	0.008196  
1011.000000	0.008017  
1010.000000	0.007894  
1009.000000	0.007878  
1008.000000	0.007932  
1007.000000	0.007986  
1006.000000	0.008003  
1005.000000	0.008004  
1004.000000	0.008030  
1003.000000	0.008096  
1002.000000	0.008181  
1001.000000	0.008245  
1000.000000	0.008242  
999.000000	 0.008119  
998.000000	 0.007874  
997.000000	 0.007603  
996.000000	 0.007456  
995.000000	 0.007513  
994.000000	 0.007708  
993.000000	 0.007892  
992.000000	 0.007957  
991.000000	 0.007900  
990.000000	 0.007812  
989.000000	 0.007806  
988.000000	 0.007927  
987.000000	 0.008102  
986.000000	 0.008209  
985.000000	 0.008205  
984.000000	 0.008171  
983.000000	 0.008201  
982.000000	 0.008292  
981.000000	 0.008375  
980.000000	 0.008424  
979.000000	 0.008485  
978.000000	 0.008602  
977.000000	 0.008759  
976.000000	 0.008903  
975.000000	 0.009006  
974.000000	 0.009077  
973.000000	 0.009149  
972.000000	 0.009250  
971.000000	 0.009386  
970.000000	 0.009534  
969.000000	 0.009667  
968.000000	 0.009771  
967.000000	 0.009830  
966.000000	 0.009819  
965.000000	 0.009721  
964.000000	 0.009564  
963.000000	 0.009414  
962.000000	 0.009326  
961.000000	 0.009311  
960.000000	 0.009341  
959.000000	 0.009357  
958.000000	 0.009311  
957.000000	 0.009205  
956.000000	 0.009098  
955.000000	 0.009049  
954.000000	 0.009055  
953.000000	 0.009063  
952.000000	 0.009050  
951.000000	 0.009047  
950.000000	 0.009077  
949.000000	 0.009119  
948.000000	 0.009138  
947.000000	 0.009153  
946.000000	 0.009215  
945.000000	 0.009336  
944.000000	 0.009462  
943.000000	 0.009528  
942.000000	 0.009522  
941.000000	 0.009474  
940.000000	 0.009396  
939.000000	 0.009258  
938.000000	 0.009038  
937.000000	 0.008780  
936.000000	 0.008568  
935.000000	 0.008445  
934.000000	 0.008397  
933.000000	 0.008404  
932.000000	 0.008473  
931.000000	 0.008575  
930.000000	 0.008616  
929.000000	 0.008523  
928.000000	 0.008356  
927.000000	 0.008269  
926.000000	 0.008352  
925.000000	 0.008542  
924.000000	 0.008713  
923.000000	 0.008809  
922.000000	 0.008848  
921.000000	 0.008852  
920.000000	 0.008805  
919.000000	 0.008705  
918.000000	 0.008601  
917.000000	 0.008563  
916.000000	 0.008615  
915.000000	 0.008702  
914.000000	 0.008727  
913.000000	 0.008624  
912.000000	 0.008408  
911.000000	 0.008179  
910.000000	 0.008066  
909.000000	 0.008137  
908.000000	 0.008335  
907.000000	 0.008500  
906.000000	 0.008493  
905.000000	 0.008329  
904.000000	 0.008175  
903.000000	 0.008191  
902.000000	 0.008366  
901.000000	 0.008551  
900.000000	 0.008635  
899.000000	 0.008657  
898.000000	 0.008721  
897.000000	 0.008857  
896.000000	 0.008984  
895.000000	 0.009024  
894.000000	 0.008998  
893.000000	 0.008998  
892.000000	 0.009084  
891.000000	 0.009237  
890.000000	 0.009388  
889.000000	 0.009475  
888.000000	 0.009468  
887.000000	 0.009375  
886.000000	 0.009227  
885.000000	 0.009069  
884.000000	 0.008929  
883.000000	 0.008805  
882.000000	 0.008696  
881.000000	 0.008637  
880.000000	 0.008680  
879.000000	 0.008819  
878.000000	 0.008955  
877.000000	 0.008975  
876.000000	 0.008859  
875.000000	 0.008684  
874.000000	 0.008530  
873.000000	 0.008398  
872.000000	 0.008238  
871.000000	 0.008047  
870.000000	 0.007932  
869.000000	 0.008024  
868.000000	 0.008315  
867.000000	 0.008607  
866.000000	 0.008677  
865.000000	 0.008497  
864.000000	 0.008251  
863.000000	 0.008120  
862.000000	 0.008129  
861.000000	 0.008208  
860.000000	 0.008332  
859.000000	 0.008491  
858.000000	 0.008609  
857.000000	 0.008589  
856.000000	 0.008472  
855.000000	 0.008435  
854.000000	 0.008607  
853.000000	 0.008952  
852.000000	 0.009356  
851.000000	 0.009751  
850.000000	 0.010092  
849.000000	 0.010294  
848.000000	 0.010273  
847.000000	 0.010062  
846.000000	 0.009800  
845.000000	 0.009608  
844.000000	 0.009500  
843.000000	 0.009421  
842.000000	 0.009327  
841.000000	 0.009230  
840.000000	 0.009173  
839.000000	 0.009194  
838.000000	 0.009279  
837.000000	 0.009346  
836.000000	 0.009277  
835.000000	 0.008996  
834.000000	 0.008539  
833.000000	 0.008069  
832.000000	 0.007780  
831.000000	 0.007756  
830.000000	 0.007906  
829.000000	 0.008071  
828.000000	 0.008207  
827.000000	 0.008415  
826.000000	 0.008763  
825.000000	 0.009140  
824.000000	 0.009356  
823.000000	 0.009346  
822.000000	 0.009222  
821.000000	 0.009148  
820.000000	 0.009250  
819.000000	 0.009580  
818.000000	 0.010094  
817.000000	 0.010630  
816.000000	 0.010997  
815.000000	 0.011091  
814.000000	 0.010949  
813.000000	 0.010692  
812.000000	 0.010453  
811.000000	 0.010351  
810.000000	 0.010458  
809.000000	 0.010765  
808.000000	 0.011181  
807.000000	 0.011581  
806.000000	 0.011849  
805.000000	 0.011900  
804.000000	 0.011709  
803.000000	 0.011335  
802.000000	 0.010894  
801.000000	 0.010478  
800.000000	 0.010107  
799.000000	 0.009750  
798.000000	 0.009387  
797.000000	 0.009043  
796.000000	 0.008764  
795.000000	 0.008567  
794.000000	 0.008418  
793.000000	 0.008290  
792.000000	 0.008228  
791.000000	 0.008322  
790.000000	 0.008569  
789.000000	 0.008817  
788.000000	 0.008907  
787.000000	 0.008874  
786.000000	 0.008924  
785.000000	 0.009197  
784.000000	 0.009608  
783.000000	 0.009980  
782.000000	 0.010264  
781.000000	 0.010559  
780.000000	 0.010945  
779.000000	 0.011364  
778.000000	 0.011718  
777.000000	 0.011999  
776.000000	 0.012285  
775.000000	 0.012636  
774.000000	 0.013024  
773.000000	 0.013377  
772.000000	 0.013647  
771.000000	 0.013836  
770.000000	 0.013978  
769.000000	 0.014111  
768.000000	 0.014242  
767.000000	 0.014320  
766.000000	 0.014242  
765.000000	 0.013930  
764.000000	 0.013435  
763.000000	 0.012956  
762.000000	 0.012707  
761.000000	 0.012747  
760.000000	 0.012936  
759.000000	 0.013092  
758.000000	 0.013160  
757.000000	 0.013228  
756.000000	 0.013391  
755.000000	 0.013647  
754.000000	 0.013916  
753.000000	 0.014118  
752.000000	 0.014214  
751.000000	 0.014203  
750.000000	 0.014130  
749.000000	 0.014092  
748.000000	 0.014222  
747.000000	 0.014654  
746.000000	 0.015485  
745.000000	 0.016738  
744.000000	 0.018289  
743.000000	 0.019853  
742.000000	 0.021061  
741.000000	 0.021658  
740.000000	 0.021654  
739.000000	 0.021288  
738.000000	 0.020822  
737.000000	 0.020366  
736.000000	 0.019902  
735.000000	 0.019433  
734.000000	 0.019087  
733.000000	 0.019019  
732.000000	 0.019254  
731.000000	 0.019650  
730.000000	 0.020068  
729.000000	 0.020546  
728.000000	 0.021266  
727.000000	 0.022315  
726.000000	 0.023564  
725.000000	 0.024771  
724.000000	 0.025780  
723.000000	 0.026556  
722.000000	 0.027017  
721.000000	 0.026872  
720.000000	 0.025777  
719.000000	 0.023762  
718.000000	 0.021348  
717.000000	 0.019170  
716.000000	 0.017572  
715.000000	 0.016499  
714.000000	 0.015664  
713.000000	 0.014837  
712.000000	 0.013991  
711.000000	 0.013239  
710.000000	 0.012695  
709.000000	 0.012410  
708.000000	 0.012352  
707.000000	 0.012440  
706.000000	 0.012637  
705.000000	 0.012983  
704.000000	 0.013463  
703.000000	 0.013904  
702.000000	 0.014098  
701.000000	 0.014044  
700.000000	 0.013972  
699.000000	 0.014009  
698.000000	 0.013937  
697.000000	 0.013417  
696.000000	 0.012454  
695.000000	 0.011506  
694.000000	 0.011000  
693.000000	 0.010837  
692.000000	 0.010512  
691.000000	 0.009704  
690.000000	 0.008640  
689.000000	 0.007802  
688.000000	 0.007335  
687.000000	 0.006943  
686.000000	 0.006372  
685.000000	 0.005776  
684.000000	 0.005487  
683.000000	 0.005594  
682.000000	 0.005891  
681.000000	 0.006129  
680.000000	 0.006182  
679.000000	 0.006055  
678.000000	 0.005875  
677.000000	 0.005866  
676.000000	 0.006031  
675.000000	 0.006108  
674.000000	 0.005922  
673.000000	 0.005573  
672.000000	 0.005054  
671.000000	 0.003813  
670.000000	 0.001148  
669.000000	 -0.003162 
668.000000	 -0.006782 
667.000000	 -0.005519 
666.000000	 -0.001247 
665.000000	 0.002111  
664.000000	 0.003975  
663.000000	 0.005024  
662.000000	 0.005701  
661.000000	 0.005970  
660.000000	 0.005872  
659.000000	 0.005745  
658.000000	 0.005769  
657.000000	 0.005664  
656.000000	 0.005017  
655.000000	 0.003956  
654.000000	 0.003160  
653.000000	 0.003101  
652.000000	 0.003550  
651.000000	 0.003963  
650.000000	 0.004128  

