PE IR                   SPECTRUM    ASCII       PEDS        1.60        
  -1
NB4-15~3.ASC
17/04/10
13:37:14.00
17/04/10
13:37:14.00
Admin

650.000000
6









SPECTRUM ONE,CPU32 MAIN 00.02.5000 17-APRIL-2002 13:00:00
MIR TGS
MIR
OPTKBR
68128
0.200000

4.000000
STRONG
RATIO
SPECTRUM
MAGNITUDE

DOUBLE

COMBINED


0


#HDR
-1
-1
#GR
CM-1
A
0.00000011920928955078
0.0
4000.000000
-1.000000
3351
8
0.211359
-0.015859
#DATA
4000.000000	0.001723  
3999.000000	0.001721  
3998.000000	0.001807  
3997.000000	0.001983  
3996.000000	0.002194  
3995.000000	0.002102  
3994.000000	0.002173  
3993.000000	0.002143  
3992.000000	0.002044  
3991.000000	0.001936  
3990.000000	0.001870  
3989.000000	0.001851  
3988.000000	0.001836  
3987.000000	0.001791  
3986.000000	0.001740  
3985.000000	0.001737  
3984.000000	0.001792  
3983.000000	0.001831  
3982.000000	0.001757  
3981.000000	0.001556  
3980.000000	0.001324  
3979.000000	0.001177  
3978.000000	0.001159  
3977.000000	0.001236  
3976.000000	0.001354  
3975.000000	0.001480  
3974.000000	0.001595  
3973.000000	0.001668  
3972.000000	0.001682  
3971.000000	0.001657  
3970.000000	0.001644  
3969.000000	0.001669  
3968.000000	0.001702  
3967.000000	0.001689  
3966.000000	0.001625  
3965.000000	0.001570  
3964.000000	0.001594  
3963.000000	0.001713  
3962.000000	0.001871  
3961.000000	0.001996  
3960.000000	0.002055  
3959.000000	0.002051  
3958.000000	0.001990  
3957.000000	0.001876  
3956.000000	0.001721  
3955.000000	0.001571  
3954.000000	0.001484  
3953.000000	0.001488  
3952.000000	0.001570  
3951.000000	0.001680  
3950.000000	0.001771  
3949.000000	0.001837  
3948.000000	0.001896  
3947.000000	0.001953  
3946.000000	0.001974  
3945.000000	0.001919  
3944.000000	0.001792  
3943.000000	0.001652  
3942.000000	0.001560  
3941.000000	0.001534  
3940.000000	0.001575  
3939.000000	0.001693  
3938.000000	0.001883  
3937.000000	0.002092  
3936.000000	0.002235  
3935.000000	0.002256  
3934.000000	0.002177  
3933.000000	0.002069  
3932.000000	0.001988  
3931.000000	0.001933  
3930.000000	0.001881  
3929.000000	0.001832  
3928.000000	0.001817  
3927.000000	0.001866  
3926.000000	0.001985  
3925.000000	0.002151  
3924.000000	0.002329  
3923.000000	0.002494  
3922.000000	0.002635  
3921.000000	0.002740  
3920.000000	0.002782  
3919.000000	0.002733  
3918.000000	0.002595  
3917.000000	0.002406  
3916.000000	0.002227  
3915.000000	0.002105  
3914.000000	0.002049  
3913.000000	0.002023  
3912.000000	0.001979  
3911.000000	0.001901  
3910.000000	0.001830  
3909.000000	0.001829  
3908.000000	0.001924  
3907.000000	0.002083  
3906.000000	0.002253  
3905.000000	0.002412  
3904.000000	0.002559  
3903.000000	0.002627  
3902.000000	0.002531  
3901.000000	0.002295  
3900.000000	0.002080  
3899.000000	0.002027  
3898.000000	0.002112  
3897.000000	0.002206  
3896.000000	0.002217  
3895.000000	0.002144  
3894.000000	0.002048  
3893.000000	0.001994  
3892.000000	0.002022  
3891.000000	0.002104  
3890.000000	0.002183  
3889.000000	0.002238  
3888.000000	0.002263  
3887.000000	0.002228  
3886.000000	0.002127  
3885.000000	0.001999  
3884.000000	0.001877  
3883.000000	0.001769  
3882.000000	0.001683  
3881.000000	0.001658  
3880.000000	0.001712  
3879.000000	0.001813  
3878.000000	0.001933  
3877.000000	0.002071  
3876.000000	0.002216  
3875.000000	0.002374  
3874.000000	0.002573  
3873.000000	0.002794  
3872.000000	0.002959  
3871.000000	0.003010  
3870.000000	0.002981  
3869.000000	0.002934  
3868.000000	0.002889  
3867.000000	0.002841  
3866.000000	0.002764  
3865.000000	0.002642  
3864.000000	0.002517  
3863.000000	0.002444  
3862.000000	0.002427  
3861.000000	0.002413  
3860.000000	0.002347  
3859.000000	0.002229  
3858.000000	0.002127  
3857.000000	0.002117  
3856.000000	0.002175  
3855.000000	0.002114  
3854.000000	0.001916  
3853.000000	0.001813  
3852.000000	0.001865  
3851.000000	0.001997  
3850.000000	0.002179  
3849.000000	0.002393  
3848.000000	0.002628  
3847.000000	0.002869  
3846.000000	0.003097  
3845.000000	0.003313  
3844.000000	0.003520  
3843.000000	0.003684  
3842.000000	0.003744  
3841.000000	0.003666  
3840.000000	0.003487  
3839.000000	0.003285  
3838.000000	0.003117  
3837.000000	0.003011  
3836.000000	0.002985  
3835.000000	0.003037  
3834.000000	0.003123  
3833.000000	0.003160  
3832.000000	0.003080  
3831.000000	0.002893  
3830.000000	0.002683  
3829.000000	0.002522  
3828.000000	0.002411  
3827.000000	0.002326  
3826.000000	0.002298  
3825.000000	0.002416  
3824.000000	0.002734  
3823.000000	0.003155  
3822.000000	0.003481  
3821.000000	0.003554  
3820.000000	0.003293  
3819.000000	0.002740  
3818.000000	0.002097  
3817.000000	0.001637  
3816.000000	0.001542  
3815.000000	0.001751  
3814.000000	0.002037  
3813.000000	0.002234  
3812.000000	0.002293  
3811.000000	0.002241  
3810.000000	0.002126  
3809.000000	0.001994  
3808.000000	0.001920  
3807.000000	0.001988  
3806.000000	0.002195  
3805.000000	0.002447  
3804.000000	0.002623  
3803.000000	0.002631  
3802.000000	0.002501  
3801.000000	0.002361  
3800.000000	0.002281  
3799.000000	0.002267  
3798.000000	0.002313  
3797.000000	0.002420  
3796.000000	0.002568  
3795.000000	0.002698  
3794.000000	0.002747  
3793.000000	0.002687  
3792.000000	0.002528  
3791.000000	0.002323  
3790.000000	0.002147  
3789.000000	0.002050  
3788.000000	0.002027  
3787.000000	0.002037  
3786.000000	0.002043  
3785.000000	0.002037  
3784.000000	0.002017  
3783.000000	0.001972  
3782.000000	0.001889  
3781.000000	0.001791  
3780.000000	0.001745  
3779.000000	0.001800  
3778.000000	0.001917  
3777.000000	0.002024  
3776.000000	0.002094  
3775.000000	0.002147  
3774.000000	0.002210  
3773.000000	0.002285  
3772.000000	0.002363  
3771.000000	0.002470  
3770.000000	0.002656  
3769.000000	0.002893  
3768.000000	0.003041  
3767.000000	0.002965  
3766.000000	0.002659  
3765.000000	0.002281  
3764.000000	0.002026  
3763.000000	0.001983  
3762.000000	0.002104  
3761.000000	0.002271  
3760.000000	0.002416  
3759.000000	0.002559  
3758.000000	0.002715  
3757.000000	0.002841  
3756.000000	0.002888  
3755.000000	0.002896  
3754.000000	0.003022  
3753.000000	0.003431  
3752.000000	0.004075  
3751.000000	0.004596  
3750.000000	0.004644  
3749.000000	0.004285  
3748.000000	0.003863  
3747.000000	0.003644  
3746.000000	0.003670  
3745.000000	0.003787  
3744.000000	0.003795  
3743.000000	0.003668  
3742.000000	0.003553  
3741.000000	0.003585  
3740.000000	0.003825  
3739.000000	0.004252  
3738.000000	0.004719  
3737.000000	0.005000  
3736.000000	0.004973  
3735.000000	0.004736  
3734.000000	0.004490  
3733.000000	0.004339  
3732.000000	0.004252  
3731.000000	0.004185  
3730.000000	0.004150  
3729.000000	0.004159  
3728.000000	0.004176  
3727.000000	0.004152  
3726.000000	0.004082  
3725.000000	0.003995  
3724.000000	0.003892  
3723.000000	0.003724  
3722.000000	0.003440  
3721.000000	0.003046  
3720.000000	0.002618  
3719.000000	0.002265  
3718.000000	0.002074  
3717.000000	0.002061  
3716.000000	0.002165  
3715.000000	0.002291  
3714.000000	0.002374  
3713.000000	0.002442  
3712.000000	0.002604  
3711.000000	0.002879  
3710.000000	0.003108  
3709.000000	0.003178  
3708.000000	0.003168  
3707.000000	0.003236  
3706.000000	0.003420  
3705.000000	0.003571  
3704.000000	0.003478  
3703.000000	0.003082  
3702.000000	0.002581  
3701.000000	0.002238  
3700.000000	0.002144  
3699.000000	0.002226  
3698.000000	0.002377  
3697.000000	0.002528  
3696.000000	0.002672  
3695.000000	0.002841  
3694.000000	0.003045  
3693.000000	0.003213  
3692.000000	0.003218  
3691.000000	0.003010  
3690.000000	0.002712  
3689.000000	0.002504  
3688.000000	0.002415  
3687.000000	0.002381  
3686.000000	0.002364  
3685.000000	0.002367  
3684.000000	0.002416  
3683.000000	0.002501  
3682.000000	0.002555  
3681.000000	0.002528  
3680.000000	0.002457  
3679.000000	0.002443  
3678.000000	0.002560  
3677.000000	0.002789  
3676.000000	0.003092  
3675.000000	0.003362  
3674.000000	0.003449  
3673.000000	0.003363  
3672.000000	0.003251  
3671.000000	0.003224  
3670.000000	0.003315  
3669.000000	0.003415  
3668.000000	0.003355  
3667.000000	0.003101  
3666.000000	0.002742  
3665.000000	0.002357  
3664.000000	0.001974  
3663.000000	0.001590  
3662.000000	0.001228  
3661.000000	0.000952  
3660.000000	0.000836  
3659.000000	0.000926  
3658.000000	0.001226  
3657.000000	0.001694  
3656.000000	0.002229  
3655.000000	0.002703  
3654.000000	0.003036  
3653.000000	0.003183  
3652.000000	0.003107  
3651.000000	0.002856  
3650.000000	0.002633  
3649.000000	0.002604  
3648.000000	0.002708  
3647.000000	0.002805  
3646.000000	0.002821  
3645.000000	0.002756  
3644.000000	0.002664  
3643.000000	0.002627  
3642.000000	0.002700  
3641.000000	0.002852  
3640.000000	0.002980  
3639.000000	0.003009  
3638.000000	0.002960  
3637.000000	0.002927  
3636.000000	0.002985  
3635.000000	0.003133  
3634.000000	0.003309  
3633.000000	0.003442  
3632.000000	0.003502  
3631.000000	0.003509  
3630.000000	0.003541  
3629.000000	0.003685  
3628.000000	0.003822  
3627.000000	0.003766  
3626.000000	0.003560  
3625.000000	0.003365  
3624.000000	0.003268  
3623.000000	0.003225  
3622.000000	0.003114  
3621.000000	0.002861  
3620.000000	0.002564  
3619.000000	0.002405  
3618.000000	0.002415  
3617.000000	0.002474  
3616.000000	0.002487  
3615.000000	0.002467  
3614.000000	0.002518  
3613.000000	0.002743  
3612.000000	0.003133  
3611.000000	0.003569  
3610.000000	0.003885  
3609.000000	0.003946  
3608.000000	0.003745  
3607.000000	0.003396  
3606.000000	0.003034  
3605.000000	0.002742  
3604.000000	0.002553  
3603.000000	0.002487  
3602.000000	0.002571  
3601.000000	0.002812  
3600.000000	0.003154  
3599.000000	0.003473  
3598.000000	0.003644  
3597.000000	0.003604  
3596.000000	0.003393  
3595.000000	0.003143  
3594.000000	0.002979  
3593.000000	0.002926  
3592.000000	0.002922  
3591.000000	0.002888  
3590.000000	0.002797  
3589.000000	0.002700  
3588.000000	0.002717  
3587.000000	0.002873  
3586.000000	0.003036  
3585.000000	0.003086  
3584.000000	0.003013  
3583.000000	0.002868  
3582.000000	0.002705  
3581.000000	0.002575  
3580.000000	0.002514  
3579.000000	0.002501  
3578.000000	0.002467  
3577.000000	0.002367  
3576.000000	0.002243  
3575.000000	0.002164  
3574.000000	0.002135  
3573.000000	0.002087  
3572.000000	0.001994  
3571.000000	0.001938  
3570.000000	0.002053  
3569.000000	0.002366  
3568.000000	0.002722  
3567.000000	0.002900  
3566.000000	0.002832  
3565.000000	0.002646  
3564.000000	0.002491  
3563.000000	0.002399  
3562.000000	0.002330  
3561.000000	0.002279  
3560.000000	0.002304  
3559.000000	0.002451  
3558.000000	0.002670  
3557.000000	0.002828  
3556.000000	0.002807  
3555.000000	0.002585  
3554.000000	0.002250  
3553.000000	0.001961  
3552.000000	0.001844  
3551.000000	0.001899  
3550.000000	0.002006  
3549.000000	0.002016  
3548.000000	0.001878  
3547.000000	0.001698  
3546.000000	0.001666  
3545.000000	0.001868  
3544.000000	0.002209  
3543.000000	0.002530  
3542.000000	0.002761  
3541.000000	0.002923  
3540.000000	0.003036  
3539.000000	0.003046  
3538.000000	0.002886  
3537.000000	0.002581  
3536.000000	0.002277  
3535.000000	0.002129  
3534.000000	0.002181  
3533.000000	0.002354  
3532.000000	0.002526  
3531.000000	0.002623  
3530.000000	0.002637  
3529.000000	0.002600  
3528.000000	0.002539  
3527.000000	0.002448  
3526.000000	0.002311  
3525.000000	0.002134  
3524.000000	0.001970  
3523.000000	0.001900  
3522.000000	0.001966  
3521.000000	0.002137  
3520.000000	0.002333  
3519.000000	0.002500  
3518.000000	0.002627  
3517.000000	0.002731  
3516.000000	0.002826  
3515.000000	0.002920  
3514.000000	0.003007  
3513.000000	0.003047  
3512.000000	0.002989  
3511.000000	0.002832  
3510.000000	0.002654  
3509.000000	0.002542  
3508.000000	0.002504  
3507.000000	0.002480  
3506.000000	0.002437  
3505.000000	0.002403  
3504.000000	0.002429  
3503.000000	0.002520  
3502.000000	0.002624  
3501.000000	0.002687  
3500.000000	0.002697  
3499.000000	0.002682  
3498.000000	0.002692  
3497.000000	0.002743  
3496.000000	0.002798  
3495.000000	0.002794  
3494.000000	0.002705  
3493.000000	0.002551  
3492.000000	0.002365  
3491.000000	0.002178  
3490.000000	0.002034  
3489.000000	0.001998  
3488.000000	0.002112  
3487.000000	0.002355  
3486.000000	0.002659  
3485.000000	0.002947  
3484.000000	0.003136  
3483.000000	0.003143  
3482.000000	0.002949  
3481.000000	0.002649  
3480.000000	0.002407  
3479.000000	0.002342  
3478.000000	0.002452  
3477.000000	0.002646  
3476.000000	0.002820  
3475.000000	0.002922  
3474.000000	0.002949  
3473.000000	0.002908  
3472.000000	0.002786  
3471.000000	0.002579  
3470.000000	0.002335  
3469.000000	0.002156  
3468.000000	0.002119  
3467.000000	0.002218  
3466.000000	0.002375  
3465.000000	0.002493  
3464.000000	0.002506  
3463.000000	0.002411  
3462.000000	0.002277  
3461.000000	0.002209  
3460.000000	0.002264  
3459.000000	0.002405  
3458.000000	0.002548  
3457.000000	0.002645  
3456.000000	0.002703  
3455.000000	0.002744  
3454.000000	0.002781  
3453.000000	0.002835  
3452.000000	0.002925  
3451.000000	0.003027  
3450.000000	0.003076  
3449.000000	0.003038  
3448.000000	0.002966  
3447.000000	0.002953  
3446.000000	0.003040  
3445.000000	0.003189  
3444.000000	0.003320  
3443.000000	0.003370  
3442.000000	0.003337  
3441.000000	0.003294  
3440.000000	0.003335  
3439.000000	0.003482  
3438.000000	0.003640  
3437.000000	0.003662  
3436.000000	0.003470  
3435.000000	0.003127  
3434.000000	0.002797  
3433.000000	0.002634  
3432.000000	0.002679  
3431.000000	0.002848  
3430.000000	0.003007  
3429.000000	0.003056  
3428.000000	0.002960  
3427.000000	0.002750  
3426.000000	0.002510  
3425.000000	0.002347  
3424.000000	0.002320  
3423.000000	0.002384  
3422.000000	0.002450  
3421.000000	0.002484  
3420.000000	0.002532  
3419.000000	0.002630  
3418.000000	0.002747  
3417.000000	0.002826  
3416.000000	0.002852  
3415.000000	0.002851  
3414.000000	0.002868  
3413.000000	0.002951  
3412.000000	0.003128  
3411.000000	0.003359  
3410.000000	0.003535  
3409.000000	0.003539  
3408.000000	0.003337  
3407.000000	0.003009  
3406.000000	0.002695  
3405.000000	0.002517  
3404.000000	0.002510  
3403.000000	0.002623  
3402.000000	0.002782  
3401.000000	0.002940  
3400.000000	0.003069  
3399.000000	0.003132  
3398.000000	0.003108  
3397.000000	0.003058  
3396.000000	0.003107  
3395.000000	0.003320  
3394.000000	0.003615  
3393.000000	0.003825  
3392.000000	0.003837  
3391.000000	0.003668  
3390.000000	0.003424  
3389.000000	0.003219  
3388.000000	0.003107  
3387.000000	0.003065  
3386.000000	0.003032  
3385.000000	0.002992  
3384.000000	0.002998  
3383.000000	0.003100  
3382.000000	0.003274  
3381.000000	0.003432  
3380.000000	0.003498  
3379.000000	0.003443  
3378.000000	0.003260  
3377.000000	0.002974  
3376.000000	0.002679  
3375.000000	0.002512  
3374.000000	0.002561  
3373.000000	0.002778  
3372.000000	0.003030  
3371.000000	0.003218  
3370.000000	0.003355  
3369.000000	0.003506  
3368.000000	0.003682  
3367.000000	0.003806  
3366.000000	0.003810  
3365.000000	0.003726  
3364.000000	0.003662  
3363.000000	0.003669  
3362.000000	0.003700  
3361.000000	0.003691  
3360.000000	0.003647  
3359.000000	0.003600  
3358.000000	0.003536  
3357.000000	0.003424  
3356.000000	0.003299  
3355.000000	0.003235  
3354.000000	0.003248  
3353.000000	0.003267  
3352.000000	0.003225  
3351.000000	0.003130  
3350.000000	0.003030  
3349.000000	0.002969  
3348.000000	0.002989  
3347.000000	0.003132  
3346.000000	0.003377  
3345.000000	0.003611  
3344.000000	0.003700  
3343.000000	0.003612  
3342.000000	0.003441  
3341.000000	0.003299  
3340.000000	0.003214  
3339.000000	0.003136  
3338.000000	0.003031  
3337.000000	0.002941  
3336.000000	0.002944  
3335.000000	0.003057  
3334.000000	0.003202  
3333.000000	0.003291  
3332.000000	0.003315  
3331.000000	0.003335  
3330.000000	0.003396  
3329.000000	0.003489  
3328.000000	0.003576  
3327.000000	0.003620  
3326.000000	0.003588  
3325.000000	0.003473  
3324.000000	0.003331  
3323.000000	0.003258  
3322.000000	0.003301  
3321.000000	0.003397  
3320.000000	0.003459  
3319.000000	0.003478  
3318.000000	0.003515  
3317.000000	0.003598  
3316.000000	0.003668  
3315.000000	0.003641  
3314.000000	0.003500  
3313.000000	0.003307  
3312.000000	0.003154  
3311.000000	0.003118  
3310.000000	0.003210  
3309.000000	0.003353  
3308.000000	0.003411  
3307.000000	0.003298  
3306.000000	0.003075  
3305.000000	0.002916  
3304.000000	0.002960  
3303.000000	0.003183  
3302.000000	0.003438  
3301.000000	0.003594  
3300.000000	0.003623  
3299.000000	0.003566  
3298.000000	0.003474  
3297.000000	0.003387  
3296.000000	0.003350  
3295.000000	0.003374  
3294.000000	0.003426  
3293.000000	0.003472  
3292.000000	0.003531  
3291.000000	0.003632  
3290.000000	0.003742  
3289.000000	0.003764  
3288.000000	0.003645  
3287.000000	0.003433  
3286.000000	0.003227  
3285.000000	0.003084  
3284.000000	0.003011  
3283.000000	0.002997  
3282.000000	0.003034  
3281.000000	0.003102  
3280.000000	0.003170  
3279.000000	0.003220  
3278.000000	0.003253  
3277.000000	0.003282  
3276.000000	0.003322  
3275.000000	0.003395  
3274.000000	0.003514  
3273.000000	0.003658  
3272.000000	0.003777  
3271.000000	0.003812  
3270.000000	0.003739  
3269.000000	0.003574  
3268.000000	0.003360  
3267.000000	0.003140  
3266.000000	0.002960  
3265.000000	0.002874  
3264.000000	0.002922  
3263.000000	0.003095  
3262.000000	0.003326  
3261.000000	0.003544  
3260.000000	0.003722  
3259.000000	0.003856  
3258.000000	0.003921  
3257.000000	0.003876  
3256.000000	0.003716  
3255.000000	0.003512  
3254.000000	0.003375  
3253.000000	0.003387  
3252.000000	0.003534  
3251.000000	0.003695  
3250.000000	0.003732  
3249.000000	0.003624  
3248.000000	0.003490  
3247.000000	0.003453  
3246.000000	0.003494  
3245.000000	0.003503  
3244.000000	0.003430  
3243.000000	0.003349  
3242.000000	0.003331  
3241.000000	0.003362  
3240.000000	0.003374  
3239.000000	0.003329  
3238.000000	0.003221  
3237.000000	0.003064  
3236.000000	0.002909  
3235.000000	0.002824  
3234.000000	0.002833  
3233.000000	0.002895  
3232.000000	0.002981  
3231.000000	0.003103  
3230.000000	0.003251  
3229.000000	0.003350  
3228.000000	0.003348  
3227.000000	0.003302  
3226.000000	0.003310  
3225.000000	0.003387  
3224.000000	0.003470  
3223.000000	0.003508  
3222.000000	0.003501  
3221.000000	0.003445  
3220.000000	0.003340  
3219.000000	0.003236  
3218.000000	0.003210  
3217.000000	0.003278  
3216.000000	0.003373  
3215.000000	0.003431  
3214.000000	0.003450  
3213.000000	0.003464  
3212.000000	0.003489  
3211.000000	0.003527  
3210.000000	0.003579  
3209.000000	0.003638  
3208.000000	0.003691  
3207.000000	0.003740  
3206.000000	0.003796  
3205.000000	0.003859  
3204.000000	0.003921  
3203.000000	0.003986  
3202.000000	0.004056  
3201.000000	0.004083  
3200.000000	0.003993  
3199.000000	0.003759  
3198.000000	0.003443  
3197.000000	0.003133  
3196.000000	0.002874  
3195.000000	0.002687  
3194.000000	0.002598  
3193.000000	0.002629  
3192.000000	0.002769  
3191.000000	0.002991  
3190.000000	0.003277  
3189.000000	0.003590  
3188.000000	0.003841  
3187.000000	0.003937  
3186.000000	0.003880  
3185.000000	0.003765  
3184.000000	0.003677  
3183.000000	0.003614  
3182.000000	0.003523  
3181.000000	0.003398  
3180.000000	0.003287  
3179.000000	0.003221  
3178.000000	0.003182  
3177.000000	0.003154  
3176.000000	0.003178  
3175.000000	0.003303  
3174.000000	0.003484  
3173.000000	0.003589  
3172.000000	0.003539  
3171.000000	0.003400  
3170.000000	0.003324  
3169.000000	0.003395  
3168.000000	0.003556  
3167.000000	0.003670  
3166.000000	0.003643  
3165.000000	0.003495  
3164.000000	0.003331  
3163.000000	0.003254  
3162.000000	0.003282  
3161.000000	0.003352  
3160.000000	0.003401  
3159.000000	0.003430  
3158.000000	0.003487  
3157.000000	0.003600  
3156.000000	0.003747  
3155.000000	0.003872  
3154.000000	0.003939  
3153.000000	0.003952  
3152.000000	0.003944  
3151.000000	0.003920  
3150.000000	0.003843  
3149.000000	0.003677  
3148.000000	0.003453  
3147.000000	0.003257  
3146.000000	0.003140  
3145.000000	0.003084  
3144.000000	0.003051  
3143.000000	0.003039  
3142.000000	0.003055  
3141.000000	0.003074  
3140.000000	0.003088  
3139.000000	0.003145  
3138.000000	0.003300  
3137.000000	0.003517  
3136.000000	0.003675  
3135.000000	0.003681  
3134.000000	0.003548  
3133.000000	0.003374  
3132.000000	0.003262  
3131.000000	0.003270  
3130.000000	0.003378  
3129.000000	0.003504  
3128.000000	0.003563  
3127.000000	0.003533  
3126.000000	0.003453  
3125.000000	0.003371  
3124.000000	0.003326  
3123.000000	0.003358  
3122.000000	0.003480  
3121.000000	0.003641  
3120.000000	0.003741  
3119.000000	0.003720  
3118.000000	0.003604  
3117.000000	0.003466  
3116.000000	0.003366  
3115.000000	0.003331  
3114.000000	0.003355  
3113.000000	0.003399  
3112.000000	0.003422  
3111.000000	0.003430  
3110.000000	0.003467  
3109.000000	0.003545  
3108.000000	0.003612  
3107.000000	0.003598  
3106.000000	0.003492  
3105.000000	0.003354  
3104.000000	0.003264  
3103.000000	0.003276  
3102.000000	0.003385  
3101.000000	0.003518  
3100.000000	0.003568  
3099.000000	0.003473  
3098.000000	0.003271  
3097.000000	0.003079  
3096.000000	0.003015  
3095.000000	0.003112  
3094.000000	0.003302  
3093.000000	0.003471  
3092.000000	0.003545  
3091.000000	0.003545  
3090.000000	0.003538  
3089.000000	0.003553  
3088.000000	0.003567  
3087.000000	0.003567  
3086.000000	0.003585  
3085.000000	0.003642  
3084.000000	0.003696  
3083.000000	0.003695  
3082.000000	0.003655  
3081.000000	0.003666  
3080.000000	0.003797  
3079.000000	0.004015  
3078.000000	0.004217  
3077.000000	0.004316  
3076.000000	0.004303  
3075.000000	0.004223  
3074.000000	0.004124  
3073.000000	0.004027  
3072.000000	0.003952  
3071.000000	0.003933  
3070.000000	0.003989  
3069.000000	0.004084  
3068.000000	0.004150  
3067.000000	0.004156  
3066.000000	0.004153  
3065.000000	0.004225  
3064.000000	0.004406  
3063.000000	0.004648  
3062.000000	0.004854  
3061.000000	0.004942  
3060.000000	0.004896  
3059.000000	0.004777  
3058.000000	0.004667  
3057.000000	0.004593  
3056.000000	0.004527  
3055.000000	0.004454  
3054.000000	0.004404  
3053.000000	0.004404  
3052.000000	0.004433  
3051.000000	0.004457  
3050.000000	0.004487  
3049.000000	0.004572  
3048.000000	0.004720  
3047.000000	0.004878  
3046.000000	0.004983  
3045.000000	0.005016  
3044.000000	0.004991  
3043.000000	0.004933  
3042.000000	0.004873  
3041.000000	0.004855  
3040.000000	0.004906  
3039.000000	0.005014  
3038.000000	0.005133  
3037.000000	0.005224  
3036.000000	0.005280  
3035.000000	0.005319  
3034.000000	0.005361  
3033.000000	0.005408  
3032.000000	0.005465  
3031.000000	0.005550  
3030.000000	0.005686  
3029.000000	0.005864  
3028.000000	0.006044  
3027.000000	0.006197  
3026.000000	0.006329  
3025.000000	0.006468  
3024.000000	0.006645  
3023.000000	0.006886  
3022.000000	0.007191  
3021.000000	0.007513  
3020.000000	0.007781  
3019.000000	0.007977  
3018.000000	0.008165  
3017.000000	0.008429  
3016.000000	0.008780  
3015.000000	0.009159  
3014.000000	0.009509  
3013.000000	0.009804  
3012.000000	0.010018  
3011.000000	0.010121  
3010.000000	0.010131  
3009.000000	0.010125  
3008.000000	0.010174  
3007.000000	0.010277  
3006.000000	0.010361  
3005.000000	0.010349  
3004.000000	0.010204  
3003.000000	0.009954  
3002.000000	0.009702  
3001.000000	0.009583  
3000.000000	0.009683  
2999.000000	0.009961  
2998.000000	0.010270  
2997.000000	0.010472  
2996.000000	0.010542  
2995.000000	0.010570  
2994.000000	0.010691  
2993.000000	0.010995  
2992.000000	0.011486  
2991.000000	0.012090  
2990.000000	0.012714  
2989.000000	0.013295  
2988.000000	0.013845  
2987.000000	0.014444  
2986.000000	0.015180  
2985.000000	0.016086  
2984.000000	0.017117  
2983.000000	0.018214  
2982.000000	0.019373  
2981.000000	0.020656  
2980.000000	0.022127  
2979.000000	0.023796  
2978.000000	0.025651  
2977.000000	0.027724  
2976.000000	0.030109  
2975.000000	0.032901  
2974.000000	0.036120  
2973.000000	0.039709  
2972.000000	0.043576  
2971.000000	0.047666  
2970.000000	0.052002  
2969.000000	0.056673  
2968.000000	0.061760  
2967.000000	0.067211  
2966.000000	0.072821  
2965.000000	0.078346  
2964.000000	0.083654  
2963.000000	0.088748  
2962.000000	0.093655  
2961.000000	0.098333  
2960.000000	0.102687  
2959.000000	0.106608  
2958.000000	0.109954  
2957.000000	0.112551  
2956.000000	0.114271  
2955.000000	0.115102  
2954.000000	0.115119  
2953.000000	0.114405  
2952.000000	0.113033  
2951.000000	0.111118  
2950.000000	0.108860  
2949.000000	0.106521  
2948.000000	0.104348  
2947.000000	0.102520  
2946.000000	0.101160  
2945.000000	0.100409  
2944.000000	0.100442  
2943.000000	0.101403  
2942.000000	0.103315  
2941.000000	0.106082  
2940.000000	0.109603  
2939.000000	0.113863  
2938.000000	0.118904  
2937.000000	0.124698  
2936.000000	0.131080  
2935.000000	0.137795  
2934.000000	0.144640  
2933.000000	0.151557  
2932.000000	0.158618  
2931.000000	0.165893  
2930.000000	0.173337  
2929.000000	0.180779  
2928.000000	0.187982  
2927.000000	0.194664  
2926.000000	0.200503  
2925.000000	0.205219  
2924.000000	0.208655  
2923.000000	0.210732  
2922.000000	0.211359  
2921.000000	0.210489  
2920.000000	0.208244  
2919.000000	0.204890  
2918.000000	0.200680  
2917.000000	0.195797  
2916.000000	0.190455  
2915.000000	0.184917  
2914.000000	0.179387  
2913.000000	0.173939  
2912.000000	0.168605  
2911.000000	0.163483  
2910.000000	0.158699  
2909.000000	0.154269  
2908.000000	0.150061  
2907.000000	0.145895  
2906.000000	0.141670  
2905.000000	0.137423  
2904.000000	0.133274  
2903.000000	0.129337  
2902.000000	0.125634  
2901.000000	0.122098  
2900.000000	0.118627  
2899.000000	0.115140  
2898.000000	0.111618  
2897.000000	0.108107  
2896.000000	0.104688  
2895.000000	0.101429  
2894.000000	0.098320  
2893.000000	0.095277  
2892.000000	0.092205  
2891.000000	0.089074  
2890.000000	0.085951  
2889.000000	0.082976  
2888.000000	0.080298  
2887.000000	0.078017  
2886.000000	0.076156  
2885.000000	0.074691  
2884.000000	0.073624  
2883.000000	0.073007  
2882.000000	0.072911  
2881.000000	0.073363  
2880.000000	0.074376  
2879.000000	0.075998  
2878.000000	0.078292  
2877.000000	0.081225  
2876.000000	0.084581  
2875.000000	0.087998  
2874.000000	0.091103  
2873.000000	0.093613  
2872.000000	0.095377  
2871.000000	0.096392  
2870.000000	0.096798  
2869.000000	0.096851  
2868.000000	0.096845  
2867.000000	0.097046  
2866.000000	0.097669  
2865.000000	0.098899  
2864.000000	0.100875  
2863.000000	0.103630  
2862.000000	0.107061  
2861.000000	0.110989  
2860.000000	0.115253  
2859.000000	0.119737  
2858.000000	0.124298  
2857.000000	0.128665  
2856.000000	0.132414  
2855.000000	0.135025  
2854.000000	0.136037  
2853.000000	0.135198  
2852.000000	0.132557  
2851.000000	0.128391  
2850.000000	0.123048  
2849.000000	0.116845  
2848.000000	0.110064  
2847.000000	0.102989  
2846.000000	0.095909  
2845.000000	0.089049  
2844.000000	0.082493  
2843.000000	0.076197  
2842.000000	0.070104  
2841.000000	0.064248  
2840.000000	0.058740  
2839.000000	0.053681  
2838.000000	0.049108  
2837.000000	0.045015  
2836.000000	0.041367  
2835.000000	0.038085  
2834.000000	0.035074  
2833.000000	0.032287  
2832.000000	0.029771  
2831.000000	0.027615  
2830.000000	0.025857  
2829.000000	0.024433  
2828.000000	0.023215  
2827.000000	0.022087  
2826.000000	0.020993  
2825.000000	0.019935  
2824.000000	0.018946  
2823.000000	0.018059  
2822.000000	0.017298  
2821.000000	0.016671  
2820.000000	0.016151  
2819.000000	0.015677  
2818.000000	0.015191  
2817.000000	0.014675  
2816.000000	0.014156  
2815.000000	0.013660  
2814.000000	0.013186  
2813.000000	0.012717  
2812.000000	0.012252  
2811.000000	0.011824  
2810.000000	0.011472  
2809.000000	0.011214  
2808.000000	0.011032  
2807.000000	0.010890  
2806.000000	0.010748  
2805.000000	0.010573  
2804.000000	0.010350  
2803.000000	0.010080  
2802.000000	0.009781  
2801.000000	0.009496  
2800.000000	0.009268  
2799.000000	0.009116  
2798.000000	0.009022  
2797.000000	0.008943  
2796.000000	0.008857  
2795.000000	0.008766  
2794.000000	0.008655  
2793.000000	0.008475  
2792.000000	0.008189  
2791.000000	0.007839  
2790.000000	0.007536  
2789.000000	0.007373  
2788.000000	0.007345  
2787.000000	0.007367  
2786.000000	0.007354  
2785.000000	0.007273  
2784.000000	0.007138  
2783.000000	0.006985  
2782.000000	0.006854  
2781.000000	0.006789  
2780.000000	0.006805  
2779.000000	0.006873  
2778.000000	0.006915  
2777.000000	0.006852  
2776.000000	0.006655  
2775.000000	0.006386  
2774.000000	0.006161  
2773.000000	0.006071  
2772.000000	0.006108  
2771.000000	0.006182  
2770.000000	0.006196  
2769.000000	0.006119  
2768.000000	0.005966  
2767.000000	0.005771  
2766.000000	0.005578  
2765.000000	0.005454  
2764.000000	0.005450  
2763.000000	0.005547  
2762.000000	0.005648  
2761.000000	0.005659  
2760.000000	0.005573  
2759.000000	0.005457  
2758.000000	0.005379  
2757.000000	0.005351  
2756.000000	0.005348  
2755.000000	0.005348  
2754.000000	0.005344  
2753.000000	0.005329  
2752.000000	0.005291  
2751.000000	0.005241  
2750.000000	0.005212  
2749.000000	0.005230  
2748.000000	0.005277  
2747.000000	0.005295  
2746.000000	0.005255  
2745.000000	0.005193  
2744.000000	0.005170  
2743.000000	0.005206  
2742.000000	0.005257  
2741.000000	0.005272  
2740.000000	0.005256  
2739.000000	0.005251  
2738.000000	0.005295  
2737.000000	0.005389  
2736.000000	0.005507  
2735.000000	0.005623  
2734.000000	0.005719  
2733.000000	0.005784  
2732.000000	0.005813  
2731.000000	0.005806  
2730.000000	0.005780  
2729.000000	0.005770  
2728.000000	0.005807  
2727.000000	0.005878  
2726.000000	0.005917  
2725.000000	0.005871  
2724.000000	0.005761  
2723.000000	0.005661  
2722.000000	0.005609  
2721.000000	0.005588  
2720.000000	0.005571  
2719.000000	0.005566  
2718.000000	0.005574  
2717.000000	0.005567  
2716.000000	0.005514  
2715.000000	0.005424  
2714.000000	0.005319  
2713.000000	0.005195  
2712.000000	0.005041  
2711.000000	0.004898  
2710.000000	0.004826  
2709.000000	0.004837  
2708.000000	0.004870  
2707.000000	0.004863  
2706.000000	0.004811  
2705.000000	0.004733  
2704.000000	0.004634  
2703.000000	0.004522  
2702.000000	0.004429  
2701.000000	0.004383  
2700.000000	0.004364  
2699.000000	0.004336  
2698.000000	0.004307  
2697.000000	0.004325  
2696.000000	0.004411  
2695.000000	0.004525  
2694.000000	0.004613  
2693.000000	0.004643  
2692.000000	0.004613  
2691.000000	0.004548  
2690.000000	0.004519  
2689.000000	0.004617  
2688.000000	0.004860  
2687.000000	0.005136  
2686.000000	0.005284  
2685.000000	0.005247  
2684.000000	0.005117  
2683.000000	0.005034  
2682.000000	0.005045  
2681.000000	0.005096  
2680.000000	0.005111  
2679.000000	0.005069  
2678.000000	0.005004  
2677.000000	0.004978  
2676.000000	0.005029  
2675.000000	0.005137  
2674.000000	0.005235  
2673.000000	0.005264  
2672.000000	0.005224  
2671.000000	0.005155  
2670.000000	0.005084  
2669.000000	0.005023  
2668.000000	0.005001  
2667.000000	0.005057  
2666.000000	0.005189  
2665.000000	0.005337  
2664.000000	0.005428  
2663.000000	0.005421  
2662.000000	0.005305  
2661.000000	0.005095  
2660.000000	0.004848  
2659.000000	0.004646  
2658.000000	0.004537  
2657.000000	0.004496  
2656.000000	0.004480  
2655.000000	0.004482  
2654.000000	0.004502  
2653.000000	0.004500  
2652.000000	0.004439  
2651.000000	0.004362  
2650.000000	0.004358  
2649.000000	0.004448  
2648.000000	0.004555  
2647.000000	0.004586  
2646.000000	0.004526  
2645.000000	0.004423  
2644.000000	0.004339  
2643.000000	0.004323  
2642.000000	0.004394  
2641.000000	0.004513  
2640.000000	0.004587  
2639.000000	0.004539  
2638.000000	0.004371  
2637.000000	0.004147  
2636.000000	0.003960  
2635.000000	0.003901  
2634.000000	0.004008  
2633.000000	0.004222  
2632.000000	0.004407  
2631.000000	0.004464  
2630.000000	0.004406  
2629.000000	0.004307  
2628.000000	0.004230  
2627.000000	0.004209  
2626.000000	0.004263  
2625.000000	0.004352  
2624.000000	0.004378  
2623.000000	0.004274  
2622.000000	0.004093  
2621.000000	0.003961  
2620.000000	0.003926  
2619.000000	0.003924  
2618.000000	0.003886  
2617.000000	0.003826  
2616.000000	0.003799  
2615.000000	0.003821  
2614.000000	0.003862  
2613.000000	0.003898  
2612.000000	0.003937  
2611.000000	0.003990  
2610.000000	0.004054  
2609.000000	0.004105  
2608.000000	0.004122  
2607.000000	0.004110  
2606.000000	0.004095  
2605.000000	0.004087  
2604.000000	0.004050  
2603.000000	0.003955  
2602.000000	0.003851  
2601.000000	0.003835  
2600.000000	0.003937  
2599.000000	0.004054  
2598.000000	0.004048  
2597.000000	0.003895  
2596.000000	0.003709  
2595.000000	0.003610  
2594.000000	0.003584  
2593.000000	0.003509  
2592.000000	0.003315  
2591.000000	0.003080  
2590.000000	0.002952  
2589.000000	0.002982  
2588.000000	0.003099  
2587.000000	0.003219  
2586.000000	0.003336  
2585.000000	0.003466  
2584.000000	0.003559  
2583.000000	0.003531  
2582.000000	0.003374  
2581.000000	0.003181  
2580.000000	0.003062  
2579.000000	0.003083  
2578.000000	0.003240  
2577.000000	0.003453  
2576.000000	0.003584  
2575.000000	0.003522  
2574.000000	0.003294  
2573.000000	0.003045  
2572.000000	0.002904  
2571.000000	0.002871  
2570.000000	0.002864  
2569.000000	0.002837  
2568.000000	0.002801  
2567.000000	0.002779  
2566.000000	0.002775  
2565.000000	0.002783  
2564.000000	0.002804  
2563.000000	0.002835  
2562.000000	0.002868  
2561.000000	0.002898  
2560.000000	0.002913  
2559.000000	0.002897  
2558.000000	0.002859  
2557.000000	0.002845  
2556.000000	0.002895  
2555.000000	0.002975  
2554.000000	0.003006  
2553.000000	0.002958  
2552.000000	0.002916  
2551.000000	0.002998  
2550.000000	0.003226  
2549.000000	0.003492  
2548.000000	0.003653  
2547.000000	0.003625  
2546.000000	0.003407  
2545.000000	0.003065  
2544.000000	0.002726  
2543.000000	0.002530  
2542.000000	0.002536  
2541.000000	0.002653  
2540.000000	0.002732  
2539.000000	0.002725  
2538.000000	0.002707  
2537.000000	0.002745  
2536.000000	0.002788  
2535.000000	0.002749  
2534.000000	0.002626  
2533.000000	0.002505  
2532.000000	0.002446  
2531.000000	0.002420  
2530.000000	0.002369  
2529.000000	0.002288  
2528.000000	0.002243  
2527.000000	0.002312  
2526.000000	0.002516  
2525.000000	0.002779  
2524.000000	0.002994  
2523.000000	0.003103  
2522.000000	0.003121  
2521.000000	0.003068  
2520.000000	0.002928  
2519.000000	0.002725  
2518.000000	0.002574  
2517.000000	0.002603  
2516.000000	0.002802  
2515.000000	0.003028  
2514.000000	0.003138  
2513.000000	0.003096  
2512.000000	0.002941  
2511.000000	0.002725  
2510.000000	0.002502  
2509.000000	0.002339  
2508.000000	0.002286  
2507.000000	0.002348  
2506.000000	0.002486  
2505.000000	0.002626  
2504.000000	0.002679  
2503.000000	0.002607  
2502.000000	0.002488  
2501.000000	0.002472  
2500.000000	0.002625  
2499.000000	0.002832  
2498.000000	0.002875  
2497.000000	0.002630  
2496.000000	0.002164  
2495.000000	0.001689  
2494.000000	0.001422  
2493.000000	0.001463  
2492.000000	0.001763  
2491.000000	0.002173  
2490.000000	0.002551  
2489.000000	0.002815  
2488.000000	0.002938  
2487.000000	0.002905  
2486.000000	0.002718  
2485.000000	0.002423  
2484.000000	0.002111  
2483.000000	0.001898  
2482.000000	0.001877  
2481.000000	0.002073  
2480.000000	0.002427  
2479.000000	0.002808  
2478.000000	0.003082  
2477.000000	0.003178  
2476.000000	0.003110  
2475.000000	0.002931  
2474.000000	0.002687  
2473.000000	0.002409  
2472.000000	0.002144  
2471.000000	0.001956  
2470.000000	0.001882  
2469.000000	0.001903  
2468.000000	0.001989  
2467.000000	0.002156  
2466.000000	0.002405  
2465.000000	0.002634  
2464.000000	0.002681  
2463.000000	0.002505  
2462.000000	0.002262  
2461.000000	0.002140  
2460.000000	0.002175  
2459.000000	0.002289  
2458.000000	0.002440  
2457.000000	0.002633  
2456.000000	0.002795  
2455.000000	0.002788  
2454.000000	0.002575  
2453.000000	0.002293  
2452.000000	0.002084  
2451.000000	0.001954  
2450.000000	0.001838  
2449.000000	0.001751  
2448.000000	0.001771  
2447.000000	0.001915  
2446.000000	0.002110  
2445.000000	0.002282  
2444.000000	0.002411  
2443.000000	0.002503  
2442.000000	0.002560  
2441.000000	0.002586  
2440.000000	0.002579  
2439.000000	0.002533  
2438.000000	0.002463  
2437.000000	0.002425  
2436.000000	0.002447  
2435.000000	0.002453  
2434.000000	0.002327  
2433.000000	0.002074  
2432.000000	0.001849  
2431.000000	0.001799  
2430.000000	0.001915  
2429.000000	0.002079  
2428.000000	0.002214  
2427.000000	0.002330  
2426.000000	0.002444  
2425.000000	0.002516  
2424.000000	0.002496  
2423.000000	0.002394  
2422.000000	0.002280  
2421.000000	0.002211  
2420.000000	0.002194  
2419.000000	0.002201  
2418.000000	0.002212  
2417.000000	0.002231  
2416.000000	0.002271  
2415.000000	0.002333  
2414.000000	0.002406  
2413.000000	0.002477  
2412.000000	0.002542  
2411.000000	0.002599  
2410.000000	0.002647  
2409.000000	0.002686  
2408.000000	0.002711  
2407.000000	0.002702  
2406.000000	0.002614  
2405.000000	0.002422  
2404.000000	0.002172  
2403.000000	0.001971  
2402.000000	0.001899  
2401.000000	0.001945  
2400.000000	0.002044  
2399.000000	0.002161  
2398.000000	0.002298  
2397.000000	0.002435  
2396.000000	0.002518  
2395.000000	0.002530  
2394.000000	0.002535  
2393.000000	0.002622  
2392.000000	0.002807  
2391.000000	0.003028  
2390.000000	0.003217  
2389.000000	0.003363  
2388.000000	0.003527  
2387.000000	0.003806  
2386.000000	0.004286  
2385.000000	0.004944  
2384.000000	0.005588  
2383.000000	0.005927  
2382.000000	0.005732  
2381.000000	0.004994  
2380.000000	0.003947  
2379.000000	0.002936  
2378.000000	0.002206  
2377.000000	0.001778  
2376.000000	0.001553  
2375.000000	0.001521  
2374.000000	0.001804  
2373.000000	0.002472  
2372.000000	0.003406  
2371.000000	0.004383  
2370.000000	0.005217  
2369.000000	0.005724  
2368.000000	0.005743  
2367.000000	0.005378  
2366.000000	0.005025  
2365.000000	0.004905  
2364.000000	0.004765  
2363.000000	0.004354  
2362.000000	0.003833  
2361.000000	0.003656  
2360.000000	0.004236  
2359.000000	0.005303  
2358.000000	0.006063  
2357.000000	0.005883  
2356.000000	0.004943  
2355.000000	0.004063  
2354.000000	0.003627  
2353.000000	0.003589  
2352.000000	0.003766  
2351.000000	0.004043  
2350.000000	0.004377  
2349.000000	0.004505  
2348.000000	0.004343  
2347.000000	0.003951  
2346.000000	0.003870  
2345.000000	0.004611  
2344.000000	0.005802  
2343.000000	0.006618  
2342.000000	0.006283  
2341.000000	0.005105  
2340.000000	0.004003  
2339.000000	0.003423  
2338.000000	0.002997  
2337.000000	0.002339  
2336.000000	0.001609  
2335.000000	0.001190  
2334.000000	0.001068  
2333.000000	0.001165  
2332.000000	0.001592  
2331.000000	0.002508  
2330.000000	0.003827  
2329.000000	0.005022  
2328.000000	0.005913  
2327.000000	0.006422  
2326.000000	0.006599  
2325.000000	0.006465  
2324.000000	0.005985  
2323.000000	0.005337  
2322.000000	0.004633  
2321.000000	0.004231  
2320.000000	0.004376  
2319.000000	0.005055  
2318.000000	0.005819  
2317.000000	0.006151  
2316.000000	0.005915  
2315.000000	0.005407  
2314.000000	0.005115  
2313.000000	0.005275  
2312.000000	0.005794  
2311.000000	0.006364  
2310.000000	0.006795  
2309.000000	0.007064  
2308.000000	0.007211  
2307.000000	0.007211  
2306.000000	0.007023  
2305.000000	0.006744  
2304.000000	0.006545  
2303.000000	0.006523  
2302.000000	0.006572  
2301.000000	0.006514  
2300.000000	0.006300  
2299.000000	0.006055  
2298.000000	0.005963  
2297.000000	0.006042  
2296.000000	0.006145  
2295.000000	0.006076  
2294.000000	0.005797  
2293.000000	0.005425  
2292.000000	0.005093  
2291.000000	0.004825  
2290.000000	0.004560  
2289.000000	0.004257  
2288.000000	0.003893  
2287.000000	0.003437  
2286.000000	0.002888  
2285.000000	0.002370  
2284.000000	0.002075  
2283.000000	0.002106  
2282.000000	0.002360  
2281.000000	0.002653  
2280.000000	0.002890  
2279.000000	0.003097  
2278.000000	0.003293  
2277.000000	0.003431  
2276.000000	0.003493  
2275.000000	0.003583  
2274.000000	0.003840  
2273.000000	0.004250  
2272.000000	0.004617  
2271.000000	0.004752  
2270.000000	0.004634  
2269.000000	0.004346  
2268.000000	0.003917  
2267.000000	0.003334  
2266.000000	0.002710  
2265.000000	0.002308  
2264.000000	0.002307  
2263.000000	0.002607  
2262.000000	0.002949  
2261.000000	0.003177  
2260.000000	0.003289  
2259.000000	0.003322  
2258.000000	0.003290  
2257.000000	0.003261  
2256.000000	0.003333  
2255.000000	0.003495  
2254.000000	0.003597  
2253.000000	0.003537  
2252.000000	0.003385  
2251.000000	0.003270  
2250.000000	0.003191  
2249.000000	0.003025  
2248.000000	0.002682  
2247.000000	0.002211  
2246.000000	0.001756  
2245.000000	0.001468  
2244.000000	0.001432  
2243.000000	0.001645  
2242.000000	0.002009  
2241.000000	0.002388  
2240.000000	0.002661  
2239.000000	0.002746  
2238.000000	0.002617  
2237.000000	0.002328  
2236.000000	0.002006  
2235.000000	0.001786  
2234.000000	0.001736  
2233.000000	0.001841  
2232.000000	0.002024  
2231.000000	0.002187  
2230.000000	0.002257  
2229.000000	0.002227  
2228.000000	0.002152  
2227.000000	0.002077  
2226.000000	0.001981  
2225.000000	0.001797  
2224.000000	0.001488  
2223.000000	0.001107  
2222.000000	0.000821  
2221.000000	0.000844  
2220.000000	0.001260  
2219.000000	0.001883  
2218.000000	0.002371  
2217.000000	0.002563  
2216.000000	0.002626  
2215.000000	0.002796  
2214.000000	0.003040  
2213.000000	0.003106  
2212.000000	0.002902  
2211.000000	0.002646  
2210.000000	0.002553  
2209.000000	0.002517  
2208.000000	0.002257  
2207.000000	0.001748  
2206.000000	0.001326  
2205.000000	0.001337  
2204.000000	0.001791  
2203.000000	0.002427  
2202.000000	0.003022  
2201.000000	0.003497  
2200.000000	0.003817  
2199.000000	0.003936  
2198.000000	0.003874  
2197.000000	0.003735  
2196.000000	0.003563  
2195.000000	0.003273  
2194.000000	0.002782  
2193.000000	0.002184  
2192.000000	0.001678  
2191.000000	0.001357  
2190.000000	0.001158  
2189.000000	0.001034  
2188.000000	0.001061  
2187.000000	0.001317  
2186.000000	0.001717  
2185.000000	0.002047  
2184.000000	0.002159  
2183.000000	0.002127  
2182.000000	0.002193  
2181.000000	0.002552  
2180.000000	0.003146  
2179.000000	0.003665  
2178.000000	0.003816  
2177.000000	0.003619  
2176.000000	0.003370  
2175.000000	0.003261  
2174.000000	0.003136  
2173.000000	0.002748  
2172.000000	0.002179  
2171.000000	0.001824  
2170.000000	0.001919  
2169.000000	0.002230  
2168.000000	0.002342  
2167.000000	0.002198  
2166.000000	0.002191  
2165.000000	0.002661  
2164.000000	0.003399  
2163.000000	0.003796  
2162.000000	0.003465  
2161.000000	0.002645  
2160.000000	0.001957  
2159.000000	0.001789  
2158.000000	0.002008  
2157.000000	0.002256  
2156.000000	0.002344  
2155.000000	0.002308  
2154.000000	0.002261  
2153.000000	0.002323  
2152.000000	0.002556  
2151.000000	0.002882  
2150.000000	0.003074  
2149.000000	0.002936  
2148.000000	0.002516  
2147.000000	0.002092  
2146.000000	0.001943  
2145.000000	0.002158  
2144.000000	0.002618  
2143.000000	0.003074  
2142.000000	0.003236  
2141.000000	0.002930  
2140.000000	0.002257  
2139.000000	0.001585  
2138.000000	0.001310  
2137.000000	0.001558  
2136.000000	0.002093  
2135.000000	0.002512  
2134.000000	0.002560  
2133.000000	0.002310  
2132.000000	0.002065  
2131.000000	0.002069  
2130.000000	0.002298  
2129.000000	0.002544  
2128.000000	0.002648  
2127.000000	0.002607  
2126.000000	0.002456  
2125.000000	0.002184  
2124.000000	0.001833  
2123.000000	0.001601  
2122.000000	0.001711  
2121.000000	0.002155  
2120.000000	0.002656  
2119.000000	0.002916  
2118.000000	0.002871  
2117.000000	0.002700  
2116.000000	0.002637  
2115.000000	0.002780  
2114.000000	0.003012  
2113.000000	0.003088  
2112.000000	0.002854  
2111.000000	0.002437  
2110.000000	0.002158  
2109.000000	0.002210  
2108.000000	0.002445  
2107.000000	0.002549  
2106.000000	0.002376  
2105.000000	0.002047  
2104.000000	0.001755  
2103.000000	0.001580  
2102.000000	0.001498  
2101.000000	0.001471  
2100.000000	0.001445  
2099.000000	0.001351  
2098.000000	0.001176  
2097.000000	0.001019  
2096.000000	0.001002  
2095.000000	0.001146  
2094.000000	0.001365  
2093.000000	0.001578  
2092.000000	0.001768  
2091.000000	0.001920  
2090.000000	0.001976  
2089.000000	0.001914  
2088.000000	0.001841  
2087.000000	0.001926  
2086.000000	0.002212  
2085.000000	0.002526  
2084.000000	0.002618  
2083.000000	0.002406  
2082.000000	0.002048  
2081.000000	0.001799  
2080.000000	0.001817  
2079.000000	0.002078  
2078.000000	0.002417  
2077.000000	0.002628  
2076.000000	0.002610  
2075.000000	0.002460  
2074.000000	0.002389  
2073.000000	0.002495  
2072.000000	0.002666  
2071.000000	0.002745  
2070.000000	0.002738  
2069.000000	0.002741  
2068.000000	0.002739  
2067.000000	0.002620  
2066.000000	0.002396  
2065.000000	0.002271  
2064.000000	0.002400  
2063.000000	0.002695  
2062.000000	0.002947  
2061.000000	0.003038  
2060.000000	0.002967  
2059.000000	0.002771  
2058.000000	0.002528  
2057.000000	0.002360  
2056.000000	0.002303  
2055.000000	0.002220  
2054.000000	0.001969  
2053.000000	0.001624  
2052.000000	0.001397  
2051.000000	0.001378  
2050.000000	0.001514  
2049.000000	0.001834  
2048.000000	0.002455  
2047.000000	0.003255  
2046.000000	0.003740  
2045.000000	0.003489  
2044.000000	0.002637  
2043.000000	0.001752  
2042.000000	0.001267  
2041.000000	0.001223  
2040.000000	0.001475  
2039.000000	0.001919  
2038.000000	0.002399  
2037.000000	0.002629  
2036.000000	0.002440  
2035.000000	0.002060  
2034.000000	0.001948  
2033.000000	0.002300  
2032.000000	0.002827  
2031.000000	0.003062  
2030.000000	0.002794  
2029.000000	0.002190  
2028.000000	0.001575  
2027.000000	0.001155  
2026.000000	0.000906  
2025.000000	0.000699  
2024.000000	0.000516  
2023.000000	0.000541  
2022.000000	0.000987  
2021.000000	0.001772  
2020.000000	0.002457  
2019.000000	0.002594  
2018.000000	0.002121  
2017.000000	0.001380  
2016.000000	0.000761  
2015.000000	0.000434  
2014.000000	0.000460  
2013.000000	0.000885  
2012.000000	0.001552  
2011.000000	0.001982  
2010.000000	0.001712  
2009.000000	0.000814  
2008.000000	-0.000097 
2007.000000	-0.000471 
2006.000000	-0.000287 
2005.000000	0.000117  
2004.000000	0.000510  
2003.000000	0.000910  
2002.000000	0.001432  
2001.000000	0.002091  
2000.000000	0.002712  
1999.000000	0.002967  
1998.000000	0.002610  
1997.000000	0.001803  
1996.000000	0.001092  
1995.000000	0.000933  
1994.000000	0.001298  
1993.000000	0.001800  
1992.000000	0.002121  
1991.000000	0.002213  
1990.000000	0.002136  
1989.000000	0.001971  
1988.000000	0.001903  
1987.000000	0.002122  
1986.000000	0.002554  
1985.000000	0.002899  
1984.000000	0.003012  
1983.000000	0.003052  
1982.000000	0.003138  
1981.000000	0.003113  
1980.000000	0.002844  
1979.000000	0.002558  
1978.000000	0.002554  
1977.000000	0.002679  
1976.000000	0.002486  
1975.000000	0.001904  
1974.000000	0.001335  
1973.000000	0.001084  
1972.000000	0.001033  
1971.000000	0.000954  
1970.000000	0.000840  
1969.000000	0.000791  
1968.000000	0.000819  
1967.000000	0.000919  
1966.000000	0.001167  
1965.000000	0.001561  
1964.000000	0.001903  
1963.000000	0.001992  
1962.000000	0.001843  
1961.000000	0.001648  
1960.000000	0.001590  
1959.000000	0.001752  
1958.000000	0.002082  
1957.000000	0.002340  
1956.000000	0.002228  
1955.000000	0.001700  
1954.000000	0.001098  
1953.000000	0.000854  
1952.000000	0.001109  
1951.000000	0.001702  
1950.000000	0.002383  
1949.000000	0.002910  
1948.000000	0.003055  
1947.000000	0.002756  
1946.000000	0.002252  
1945.000000	0.001908  
1944.000000	0.001861  
1943.000000	0.001943  
1942.000000	0.001953  
1941.000000	0.001893  
1940.000000	0.001845  
1939.000000	0.001841  
1938.000000	0.001918  
1937.000000	0.002147  
1936.000000	0.002509  
1935.000000	0.002837  
1934.000000	0.002970  
1933.000000	0.002924  
1932.000000	0.002842  
1931.000000	0.002815  
1930.000000	0.002814  
1929.000000	0.002762  
1928.000000	0.002628  
1927.000000	0.002427  
1926.000000	0.002217  
1925.000000	0.002072  
1924.000000	0.002035  
1923.000000	0.002087  
1922.000000	0.002194  
1921.000000	0.002348  
1920.000000	0.002524  
1919.000000	0.002625  
1918.000000	0.002576  
1917.000000	0.002466  
1916.000000	0.002444  
1915.000000	0.002475  
1914.000000	0.002378  
1913.000000	0.002087  
1912.000000	0.001775  
1911.000000	0.001677  
1910.000000	0.001825  
1909.000000	0.002038  
1908.000000	0.002149  
1907.000000	0.002142  
1906.000000	0.002071  
1905.000000	0.001992  
1904.000000	0.001962  
1903.000000	0.002032  
1902.000000	0.002197  
1901.000000	0.002385  
1900.000000	0.002509  
1899.000000	0.002525  
1898.000000	0.002449  
1897.000000	0.002340  
1896.000000	0.002275  
1895.000000	0.002303  
1894.000000	0.002419  
1893.000000	0.002589  
1892.000000	0.002767  
1891.000000	0.002895  
1890.000000	0.002925  
1889.000000	0.002876  
1888.000000	0.002822  
1887.000000	0.002777  
1886.000000	0.002694  
1885.000000	0.002576  
1884.000000	0.002492  
1883.000000	0.002465  
1882.000000	0.002422  
1881.000000	0.002306  
1880.000000	0.002173  
1879.000000	0.002102  
1878.000000	0.002087  
1877.000000	0.002090  
1876.000000	0.002149  
1875.000000	0.002328  
1874.000000	0.002578  
1873.000000	0.002767  
1872.000000	0.002820  
1871.000000	0.002775  
1870.000000	0.002671  
1869.000000	0.002502  
1868.000000	0.002337  
1867.000000	0.002297  
1866.000000	0.002390  
1865.000000	0.002517  
1864.000000	0.002614  
1863.000000	0.002683  
1862.000000	0.002718  
1861.000000	0.002666  
1860.000000	0.002524  
1859.000000	0.002393  
1858.000000	0.002386  
1857.000000	0.002507  
1856.000000	0.002644  
1855.000000	0.002661  
1854.000000	0.002508  
1853.000000	0.002272  
1852.000000	0.002119  
1851.000000	0.002138  
1850.000000	0.002234  
1849.000000	0.002215  
1848.000000	0.002025  
1847.000000	0.001829  
1846.000000	0.001832  
1845.000000	0.002059  
1844.000000	0.002325  
1843.000000	0.002448  
1842.000000	0.002420  
1841.000000	0.002332  
1840.000000	0.002269  
1839.000000	0.002289  
1838.000000	0.002397  
1837.000000	0.002524  
1836.000000	0.002579  
1835.000000	0.002534  
1834.000000	0.002425  
1833.000000	0.002279  
1832.000000	0.002096  
1831.000000	0.001939  
1830.000000	0.001936  
1829.000000	0.002121  
1828.000000	0.002364  
1827.000000	0.002530  
1826.000000	0.002580  
1825.000000	0.002529  
1824.000000	0.002444  
1823.000000	0.002428  
1822.000000	0.002520  
1821.000000	0.002623  
1820.000000	0.002588  
1819.000000	0.002393  
1818.000000	0.002204  
1817.000000	0.002184  
1816.000000	0.002321  
1815.000000	0.002480  
1814.000000	0.002556  
1813.000000	0.002530  
1812.000000	0.002448  
1811.000000	0.002412  
1810.000000	0.002509  
1809.000000	0.002713  
1808.000000	0.002913  
1807.000000	0.003020  
1806.000000	0.003009  
1805.000000	0.002914  
1804.000000	0.002804  
1803.000000	0.002751  
1802.000000	0.002786  
1801.000000	0.002871  
1800.000000	0.002961  
1799.000000	0.003041  
1798.000000	0.003090  
1797.000000	0.003082  
1796.000000	0.003040  
1795.000000	0.003020  
1794.000000	0.003052  
1793.000000	0.003083  
1792.000000	0.003036  
1791.000000	0.002937  
1790.000000	0.002876  
1789.000000	0.002879  
1788.000000	0.002916  
1787.000000	0.002957  
1786.000000	0.002984  
1785.000000	0.002989  
1784.000000	0.002966  
1783.000000	0.002923  
1782.000000	0.002904  
1781.000000	0.002973  
1780.000000	0.003153  
1779.000000	0.003379  
1778.000000	0.003545  
1777.000000	0.003588  
1776.000000	0.003528  
1775.000000	0.003431  
1774.000000	0.003365  
1773.000000	0.003351  
1772.000000	0.003336  
1771.000000	0.003286  
1770.000000	0.003261  
1769.000000	0.003334  
1768.000000	0.003489  
1767.000000	0.003639  
1766.000000	0.003733  
1765.000000	0.003804  
1764.000000	0.003917  
1763.000000	0.004112  
1762.000000	0.004399  
1761.000000	0.004741  
1760.000000	0.005066  
1759.000000	0.005336  
1758.000000	0.005605  
1757.000000	0.005964  
1756.000000	0.006415  
1755.000000	0.006892  
1754.000000	0.007451  
1753.000000	0.008318  
1752.000000	0.009705  
1751.000000	0.011578  
1750.000000	0.013811  
1749.000000	0.016494  
1748.000000	0.019705  
1747.000000	0.023272  
1746.000000	0.026984  
1745.000000	0.030691  
1744.000000	0.034041  
1743.000000	0.036487  
1742.000000	0.037688  
1741.000000	0.037563  
1740.000000	0.036065  
1739.000000	0.033511  
1738.000000	0.030662  
1737.000000	0.027931  
1736.000000	0.025079  
1735.000000	0.021646  
1734.000000	0.018008  
1733.000000	0.015232  
1732.000000	0.013467  
1731.000000	0.012199  
1730.000000	0.011187  
1729.000000	0.010414  
1728.000000	0.009829  
1727.000000	0.009333  
1726.000000	0.008872  
1725.000000	0.008445  
1724.000000	0.008030  
1723.000000	0.007602  
1722.000000	0.007174  
1721.000000	0.006767  
1720.000000	0.006378  
1719.000000	0.006027  
1718.000000	0.005763  
1717.000000	0.005537  
1716.000000	0.005320  
1715.000000	0.005186  
1714.000000	0.005141  
1713.000000	0.005111  
1712.000000	0.005022  
1711.000000	0.004856  
1710.000000	0.004652  
1709.000000	0.004451  
1708.000000	0.004283  
1707.000000	0.004198  
1706.000000	0.004215  
1705.000000	0.004268  
1704.000000	0.004332  
1703.000000	0.004471  
1702.000000	0.004730  
1701.000000	0.004895  
1700.000000	0.004729  
1699.000000	0.004437  
1698.000000	0.004284  
1697.000000	0.004235  
1696.000000	0.004189  
1695.000000	0.004167  
1694.000000	0.004160  
1693.000000	0.004100  
1692.000000	0.003982  
1691.000000	0.003858  
1690.000000	0.003804  
1689.000000	0.003823  
1688.000000	0.003850  
1687.000000	0.003815  
1686.000000	0.003693  
1685.000000	0.003481  
1684.000000	0.003320  
1683.000000	0.003388  
1682.000000	0.003591  
1681.000000	0.003768  
1680.000000	0.003837  
1679.000000	0.003813  
1678.000000	0.003738  
1677.000000	0.003648  
1676.000000	0.003551  
1675.000000	0.003496  
1674.000000	0.003546  
1673.000000	0.003691  
1672.000000	0.003881  
1671.000000	0.004063  
1670.000000	0.004169  
1669.000000	0.004181  
1668.000000	0.004138  
1667.000000	0.004079  
1666.000000	0.004060  
1665.000000	0.004125  
1664.000000	0.004265  
1663.000000	0.004418  
1662.000000	0.004529  
1661.000000	0.004604  
1660.000000	0.004665  
1659.000000	0.004702  
1658.000000	0.004650  
1657.000000	0.004515  
1656.000000	0.004345  
1655.000000	0.004255  
1654.000000	0.004300  
1653.000000	0.004484  
1652.000000	0.004705  
1651.000000	0.004767  
1650.000000	0.004767  
1649.000000	0.004821  
1648.000000	0.004932  
1647.000000	0.004948  
1646.000000	0.004843  
1645.000000	0.004719  
1644.000000	0.004616  
1643.000000	0.004534  
1642.000000	0.004513  
1641.000000	0.004517  
1640.000000	0.004488  
1639.000000	0.004404  
1638.000000	0.004328  
1637.000000	0.004340  
1636.000000	0.004426  
1635.000000	0.004485  
1634.000000	0.004480  
1633.000000	0.004461  
1632.000000	0.004459  
1631.000000	0.004467  
1630.000000	0.004457  
1629.000000	0.004454  
1628.000000	0.004491  
1627.000000	0.004553  
1626.000000	0.004606  
1625.000000	0.004638  
1624.000000	0.004648  
1623.000000	0.004615  
1622.000000	0.004557  
1621.000000	0.004538  
1620.000000	0.004587  
1619.000000	0.004678  
1618.000000	0.004750  
1617.000000	0.004766  
1616.000000	0.004764  
1615.000000	0.004761  
1614.000000	0.004751  
1613.000000	0.004766  
1612.000000	0.004842  
1611.000000	0.004975  
1610.000000	0.005119  
1609.000000	0.005233  
1608.000000	0.005299  
1607.000000	0.005305  
1606.000000	0.005267  
1605.000000	0.005215  
1604.000000	0.005157  
1603.000000	0.005072  
1602.000000	0.004965  
1601.000000	0.004867  
1600.000000	0.004772  
1599.000000	0.004627  
1598.000000	0.004426  
1597.000000	0.004250  
1596.000000	0.004187  
1595.000000	0.004250  
1594.000000	0.004380  
1593.000000	0.004520  
1592.000000	0.004645  
1591.000000	0.004737  
1590.000000	0.004781  
1589.000000	0.004781  
1588.000000	0.004754  
1587.000000	0.004699  
1586.000000	0.004626  
1585.000000	0.004572  
1584.000000	0.004559  
1583.000000	0.004572  
1582.000000	0.004576  
1581.000000	0.004562  
1580.000000	0.004554  
1579.000000	0.004574  
1578.000000	0.004617  
1577.000000	0.004639  
1576.000000	0.004604  
1575.000000	0.004549  
1574.000000	0.004557  
1573.000000	0.004669  
1572.000000	0.004833  
1571.000000	0.004939  
1570.000000	0.004920  
1569.000000	0.004866  
1568.000000	0.004861  
1567.000000	0.004865  
1566.000000	0.004804  
1565.000000	0.004682  
1564.000000	0.004481  
1563.000000	0.004229  
1562.000000	0.003958  
1561.000000	0.003776  
1560.000000	0.003794  
1559.000000	0.003838  
1558.000000	0.003773  
1557.000000	0.003863  
1556.000000	0.004159  
1555.000000	0.004476  
1554.000000	0.004785  
1553.000000	0.004926  
1552.000000	0.004888  
1551.000000	0.004691  
1550.000000	0.004468  
1549.000000	0.004335  
1548.000000	0.004304  
1547.000000	0.004313  
1546.000000	0.004343  
1545.000000	0.004384  
1544.000000	0.004397  
1543.000000	0.004388  
1542.000000	0.004444  
1541.000000	0.004548  
1540.000000	0.004566  
1539.000000	0.004561  
1538.000000	0.004638  
1537.000000	0.004749  
1536.000000	0.004822  
1535.000000	0.004830  
1534.000000	0.004743  
1533.000000	0.004608  
1532.000000	0.004519  
1531.000000	0.004503  
1530.000000	0.004499  
1529.000000	0.004469  
1528.000000	0.004438  
1527.000000	0.004486  
1526.000000	0.004656  
1525.000000	0.004859  
1524.000000	0.004974  
1523.000000	0.005011  
1522.000000	0.005079  
1521.000000	0.005208  
1520.000000	0.005314  
1519.000000	0.005344  
1518.000000	0.005343  
1517.000000	0.005372  
1516.000000	0.005444  
1515.000000	0.005583  
1514.000000	0.005813  
1513.000000	0.006089  
1512.000000	0.006276  
1511.000000	0.006311  
1510.000000	0.006298  
1509.000000	0.006429  
1508.000000	0.006745  
1507.000000	0.007115  
1506.000000	0.007560  
1505.000000	0.008001  
1504.000000	0.008202  
1503.000000	0.008184  
1502.000000	0.008141  
1501.000000	0.008138  
1500.000000	0.008161  
1499.000000	0.008238  
1498.000000	0.008583  
1497.000000	0.009216  
1496.000000	0.009729  
1495.000000	0.009882  
1494.000000	0.009911  
1493.000000	0.010022  
1492.000000	0.010138  
1491.000000	0.010128  
1490.000000	0.010128  
1489.000000	0.010345  
1488.000000	0.010730  
1487.000000	0.011160  
1486.000000	0.011633  
1485.000000	0.012192  
1484.000000	0.012806  
1483.000000	0.013475  
1482.000000	0.014311  
1481.000000	0.015341  
1480.000000	0.016426  
1479.000000	0.017528  
1478.000000	0.018872  
1477.000000	0.020638  
1476.000000	0.022722  
1475.000000	0.025169  
1474.000000	0.028720  
1473.000000	0.034192  
1472.000000	0.041037  
1471.000000	0.047907  
1470.000000	0.054309  
1469.000000	0.060246  
1468.000000	0.065490  
1467.000000	0.069847  
1466.000000	0.073467  
1465.000000	0.076481  
1464.000000	0.078686  
1463.000000	0.080071  
1462.000000	0.081000  
1461.000000	0.081760  
1460.000000	0.082431  
1459.000000	0.083113  
1458.000000	0.083883  
1457.000000	0.084084  
1456.000000	0.082934  
1455.000000	0.080836  
1454.000000	0.078435  
1453.000000	0.075806  
1452.000000	0.072977  
1451.000000	0.070180  
1450.000000	0.067599  
1449.000000	0.065040  
1448.000000	0.062263  
1447.000000	0.059392  
1446.000000	0.056617  
1445.000000	0.053804  
1444.000000	0.050760  
1443.000000	0.047529  
1442.000000	0.044331  
1441.000000	0.041378  
1440.000000	0.038753  
1439.000000	0.036355  
1438.000000	0.033912  
1437.000000	0.031279  
1436.000000	0.028824  
1435.000000	0.026943  
1434.000000	0.025430  
1433.000000	0.023872  
1432.000000	0.022154  
1431.000000	0.020433  
1430.000000	0.018895  
1429.000000	0.017622  
1428.000000	0.016648  
1427.000000	0.015946  
1426.000000	0.015384  
1425.000000	0.014846  
1424.000000	0.014341  
1423.000000	0.013947  
1422.000000	0.013652  
1421.000000	0.013364  
1420.000000	0.013026  
1419.000000	0.012666  
1418.000000	0.012345  
1417.000000	0.012081  
1416.000000	0.011864  
1415.000000	0.011675  
1414.000000	0.011474  
1413.000000	0.011232  
1412.000000	0.010981  
1411.000000	0.010757  
1410.000000	0.010563  
1409.000000	0.010396  
1408.000000	0.010288  
1407.000000	0.010284  
1406.000000	0.010377  
1405.000000	0.010525  
1404.000000	0.010716  
1403.000000	0.010945  
1402.000000	0.011166  
1401.000000	0.011332  
1400.000000	0.011472  
1399.000000	0.011630  
1398.000000	0.011807  
1397.000000	0.011999  
1396.000000	0.012241  
1395.000000	0.012570  
1394.000000	0.012986  
1393.000000	0.013479  
1392.000000	0.014042  
1391.000000	0.014692  
1390.000000	0.015494  
1389.000000	0.016615  
1388.000000	0.018285  
1387.000000	0.020517  
1386.000000	0.023021  
1385.000000	0.025586  
1384.000000	0.028310  
1383.000000	0.031404  
1382.000000	0.034956  
1381.000000	0.038854  
1380.000000	0.042731  
1379.000000	0.045895  
1378.000000	0.047606  
1377.000000	0.047536  
1376.000000	0.045810  
1375.000000	0.042768  
1374.000000	0.039019  
1373.000000	0.035396  
1372.000000	0.032461  
1371.000000	0.030304  
1370.000000	0.028838  
1369.000000	0.027995  
1368.000000	0.027605  
1367.000000	0.027316  
1366.000000	0.026752  
1365.000000	0.025693  
1364.000000	0.024157  
1363.000000	0.022409  
1362.000000	0.020839  
1361.000000	0.019697  
1360.000000	0.018958  
1359.000000	0.018459  
1358.000000	0.018072  
1357.000000	0.017760  
1356.000000	0.017546  
1355.000000	0.017444  
1354.000000	0.017407  
1353.000000	0.017357  
1352.000000	0.017262  
1351.000000	0.017145  
1350.000000	0.017026  
1349.000000	0.016898  
1348.000000	0.016738  
1347.000000	0.016522  
1346.000000	0.016263  
1345.000000	0.016027  
1344.000000	0.015883  
1343.000000	0.015824  
1342.000000	0.015763  
1341.000000	0.015617  
1340.000000	0.015373  
1339.000000	0.015063  
1338.000000	0.014724  
1337.000000	0.014387  
1336.000000	0.014077  
1335.000000	0.013805  
1334.000000	0.013550  
1333.000000	0.013296  
1332.000000	0.013078  
1331.000000	0.012933  
1330.000000	0.012838  
1329.000000	0.012742  
1328.000000	0.012642  
1327.000000	0.012581  
1326.000000	0.012571  
1325.000000	0.012584  
1324.000000	0.012589  
1323.000000	0.012584  
1322.000000	0.012582  
1321.000000	0.012593  
1320.000000	0.012625  
1319.000000	0.012684  
1318.000000	0.012765  
1317.000000	0.012857  
1316.000000	0.012957  
1315.000000	0.013074  
1314.000000	0.013216  
1313.000000	0.013371  
1312.000000	0.013525  
1311.000000	0.013673  
1310.000000	0.013830  
1309.000000	0.014008  
1308.000000	0.014203  
1307.000000	0.014381  
1306.000000	0.014503  
1305.000000	0.014556  
1304.000000	0.014543  
1303.000000	0.014472  
1302.000000	0.014358  
1301.000000	0.014235  
1300.000000	0.014136  
1299.000000	0.014065  
1298.000000	0.013988  
1297.000000	0.013877  
1296.000000	0.013730  
1295.000000	0.013557  
1294.000000	0.013358  
1293.000000	0.013137  
1292.000000	0.012924  
1291.000000	0.012768  
1290.000000	0.012703  
1289.000000	0.012720  
1288.000000	0.012788  
1287.000000	0.012874  
1286.000000	0.012964  
1285.000000	0.013058  
1284.000000	0.013156  
1283.000000	0.013255  
1282.000000	0.013364  
1281.000000	0.013494  
1280.000000	0.013633  
1279.000000	0.013744  
1278.000000	0.013812  
1277.000000	0.013877  
1276.000000	0.013987  
1275.000000	0.014135  
1274.000000	0.014267  
1273.000000	0.014356  
1272.000000	0.014426  
1271.000000	0.014500  
1270.000000	0.014571  
1269.000000	0.014624  
1268.000000	0.014665  
1267.000000	0.014684  
1266.000000	0.014648  
1265.000000	0.014536  
1264.000000	0.014390  
1263.000000	0.014297  
1262.000000	0.014317  
1261.000000	0.014444  
1260.000000	0.014614  
1259.000000	0.014748  
1258.000000	0.014807  
1257.000000	0.014798  
1256.000000	0.014757  
1255.000000	0.014721  
1254.000000	0.014739  
1253.000000	0.014863  
1252.000000	0.015104  
1251.000000	0.015390  
1250.000000	0.015621  
1249.000000	0.015774  
1248.000000	0.015918  
1247.000000	0.016122  
1246.000000	0.016366  
1245.000000	0.016576  
1244.000000	0.016688  
1243.000000	0.016688  
1242.000000	0.016600  
1241.000000	0.016469  
1240.000000	0.016342  
1239.000000	0.016221  
1238.000000	0.016062  
1237.000000	0.015830  
1236.000000	0.015552  
1235.000000	0.015290  
1234.000000	0.015070  
1233.000000	0.014861  
1232.000000	0.014630  
1231.000000	0.014373  
1230.000000	0.014110  
1229.000000	0.013868  
1228.000000	0.013678  
1227.000000	0.013566  
1226.000000	0.013522  
1225.000000	0.013498  
1224.000000	0.013458  
1223.000000	0.013400  
1222.000000	0.013336  
1221.000000	0.013267  
1220.000000	0.013195  
1219.000000	0.013145  
1218.000000	0.013163  
1217.000000	0.013266  
1216.000000	0.013419  
1215.000000	0.013563  
1214.000000	0.013649  
1213.000000	0.013666  
1212.000000	0.013650  
1211.000000	0.013666  
1210.000000	0.013753  
1209.000000	0.013885  
1208.000000	0.013990  
1207.000000	0.014039  
1206.000000	0.014092  
1205.000000	0.014222  
1204.000000	0.014422  
1203.000000	0.014617  
1202.000000	0.014770  
1201.000000	0.014936  
1200.000000	0.015180  
1199.000000	0.015500  
1198.000000	0.015845  
1197.000000	0.016194  
1196.000000	0.016565  
1195.000000	0.016975  
1194.000000	0.017418  
1193.000000	0.017884  
1192.000000	0.018351  
1191.000000	0.018786  
1190.000000	0.019170  
1189.000000	0.019536  
1188.000000	0.019937  
1187.000000	0.020381  
1186.000000	0.020828  
1185.000000	0.021248  
1184.000000	0.021656  
1183.000000	0.022092  
1182.000000	0.022576  
1181.000000	0.023100  
1180.000000	0.023631  
1179.000000	0.024118  
1178.000000	0.024513  
1177.000000	0.024807  
1176.000000	0.025019  
1175.000000	0.025156  
1174.000000	0.025215  
1173.000000	0.025203  
1172.000000	0.025149  
1171.000000	0.025066  
1170.000000	0.024932  
1169.000000	0.024709  
1168.000000	0.024392  
1167.000000	0.024013  
1166.000000	0.023610  
1165.000000	0.023187  
1164.000000	0.022707  
1163.000000	0.022148  
1162.000000	0.021549  
1161.000000	0.021009  
1160.000000	0.020586  
1159.000000	0.020236  
1158.000000	0.019865  
1157.000000	0.019434  
1156.000000	0.018984  
1155.000000	0.018559  
1154.000000	0.018140  
1153.000000	0.017687  
1152.000000	0.017209  
1151.000000	0.016771  
1150.000000	0.016441  
1149.000000	0.016232  
1148.000000	0.016091  
1147.000000	0.015928  
1146.000000	0.015673  
1145.000000	0.015321  
1144.000000	0.014921  
1143.000000	0.014519  
1142.000000	0.014145  
1141.000000	0.013811  
1140.000000	0.013513  
1139.000000	0.013231  
1138.000000	0.012960  
1137.000000	0.012738  
1136.000000	0.012599  
1135.000000	0.012498  
1134.000000	0.012331  
1133.000000	0.012065  
1132.000000	0.011789  
1131.000000	0.011618  
1130.000000	0.011579  
1129.000000	0.011632  
1128.000000	0.011756  
1127.000000	0.011944  
1126.000000	0.012166  
1125.000000	0.012370  
1124.000000	0.012538  
1123.000000	0.012680  
1122.000000	0.012805  
1121.000000	0.012914  
1120.000000	0.013013  
1119.000000	0.013093  
1118.000000	0.013114  
1117.000000	0.013048  
1116.000000	0.012925  
1115.000000	0.012795  
1114.000000	0.012657  
1113.000000	0.012470  
1112.000000	0.012235  
1111.000000	0.012004  
1110.000000	0.011807  
1109.000000	0.011631  
1108.000000	0.011474  
1107.000000	0.011397  
1106.000000	0.011458  
1105.000000	0.011625  
1104.000000	0.011790  
1103.000000	0.011859  
1102.000000	0.011848  
1101.000000	0.011858  
1100.000000	0.011973  
1099.000000	0.012174  
1098.000000	0.012357  
1097.000000	0.012450  
1096.000000	0.012478  
1095.000000	0.012498  
1094.000000	0.012514  
1093.000000	0.012498  
1092.000000	0.012461  
1091.000000	0.012436  
1090.000000	0.012398  
1089.000000	0.012274  
1088.000000	0.012057  
1087.000000	0.011845  
1086.000000	0.011743  
1085.000000	0.011755  
1084.000000	0.011801  
1083.000000	0.011812  
1082.000000	0.011773  
1081.000000	0.011709  
1080.000000	0.011672  
1079.000000	0.011720  
1078.000000	0.011886  
1077.000000	0.012160  
1076.000000	0.012510  
1075.000000	0.012907  
1074.000000	0.013316  
1073.000000	0.013678  
1072.000000	0.013930  
1071.000000	0.014060  
1070.000000	0.014121  
1069.000000	0.014183  
1068.000000	0.014257  
1067.000000	0.014298  
1066.000000	0.014269  
1065.000000	0.014199  
1064.000000	0.014149  
1063.000000	0.014115  
1062.000000	0.014013  
1061.000000	0.013770  
1060.000000	0.013424  
1059.000000	0.013087  
1058.000000	0.012826  
1057.000000	0.012634  
1056.000000	0.012496  
1055.000000	0.012418  
1054.000000	0.012364  
1053.000000	0.012220  
1052.000000	0.011902  
1051.000000	0.011513  
1050.000000	0.011287  
1049.000000	0.011345  
1048.000000	0.011567  
1047.000000	0.011749  
1046.000000	0.011810  
1045.000000	0.011815  
1044.000000	0.011853  
1043.000000	0.011962  
1042.000000	0.012133  
1041.000000	0.012326  
1040.000000	0.012483  
1039.000000	0.012544  
1038.000000	0.012502  
1037.000000	0.012424  
1036.000000	0.012392  
1035.000000	0.012447  
1034.000000	0.012570  
1033.000000	0.012724  
1032.000000	0.012864  
1031.000000	0.012954  
1030.000000	0.012987  
1029.000000	0.012991  
1028.000000	0.012991  
1027.000000	0.012981  
1026.000000	0.012937  
1025.000000	0.012857  
1024.000000	0.012748  
1023.000000	0.012604  
1022.000000	0.012417  
1021.000000	0.012209  
1020.000000	0.012008  
1019.000000	0.011812  
1018.000000	0.011616  
1017.000000	0.011456  
1016.000000	0.011394  
1015.000000	0.011432  
1014.000000	0.011492  
1013.000000	0.011492  
1012.000000	0.011419  
1011.000000	0.011316  
1010.000000	0.011226  
1009.000000	0.011165  
1008.000000	0.011132  
1007.000000	0.011106  
1006.000000	0.011055  
1005.000000	0.010971  
1004.000000	0.010886  
1003.000000	0.010833  
1002.000000	0.010817  
1001.000000	0.010800  
1000.000000	0.010719  
999.000000	 0.010522  
998.000000	 0.010223  
997.000000	 0.009939  
996.000000	 0.009816  
995.000000	 0.009893  
994.000000	 0.010062  
993.000000	 0.010179  
992.000000	 0.010186  
991.000000	 0.010134  
990.000000	 0.010106  
989.000000	 0.010157  
988.000000	 0.010267  
987.000000	 0.010346  
986.000000	 0.010304  
985.000000	 0.010166  
984.000000	 0.010071  
983.000000	 0.010126  
982.000000	 0.010291  
981.000000	 0.010455  
980.000000	 0.010582  
979.000000	 0.010729  
978.000000	 0.010940  
977.000000	 0.011184  
976.000000	 0.011392  
975.000000	 0.011522  
974.000000	 0.011575  
973.000000	 0.011592  
972.000000	 0.011640  
971.000000	 0.011765  
970.000000	 0.011958  
969.000000	 0.012176  
968.000000	 0.012376  
967.000000	 0.012525  
966.000000	 0.012574  
965.000000	 0.012486  
964.000000	 0.012276  
963.000000	 0.012023  
962.000000	 0.011820  
961.000000	 0.011723  
960.000000	 0.011722  
959.000000	 0.011754  
958.000000	 0.011749  
957.000000	 0.011704  
956.000000	 0.011678  
955.000000	 0.011704  
954.000000	 0.011728  
953.000000	 0.011697  
952.000000	 0.011645  
951.000000	 0.011659  
950.000000	 0.011743  
949.000000	 0.011801  
948.000000	 0.011760  
947.000000	 0.011653  
946.000000	 0.011574  
945.000000	 0.011567  
944.000000	 0.011610  
943.000000	 0.011662  
942.000000	 0.011689  
941.000000	 0.011662  
940.000000	 0.011545  
939.000000	 0.011307  
938.000000	 0.010962  
937.000000	 0.010579  
936.000000	 0.010243  
935.000000	 0.009999  
934.000000	 0.009845  
933.000000	 0.009794  
932.000000	 0.009879  
931.000000	 0.010070  
930.000000	 0.010224  
929.000000	 0.010206  
928.000000	 0.010049  
927.000000	 0.009930  
926.000000	 0.009967  
925.000000	 0.010103  
924.000000	 0.010210  
923.000000	 0.010241  
922.000000	 0.010245  
921.000000	 0.010255  
920.000000	 0.010241  
919.000000	 0.010171  
918.000000	 0.010075  
917.000000	 0.010032  
916.000000	 0.010101  
915.000000	 0.010254  
914.000000	 0.010389  
913.000000	 0.010396  
912.000000	 0.010250  
911.000000	 0.010030  
910.000000	 0.009865  
909.000000	 0.009841  
908.000000	 0.009938  
907.000000	 0.010040  
906.000000	 0.010031  
905.000000	 0.009907  
904.000000	 0.009780  
903.000000	 0.009764  
902.000000	 0.009860  
901.000000	 0.009973  
900.000000	 0.010023  
899.000000	 0.010017  
898.000000	 0.010005  
897.000000	 0.010032  
896.000000	 0.010103  
895.000000	 0.010186  
894.000000	 0.010229  
893.000000	 0.010216  
892.000000	 0.010196  
891.000000	 0.010244  
890.000000	 0.010370  
889.000000	 0.010508  
888.000000	 0.010591  
887.000000	 0.010601  
886.000000	 0.010548  
885.000000	 0.010442  
884.000000	 0.010297  
883.000000	 0.010164  
882.000000	 0.010094  
881.000000	 0.010105  
880.000000	 0.010169  
879.000000	 0.010240  
878.000000	 0.010284  
877.000000	 0.010293  
876.000000	 0.010284  
875.000000	 0.010265  
874.000000	 0.010203  
873.000000	 0.010029  
872.000000	 0.009725  
871.000000	 0.009407  
870.000000	 0.009277  
869.000000	 0.009462  
868.000000	 0.009862  
867.000000	 0.010197  
866.000000	 0.010231  
865.000000	 0.009973  
864.000000	 0.009633  
863.000000	 0.009413  
862.000000	 0.009358  
861.000000	 0.009416  
860.000000	 0.009550  
859.000000	 0.009736  
858.000000	 0.009901  
857.000000	 0.009962  
856.000000	 0.009941  
855.000000	 0.009974  
854.000000	 0.010179  
853.000000	 0.010533  
852.000000	 0.010916  
851.000000	 0.011226  
850.000000	 0.011447  
849.000000	 0.011597  
848.000000	 0.011668  
847.000000	 0.011638  
846.000000	 0.011526  
845.000000	 0.011399  
844.000000	 0.011313  
843.000000	 0.011257  
842.000000	 0.011181  
841.000000	 0.011070  
840.000000	 0.010967  
839.000000	 0.010919  
838.000000	 0.010927  
837.000000	 0.010948  
836.000000	 0.010890  
835.000000	 0.010651  
834.000000	 0.010207  
833.000000	 0.009704  
832.000000	 0.009374  
831.000000	 0.009324  
830.000000	 0.009430  
829.000000	 0.009514  
828.000000	 0.009573  
827.000000	 0.009747  
826.000000	 0.010078  
825.000000	 0.010395  
824.000000	 0.010483  
823.000000	 0.010303  
822.000000	 0.010019  
821.000000	 0.009864  
820.000000	 0.009979  
819.000000	 0.010335  
818.000000	 0.010789  
817.000000	 0.011202  
816.000000	 0.011512  
815.000000	 0.011690  
814.000000	 0.011698  
813.000000	 0.011543  
812.000000	 0.011339  
811.000000	 0.011244  
810.000000	 0.011341  
809.000000	 0.011608  
808.000000	 0.011969  
807.000000	 0.012314  
806.000000	 0.012504  
805.000000	 0.012440  
804.000000	 0.012148  
803.000000	 0.011756  
802.000000	 0.011386  
801.000000	 0.011090  
800.000000	 0.010865  
799.000000	 0.010668  
798.000000	 0.010433  
797.000000	 0.010131  
796.000000	 0.009827  
795.000000	 0.009618  
794.000000	 0.009529  
793.000000	 0.009531  
792.000000	 0.009631  
791.000000	 0.009857  
790.000000	 0.010139  
789.000000	 0.010304  
788.000000	 0.010257  
787.000000	 0.010114  
786.000000	 0.010112  
785.000000	 0.010382  
784.000000	 0.010830  
783.000000	 0.011247  
782.000000	 0.011508  
781.000000	 0.011673  
780.000000	 0.011899  
779.000000	 0.012269  
778.000000	 0.012725  
777.000000	 0.013170  
776.000000	 0.013570  
775.000000	 0.013935  
774.000000	 0.014257  
773.000000	 0.014527  
772.000000	 0.014783  
771.000000	 0.015075  
770.000000	 0.015372  
769.000000	 0.015586  
768.000000	 0.015665  
767.000000	 0.015622  
766.000000	 0.015457  
765.000000	 0.015149  
764.000000	 0.014751  
763.000000	 0.014424  
762.000000	 0.014328  
761.000000	 0.014479  
760.000000	 0.014745  
759.000000	 0.014964  
758.000000	 0.015069  
757.000000	 0.015133  
756.000000	 0.015283  
755.000000	 0.015562  
754.000000	 0.015864  
753.000000	 0.016047  
752.000000	 0.016083  
751.000000	 0.016078  
750.000000	 0.016165  
749.000000	 0.016419  
748.000000	 0.016867  
747.000000	 0.017527  
746.000000	 0.018423  
745.000000	 0.019576  
744.000000	 0.020972  
743.000000	 0.022469  
742.000000	 0.023782  
741.000000	 0.024630  
740.000000	 0.024955  
739.000000	 0.024941  
738.000000	 0.024814  
737.000000	 0.024678  
736.000000	 0.024539  
735.000000	 0.024411  
734.000000	 0.024354  
733.000000	 0.024440  
732.000000	 0.024685  
731.000000	 0.025010  
730.000000	 0.025309  
729.000000	 0.025636  
728.000000	 0.026230  
727.000000	 0.027265  
726.000000	 0.028620  
725.000000	 0.029964  
724.000000	 0.031062  
723.000000	 0.031893  
722.000000	 0.032422  
721.000000	 0.032349  
720.000000	 0.031293  
719.000000	 0.029304  
718.000000	 0.026955  
717.000000	 0.024867  
716.000000	 0.023342  
715.000000	 0.022330  
714.000000	 0.021578  
713.000000	 0.020849  
712.000000	 0.020053  
711.000000	 0.019261  
710.000000	 0.018614  
709.000000	 0.018220  
708.000000	 0.018060  
707.000000	 0.017997  
706.000000	 0.017951  
705.000000	 0.018015  
704.000000	 0.018290  
703.000000	 0.018685  
702.000000	 0.018971  
701.000000	 0.019059  
700.000000	 0.019103  
699.000000	 0.019194  
698.000000	 0.019124  
697.000000	 0.018608  
696.000000	 0.017705  
695.000000	 0.016893  
694.000000	 0.016550  
693.000000	 0.016495  
692.000000	 0.016170  
691.000000	 0.015221  
690.000000	 0.013874  
689.000000	 0.012677  
688.000000	 0.011910  
687.000000	 0.011385  
686.000000	 0.010792  
685.000000	 0.010115  
684.000000	 0.009605  
683.000000	 0.009434  
682.000000	 0.009555  
681.000000	 0.009821  
680.000000	 0.010068  
679.000000	 0.010111  
678.000000	 0.009889  
677.000000	 0.009665  
676.000000	 0.009584  
675.000000	 0.009545  
674.000000	 0.009429  
673.000000	 0.009117  
672.000000	 0.008080  
671.000000	 0.005093  
670.000000	 -0.000808 
669.000000	 -0.009388 
668.000000	 -0.015859 
667.000000	 -0.012689 
666.000000	 -0.004019 
665.000000	 0.002808  
664.000000	 0.006694  
663.000000	 0.008726  
662.000000	 0.009683  
661.000000	 0.009744  
660.000000	 0.009223  
659.000000	 0.008716  
658.000000	 0.008464  
657.000000	 0.008166  
656.000000	 0.007374  
655.000000	 0.006261  
654.000000	 0.005534  
653.000000	 0.005658  
652.000000	 0.006390  
651.000000	 0.007072  
650.000000	 0.007248  

