PE IR                   SPECTRUM    ASCII       PEDS        1.60        
  -1
NB4-30~2.ASC
17/04/10
13:54:03.00
17/04/10
13:54:03.00
Admin

650.000000
6









SPECTRUM ONE,CPU32 MAIN 00.02.5000 17-APRIL-2002 13:00:00
MIR TGS
MIR
OPTKBR
68128
0.200000

4.000000
STRONG
RATIO
SPECTRUM
MAGNITUDE

DOUBLE

COMBINED


0


#HDR
-1
-1
#GR
CM-1
A
0.00000011920928955078
0.0
4000.000000
-1.000000
3351
8
0.199906
-0.025259
#DATA
4000.000000	0.001068  
3999.000000	0.001045  
3998.000000	0.001131  
3997.000000	0.001346  
3996.000000	0.001648  
3995.000000	0.001598  
3994.000000	0.001811  
3993.000000	0.001914  
3992.000000	0.001903  
3991.000000	0.001802  
3990.000000	0.001657  
3989.000000	0.001510  
3988.000000	0.001386  
3987.000000	0.001300  
3986.000000	0.001269  
3985.000000	0.001301  
3984.000000	0.001370  
3983.000000	0.001406  
3982.000000	0.001354  
3981.000000	0.001229  
3980.000000	0.001117  
3979.000000	0.001104  
3978.000000	0.001197  
3977.000000	0.001339  
3976.000000	0.001464  
3975.000000	0.001542  
3974.000000	0.001567  
3973.000000	0.001534  
3972.000000	0.001452  
3971.000000	0.001359  
3970.000000	0.001301  
3969.000000	0.001291  
3968.000000	0.001283  
3967.000000	0.001222  
3966.000000	0.001113  
3965.000000	0.001035  
3964.000000	0.001070  
3963.000000	0.001227  
3962.000000	0.001424  
3961.000000	0.001564  
3960.000000	0.001604  
3959.000000	0.001564  
3958.000000	0.001483  
3957.000000	0.001385  
3956.000000	0.001278  
3955.000000	0.001174  
3954.000000	0.001095  
3953.000000	0.001065  
3952.000000	0.001091  
3951.000000	0.001163  
3950.000000	0.001271  
3949.000000	0.001401  
3948.000000	0.001539  
3947.000000	0.001651  
3946.000000	0.001691  
3945.000000	0.001625  
3944.000000	0.001477  
3943.000000	0.001323  
3942.000000	0.001230  
3941.000000	0.001205  
3940.000000	0.001220  
3939.000000	0.001264  
3938.000000	0.001349  
3937.000000	0.001479  
3936.000000	0.001620  
3935.000000	0.001725  
3934.000000	0.001758  
3933.000000	0.001720  
3932.000000	0.001637  
3931.000000	0.001548  
3930.000000	0.001495  
3929.000000	0.001499  
3928.000000	0.001559  
3927.000000	0.001650  
3926.000000	0.001740  
3925.000000	0.001822  
3924.000000	0.001922  
3923.000000	0.002069  
3922.000000	0.002248  
3921.000000	0.002396  
3920.000000	0.002441  
3919.000000	0.002355  
3918.000000	0.002161  
3917.000000	0.001929  
3916.000000	0.001743  
3915.000000	0.001656  
3914.000000	0.001653  
3913.000000	0.001659  
3912.000000	0.001597  
3911.000000	0.001447  
3910.000000	0.001267  
3909.000000	0.001163  
3908.000000	0.001208  
3907.000000	0.001403  
3906.000000	0.001672  
3905.000000	0.001909  
3904.000000	0.002033  
3903.000000	0.002004  
3902.000000	0.001848  
3901.000000	0.001647  
3900.000000	0.001504  
3899.000000	0.001483  
3898.000000	0.001551  
3897.000000	0.001619  
3896.000000	0.001620  
3895.000000	0.001548  
3894.000000	0.001445  
3893.000000	0.001365  
3892.000000	0.001320  
3891.000000	0.001281  
3890.000000	0.001257  
3889.000000	0.001303  
3888.000000	0.001423  
3887.000000	0.001531  
3886.000000	0.001551  
3885.000000	0.001508  
3884.000000	0.001475  
3883.000000	0.001465  
3882.000000	0.001425  
3881.000000	0.001336  
3880.000000	0.001244  
3879.000000	0.001224  
3878.000000	0.001327  
3877.000000	0.001523  
3876.000000	0.001710  
3875.000000	0.001827  
3874.000000	0.001926  
3873.000000	0.002098  
3872.000000	0.002338  
3871.000000	0.002517  
3870.000000	0.002527  
3869.000000	0.002415  
3868.000000	0.002316  
3867.000000	0.002282  
3866.000000	0.002247  
3865.000000	0.002171  
3864.000000	0.002105  
3863.000000	0.002085  
3862.000000	0.002062  
3861.000000	0.001958  
3860.000000	0.001752  
3859.000000	0.001503  
3858.000000	0.001327  
3857.000000	0.001336  
3856.000000	0.001523  
3855.000000	0.001667  
3854.000000	0.001635  
3853.000000	0.001536  
3852.000000	0.001523  
3851.000000	0.001660  
3850.000000	0.001892  
3849.000000	0.002141  
3848.000000	0.002381  
3847.000000	0.002603  
3846.000000	0.002778  
3845.000000	0.002903  
3844.000000	0.003004  
3843.000000	0.003099  
3842.000000	0.003180  
3841.000000	0.003206  
3840.000000	0.003114  
3839.000000	0.002870  
3838.000000	0.002530  
3837.000000	0.002237  
3836.000000	0.002122  
3835.000000	0.002214  
3834.000000	0.002436  
3833.000000	0.002635  
3832.000000	0.002679  
3831.000000	0.002572  
3830.000000	0.002441  
3829.000000	0.002391  
3828.000000	0.002404  
3827.000000	0.002387  
3826.000000	0.002346  
3825.000000	0.002444  
3824.000000	0.002815  
3823.000000	0.003334  
3822.000000	0.003655  
3821.000000	0.003518  
3820.000000	0.002988  
3819.000000	0.002354  
3818.000000	0.001863  
3817.000000	0.001584  
3816.000000	0.001474  
3815.000000	0.001483  
3814.000000	0.001569  
3813.000000	0.001650  
3812.000000	0.001636  
3811.000000	0.001524  
3810.000000	0.001397  
3809.000000	0.001336  
3808.000000	0.001373  
3807.000000	0.001507  
3806.000000	0.001751  
3805.000000	0.002109  
3804.000000	0.002491  
3803.000000	0.002684  
3802.000000	0.002536  
3801.000000	0.002177  
3800.000000	0.001913  
3799.000000	0.001910  
3798.000000	0.002096  
3797.000000	0.002293  
3796.000000	0.002382  
3795.000000	0.002355  
3794.000000	0.002264  
3793.000000	0.002145  
3792.000000	0.002009  
3791.000000	0.001870  
3790.000000	0.001759  
3789.000000	0.001700  
3788.000000	0.001705  
3787.000000	0.001760  
3786.000000	0.001829  
3785.000000	0.001871  
3784.000000	0.001877  
3783.000000	0.001876  
3782.000000	0.001873  
3781.000000	0.001841  
3780.000000	0.001775  
3779.000000	0.001718  
3778.000000	0.001716  
3777.000000	0.001766  
3776.000000	0.001810  
3775.000000	0.001785  
3774.000000	0.001692  
3773.000000	0.001599  
3772.000000	0.001574  
3771.000000	0.001644  
3770.000000	0.001807  
3769.000000	0.002019  
3768.000000	0.002181  
3767.000000	0.002179  
3766.000000	0.001959  
3765.000000	0.001614  
3764.000000	0.001352  
3763.000000	0.001322  
3762.000000	0.001500  
3761.000000	0.001749  
3760.000000	0.001968  
3759.000000	0.002143  
3758.000000	0.002268  
3757.000000	0.002306  
3756.000000	0.002249  
3755.000000	0.002171  
3754.000000	0.002245  
3753.000000	0.002654  
3752.000000	0.003376  
3751.000000	0.003980  
3750.000000	0.003978  
3749.000000	0.003441  
3748.000000	0.002857  
3747.000000	0.002642  
3746.000000	0.002848  
3745.000000	0.003137  
3744.000000	0.003173  
3743.000000	0.003060  
3742.000000	0.003065  
3741.000000	0.003253  
3740.000000	0.003572  
3739.000000	0.003977  
3738.000000	0.004365  
3737.000000	0.004573  
3736.000000	0.004527  
3735.000000	0.004337  
3734.000000	0.004175  
3733.000000	0.004076  
3732.000000	0.003956  
3731.000000	0.003806  
3730.000000	0.003717  
3729.000000	0.003730  
3728.000000	0.003755  
3727.000000	0.003690  
3726.000000	0.003564  
3725.000000	0.003493  
3724.000000	0.003483  
3723.000000	0.003398  
3722.000000	0.003114  
3721.000000	0.002658  
3720.000000	0.002187  
3719.000000	0.001842  
3718.000000	0.001663  
3717.000000	0.001616  
3716.000000	0.001653  
3715.000000	0.001733  
3714.000000	0.001814  
3713.000000	0.001930  
3712.000000	0.002172  
3711.000000	0.002525  
3710.000000	0.002811  
3709.000000	0.002916  
3708.000000	0.002896  
3707.000000	0.002888  
3706.000000	0.002953  
3705.000000	0.003000  
3704.000000	0.002882  
3703.000000	0.002567  
3702.000000	0.002202  
3701.000000	0.001965  
3700.000000	0.001908  
3699.000000	0.001970  
3698.000000	0.002053  
3697.000000	0.002101  
3696.000000	0.002159  
3695.000000	0.002300  
3694.000000	0.002499  
3693.000000	0.002615  
3692.000000	0.002512  
3691.000000	0.002233  
3690.000000	0.001979  
3689.000000	0.001878  
3688.000000	0.001860  
3687.000000	0.001861  
3686.000000	0.001892  
3685.000000	0.001987  
3684.000000	0.002168  
3683.000000	0.002396  
3682.000000	0.002553  
3681.000000	0.002510  
3680.000000	0.002285  
3679.000000	0.002072  
3678.000000	0.002076  
3677.000000	0.002289  
3676.000000	0.002524  
3675.000000	0.002600  
3674.000000	0.002552  
3673.000000	0.002556  
3672.000000	0.002690  
3671.000000	0.002869  
3670.000000	0.002996  
3669.000000	0.003016  
3668.000000	0.002903  
3667.000000	0.002689  
3666.000000	0.002426  
3665.000000	0.002139  
3664.000000	0.001830  
3663.000000	0.001501  
3662.000000	0.001188  
3661.000000	0.000967  
3660.000000	0.000898  
3659.000000	0.000973  
3658.000000	0.001126  
3657.000000	0.001304  
3656.000000	0.001526  
3655.000000	0.001831  
3654.000000	0.002185  
3653.000000	0.002431  
3652.000000	0.002391  
3651.000000	0.002115  
3650.000000	0.001945  
3649.000000	0.002081  
3648.000000	0.002332  
3647.000000	0.002476  
3646.000000	0.002494  
3645.000000	0.002471  
3644.000000	0.002484  
3643.000000	0.002575  
3642.000000	0.002752  
3641.000000	0.002988  
3640.000000	0.003200  
3639.000000	0.003296  
3638.000000	0.003263  
3637.000000	0.003185  
3636.000000	0.003169  
3635.000000	0.003243  
3634.000000	0.003354  
3633.000000	0.003448  
3632.000000	0.003502  
3631.000000	0.003511  
3630.000000	0.003501  
3629.000000	0.003543  
3628.000000	0.003612  
3627.000000	0.003633  
3626.000000	0.003579  
3625.000000	0.003456  
3624.000000	0.003303  
3623.000000	0.003153  
3622.000000	0.002980  
3621.000000	0.002723  
3620.000000	0.002423  
3619.000000	0.002229  
3618.000000	0.002226  
3617.000000	0.002374  
3616.000000	0.002565  
3615.000000	0.002712  
3614.000000	0.002824  
3613.000000	0.002987  
3612.000000	0.003265  
3611.000000	0.003629  
3610.000000	0.003924  
3609.000000	0.003952  
3608.000000	0.003655  
3607.000000	0.003177  
3606.000000	0.002734  
3605.000000	0.002446  
3604.000000	0.002321  
3603.000000	0.002334  
3602.000000	0.002489  
3601.000000	0.002798  
3600.000000	0.003228  
3599.000000	0.003668  
3598.000000	0.003975  
3597.000000	0.004063  
3596.000000	0.003966  
3595.000000	0.003810  
3594.000000	0.003710  
3593.000000	0.003670  
3592.000000	0.003613  
3591.000000	0.003479  
3590.000000	0.003293  
3589.000000	0.003163  
3588.000000	0.003198  
3587.000000	0.003361  
3586.000000	0.003513  
3585.000000	0.003580  
3584.000000	0.003563  
3583.000000	0.003492  
3582.000000	0.003416  
3581.000000	0.003406  
3580.000000	0.003489  
3579.000000	0.003587  
3578.000000	0.003567  
3577.000000	0.003383  
3576.000000	0.003142  
3575.000000	0.002988  
3574.000000	0.002949  
3573.000000	0.002927  
3572.000000	0.002838  
3571.000000	0.002725  
3570.000000	0.002722  
3569.000000	0.002927  
3568.000000	0.003288  
3567.000000	0.003613  
3566.000000	0.003766  
3565.000000	0.003789  
3564.000000	0.003792  
3563.000000	0.003804  
3562.000000	0.003801  
3561.000000	0.003784  
3560.000000	0.003798  
3559.000000	0.003880  
3558.000000	0.003995  
3557.000000	0.004048  
3556.000000	0.003967  
3555.000000	0.003753  
3554.000000	0.003482  
3553.000000	0.003263  
3552.000000	0.003167  
3551.000000	0.003188  
3550.000000	0.003257  
3549.000000	0.003294  
3548.000000	0.003267  
3547.000000	0.003226  
3546.000000	0.003257  
3545.000000	0.003395  
3544.000000	0.003589  
3543.000000	0.003758  
3542.000000	0.003874  
3541.000000	0.003980  
3540.000000	0.004113  
3539.000000	0.004229  
3538.000000	0.004223  
3537.000000	0.004038  
3536.000000	0.003753  
3535.000000	0.003536  
3534.000000	0.003500  
3533.000000	0.003632  
3532.000000	0.003833  
3531.000000	0.004009  
3530.000000	0.004110  
3529.000000	0.004127  
3528.000000	0.004079  
3527.000000	0.004008  
3526.000000	0.003949  
3525.000000	0.003907  
3524.000000	0.003872  
3523.000000	0.003861  
3522.000000	0.003902  
3521.000000	0.003993  
3520.000000	0.004086  
3519.000000	0.004139  
3518.000000	0.004163  
3517.000000	0.004203  
3516.000000	0.004281  
3515.000000	0.004391  
3514.000000	0.004511  
3513.000000	0.004625  
3512.000000	0.004706  
3511.000000	0.004726  
3510.000000	0.004679  
3509.000000	0.004585  
3508.000000	0.004478  
3507.000000	0.004397  
3506.000000	0.004387  
3505.000000	0.004482  
3504.000000	0.004675  
3503.000000	0.004897  
3502.000000	0.005060  
3501.000000	0.005118  
3500.000000	0.005089  
3499.000000	0.005046  
3498.000000	0.005065  
3497.000000	0.005160  
3496.000000	0.005269  
3495.000000	0.005320  
3494.000000	0.005294  
3493.000000	0.005220  
3492.000000	0.005117  
3491.000000	0.004987  
3490.000000	0.004864  
3489.000000	0.004814  
3488.000000	0.004882  
3487.000000	0.005047  
3486.000000	0.005258  
3485.000000	0.005464  
3484.000000	0.005606  
3483.000000	0.005625  
3482.000000	0.005505  
3481.000000	0.005318  
3480.000000	0.005175  
3479.000000	0.005145  
3478.000000	0.005233  
3477.000000	0.005396  
3476.000000	0.005569  
3475.000000	0.005693  
3474.000000	0.005747  
3473.000000	0.005757  
3472.000000	0.005749  
3471.000000	0.005712  
3470.000000	0.005625  
3469.000000	0.005519  
3468.000000	0.005471  
3467.000000	0.005541  
3466.000000	0.005701  
3465.000000	0.005856  
3464.000000	0.005899  
3463.000000	0.005794  
3462.000000	0.005605  
3461.000000	0.005452  
3460.000000	0.005416  
3459.000000	0.005487  
3458.000000	0.005601  
3457.000000	0.005721  
3456.000000	0.005838  
3455.000000	0.005949  
3454.000000	0.006043  
3453.000000	0.006125  
3452.000000	0.006202  
3451.000000	0.006257  
3450.000000	0.006267  
3449.000000	0.006250  
3448.000000	0.006279  
3447.000000	0.006399  
3446.000000	0.006571  
3445.000000	0.006713  
3444.000000	0.006768  
3443.000000	0.006726  
3442.000000	0.006627  
3441.000000	0.006546  
3440.000000	0.006564  
3439.000000	0.006706  
3438.000000	0.006896  
3437.000000	0.007000  
3436.000000	0.006916  
3435.000000	0.006666  
3434.000000	0.006397  
3433.000000	0.006284  
3432.000000	0.006392  
3431.000000	0.006622  
3430.000000	0.006800  
3429.000000	0.006819  
3428.000000	0.006690  
3427.000000	0.006492  
3426.000000	0.006312  
3425.000000	0.006225  
3424.000000	0.006275  
3423.000000	0.006433  
3422.000000	0.006605  
3421.000000	0.006711  
3420.000000	0.006741  
3419.000000	0.006739  
3418.000000	0.006745  
3417.000000	0.006786  
3416.000000	0.006875  
3415.000000	0.006996  
3414.000000	0.007105  
3413.000000	0.007179  
3412.000000	0.007246  
3411.000000	0.007342  
3410.000000	0.007438  
3409.000000	0.007450  
3408.000000	0.007318  
3407.000000	0.007073  
3406.000000	0.006816  
3405.000000	0.006649  
3404.000000	0.006610  
3403.000000	0.006674  
3402.000000	0.006804  
3401.000000	0.006985  
3400.000000	0.007191  
3399.000000	0.007346  
3398.000000	0.007370  
3397.000000	0.007292  
3396.000000	0.007265  
3395.000000	0.007428  
3394.000000	0.007755  
3393.000000	0.008056  
3392.000000	0.008146  
3391.000000	0.007993  
3390.000000	0.007721  
3389.000000	0.007491  
3388.000000	0.007375  
3387.000000	0.007317  
3386.000000	0.007229  
3385.000000	0.007114  
3384.000000	0.007087  
3383.000000	0.007236  
3382.000000	0.007512  
3381.000000	0.007768  
3380.000000	0.007903  
3379.000000	0.007911  
3378.000000	0.007822  
3377.000000	0.007643  
3376.000000	0.007401  
3375.000000	0.007186  
3374.000000	0.007101  
3373.000000	0.007170  
3372.000000	0.007314  
3371.000000	0.007441  
3370.000000	0.007536  
3369.000000	0.007658  
3368.000000	0.007849  
3367.000000	0.008065  
3366.000000	0.008212  
3365.000000	0.008247  
3364.000000	0.008206  
3363.000000	0.008145  
3362.000000	0.008084  
3361.000000	0.008028  
3360.000000	0.007991  
3359.000000	0.007984  
3358.000000	0.007984  
3357.000000	0.007960  
3356.000000	0.007919  
3355.000000	0.007886  
3354.000000	0.007859  
3353.000000	0.007816  
3352.000000	0.007763  
3351.000000	0.007734  
3350.000000	0.007732  
3349.000000	0.007719  
3348.000000	0.007683  
3347.000000	0.007665  
3346.000000	0.007708  
3345.000000	0.007794  
3344.000000	0.007870  
3343.000000	0.007917  
3342.000000	0.007956  
3341.000000	0.007988  
3340.000000	0.007965  
3339.000000	0.007847  
3338.000000	0.007675  
3337.000000	0.007562  
3336.000000	0.007598  
3335.000000	0.007759  
3334.000000	0.007929  
3333.000000	0.008020  
3332.000000	0.008030  
3331.000000	0.008018  
3330.000000	0.008020  
3329.000000	0.008044  
3328.000000	0.008095  
3327.000000	0.008155  
3326.000000	0.008165  
3325.000000	0.008068  
3324.000000	0.007892  
3323.000000	0.007748  
3322.000000	0.007716  
3321.000000	0.007772  
3320.000000	0.007848  
3319.000000	0.007925  
3318.000000	0.008036  
3317.000000	0.008182  
3316.000000	0.008303  
3315.000000	0.008333  
3314.000000	0.008260  
3313.000000	0.008141  
3312.000000	0.008050  
3311.000000	0.008035  
3310.000000	0.008086  
3309.000000	0.008137  
3308.000000	0.008103  
3307.000000	0.007956  
3306.000000	0.007773  
3305.000000	0.007690  
3304.000000	0.007789  
3303.000000	0.008004  
3302.000000	0.008183  
3301.000000	0.008225  
3300.000000	0.008146  
3299.000000	0.008015  
3298.000000	0.007871  
3297.000000	0.007734  
3296.000000	0.007652  
3295.000000	0.007670  
3294.000000	0.007758  
3293.000000	0.007846  
3292.000000	0.007905  
3291.000000	0.007968  
3290.000000	0.008038  
3289.000000	0.008056  
3288.000000	0.007982  
3287.000000	0.007856  
3286.000000	0.007750  
3285.000000	0.007680  
3284.000000	0.007616  
3283.000000	0.007541  
3282.000000	0.007465  
3281.000000	0.007397  
3280.000000	0.007337  
3279.000000	0.007309  
3278.000000	0.007346  
3277.000000	0.007445  
3276.000000	0.007563  
3275.000000	0.007666  
3274.000000	0.007766  
3273.000000	0.007880  
3272.000000	0.007981  
3271.000000	0.008004  
3270.000000	0.007906  
3269.000000	0.007698  
3268.000000	0.007434  
3267.000000	0.007179  
3266.000000	0.007003  
3265.000000	0.006980  
3264.000000	0.007140  
3263.000000	0.007420  
3262.000000	0.007686  
3261.000000	0.007846  
3260.000000	0.007920  
3259.000000	0.007974  
3258.000000	0.008014  
3257.000000	0.007980  
3256.000000	0.007840  
3255.000000	0.007648  
3254.000000	0.007503  
3253.000000	0.007478  
3252.000000	0.007577  
3251.000000	0.007724  
3250.000000	0.007809  
3249.000000	0.007778  
3248.000000	0.007689  
3247.000000	0.007637  
3246.000000	0.007625  
3245.000000	0.007578  
3244.000000	0.007471  
3243.000000	0.007391  
3242.000000	0.007411  
3241.000000	0.007489  
3240.000000	0.007511  
3239.000000	0.007416  
3238.000000	0.007227  
3237.000000	0.007005  
3236.000000	0.006808  
3235.000000	0.006677  
3234.000000	0.006617  
3233.000000	0.006609  
3232.000000	0.006659  
3231.000000	0.006796  
3230.000000	0.006998  
3229.000000	0.007164  
3228.000000	0.007220  
3227.000000	0.007215  
3226.000000	0.007252  
3225.000000	0.007353  
3224.000000	0.007442  
3223.000000	0.007451  
3222.000000	0.007376  
3221.000000	0.007228  
3220.000000	0.007025  
3219.000000	0.006822  
3218.000000	0.006708  
3217.000000	0.006718  
3216.000000	0.006796  
3215.000000	0.006869  
3214.000000	0.006916  
3213.000000	0.006956  
3212.000000	0.006996  
3211.000000	0.007022  
3210.000000	0.007022  
3209.000000	0.007002  
3208.000000	0.006985  
3207.000000	0.006995  
3206.000000	0.007042  
3205.000000	0.007112  
3204.000000	0.007189  
3203.000000	0.007273  
3202.000000	0.007351  
3201.000000	0.007363  
3200.000000	0.007236  
3199.000000	0.006961  
3198.000000	0.006609  
3197.000000	0.006272  
3196.000000	0.006010  
3195.000000	0.005871  
3194.000000	0.005894  
3193.000000	0.006061  
3192.000000	0.006282  
3191.000000	0.006463  
3190.000000	0.006585  
3189.000000	0.006693  
3188.000000	0.006804  
3187.000000	0.006881  
3186.000000	0.006883  
3185.000000	0.006821  
3184.000000	0.006736  
3183.000000	0.006641  
3182.000000	0.006511  
3181.000000	0.006339  
3180.000000	0.006162  
3179.000000	0.006035  
3178.000000	0.005982  
3177.000000	0.006004  
3176.000000	0.006101  
3175.000000	0.006257  
3174.000000	0.006402  
3173.000000	0.006437  
3172.000000	0.006318  
3171.000000	0.006111  
3170.000000	0.005932  
3169.000000	0.005853  
3168.000000	0.005877  
3167.000000	0.005971  
3166.000000	0.006083  
3165.000000	0.006152  
3164.000000	0.006139  
3163.000000	0.006070  
3162.000000	0.006007  
3161.000000	0.005991  
3160.000000	0.006015  
3159.000000	0.006060  
3158.000000	0.006123  
3157.000000	0.006211  
3156.000000	0.006307  
3155.000000	0.006373  
3154.000000	0.006384  
3153.000000	0.006348  
3152.000000	0.006291  
3151.000000	0.006218  
3150.000000	0.006108  
3149.000000	0.005949  
3148.000000	0.005777  
3147.000000	0.005647  
3146.000000	0.005581  
3145.000000	0.005552  
3144.000000	0.005543  
3143.000000	0.005562  
3142.000000	0.005597  
3141.000000	0.005602  
3140.000000	0.005557  
3139.000000	0.005526  
3138.000000	0.005578  
3137.000000	0.005692  
3136.000000	0.005760  
3135.000000	0.005701  
3134.000000	0.005542  
3133.000000	0.005390  
3132.000000	0.005349  
3131.000000	0.005447  
3130.000000	0.005612  
3129.000000	0.005726  
3128.000000	0.005716  
3127.000000	0.005611  
3126.000000	0.005488  
3125.000000	0.005394  
3124.000000	0.005348  
3123.000000	0.005392  
3122.000000	0.005559  
3121.000000	0.005794  
3120.000000	0.005958  
3119.000000	0.005942  
3118.000000	0.005766  
3117.000000	0.005549  
3116.000000	0.005414  
3115.000000	0.005420  
3114.000000	0.005536  
3113.000000	0.005669  
3112.000000	0.005739  
3111.000000	0.005744  
3110.000000	0.005744  
3109.000000	0.005761  
3108.000000	0.005748  
3107.000000	0.005654  
3106.000000	0.005490  
3105.000000	0.005330  
3104.000000	0.005250  
3103.000000	0.005296  
3102.000000	0.005456  
3101.000000	0.005649  
3100.000000	0.005750  
3099.000000	0.005678  
3098.000000	0.005473  
3097.000000	0.005268  
3096.000000	0.005188  
3095.000000	0.005258  
3094.000000	0.005396  
3093.000000	0.005484  
3092.000000	0.005467  
3091.000000	0.005384  
3090.000000	0.005319  
3089.000000	0.005308  
3088.000000	0.005329  
3087.000000	0.005360  
3086.000000	0.005411  
3085.000000	0.005480  
3084.000000	0.005515  
3083.000000	0.005473  
3082.000000	0.005383  
3081.000000	0.005341  
3080.000000	0.005413  
3079.000000	0.005582  
3078.000000	0.005773  
3077.000000	0.005913  
3076.000000	0.005968  
3075.000000	0.005940  
3074.000000	0.005851  
3073.000000	0.005743  
3072.000000	0.005667  
3071.000000	0.005673  
3070.000000	0.005771  
3069.000000	0.005904  
3068.000000	0.005989  
3067.000000	0.005983  
3066.000000	0.005929  
3065.000000	0.005911  
3064.000000	0.005983  
3063.000000	0.006121  
3062.000000	0.006244  
3061.000000	0.006281  
3060.000000	0.006217  
3059.000000	0.006103  
3058.000000	0.005992  
3057.000000	0.005901  
3056.000000	0.005838  
3055.000000	0.005841  
3054.000000	0.005937  
3053.000000	0.006068  
3052.000000	0.006101  
3051.000000	0.005980  
3050.000000	0.005814  
3049.000000	0.005781  
3048.000000	0.005952  
3047.000000	0.006231  
3046.000000	0.006463  
3045.000000	0.006550  
3044.000000	0.006487  
3043.000000	0.006340  
3042.000000	0.006206  
3041.000000	0.006169  
3040.000000	0.006253  
3039.000000	0.006413  
3038.000000	0.006570  
3037.000000	0.006666  
3036.000000	0.006677  
3035.000000	0.006612  
3034.000000	0.006507  
3033.000000	0.006432  
3032.000000	0.006476  
3031.000000	0.006700  
3030.000000	0.007083  
3029.000000	0.007503  
3028.000000	0.007816  
3027.000000	0.007970  
3026.000000	0.008042  
3025.000000	0.008170  
3024.000000	0.008451  
3023.000000	0.008888  
3022.000000	0.009395  
3021.000000	0.009847  
3020.000000	0.010169  
3019.000000	0.010416  
3018.000000	0.010736  
3017.000000	0.011229  
3016.000000	0.011842  
3015.000000	0.012429  
3014.000000	0.012891  
3013.000000	0.013228  
3012.000000	0.013474  
3011.000000	0.013646  
3010.000000	0.013759  
3009.000000	0.013838  
3008.000000	0.013903  
3007.000000	0.013938  
3006.000000	0.013902  
3005.000000	0.013751  
3004.000000	0.013456  
3003.000000	0.013032  
3002.000000	0.012582  
3001.000000	0.012264  
3000.000000	0.012192  
2999.000000	0.012337  
2998.000000	0.012543  
2997.000000	0.012652  
2996.000000	0.012619  
2995.000000	0.012537  
2994.000000	0.012549  
2993.000000	0.012748  
2992.000000	0.013137  
2991.000000	0.013661  
2990.000000	0.014264  
2989.000000	0.014894  
2988.000000	0.015519  
2987.000000	0.016159  
2986.000000	0.016894  
2985.000000	0.017802  
2984.000000	0.018874  
2983.000000	0.020034  
2982.000000	0.021226  
2981.000000	0.022478  
2980.000000	0.023860  
2979.000000	0.025421  
2978.000000	0.027194  
2977.000000	0.029226  
2976.000000	0.031568  
2975.000000	0.034239  
2974.000000	0.037233  
2973.000000	0.040540  
2972.000000	0.044147  
2971.000000	0.048027  
2970.000000	0.052178  
2969.000000	0.056653  
2968.000000	0.061506  
2967.000000	0.066663  
2966.000000	0.071908  
2965.000000	0.077013  
2964.000000	0.081885  
2963.000000	0.086551  
2962.000000	0.091035  
2961.000000	0.095291  
2960.000000	0.099223  
2959.000000	0.102693  
2958.000000	0.105518  
2957.000000	0.107522  
2956.000000	0.108652  
2955.000000	0.109003  
2954.000000	0.108709  
2953.000000	0.107854  
2952.000000	0.106498  
2951.000000	0.104764  
2950.000000	0.102859  
2949.000000	0.101011  
2948.000000	0.099403  
2947.000000	0.098157  
2946.000000	0.097380  
2945.000000	0.097200  
2944.000000	0.097772  
2943.000000	0.099213  
2942.000000	0.101550  
2941.000000	0.104712  
2940.000000	0.108589  
2939.000000	0.113095  
2938.000000	0.118176  
2937.000000	0.123788  
2936.000000	0.129844  
2935.000000	0.136190  
2934.000000	0.142646  
2933.000000	0.149126  
2932.000000	0.155674  
2931.000000	0.162355  
2930.000000	0.169089  
2929.000000	0.175646  
2928.000000	0.181792  
2927.000000	0.187357  
2926.000000	0.192168  
2925.000000	0.196001  
2924.000000	0.198634  
2923.000000	0.199906  
2922.000000	0.199742  
2921.000000	0.198193  
2920.000000	0.195470  
2919.000000	0.191857  
2918.000000	0.187547  
2917.000000	0.182645  
2916.000000	0.177309  
2915.000000	0.171804  
2914.000000	0.166374  
2913.000000	0.161129  
2912.000000	0.156088  
2911.000000	0.151288  
2910.000000	0.146779  
2909.000000	0.142541  
2908.000000	0.138472  
2907.000000	0.134472  
2906.000000	0.130515  
2905.000000	0.126629  
2904.000000	0.122848  
2903.000000	0.119202  
2902.000000	0.115717  
2901.000000	0.112409  
2900.000000	0.109244  
2899.000000	0.106141  
2898.000000	0.103033  
2897.000000	0.099919  
2896.000000	0.096866  
2895.000000	0.093939  
2894.000000	0.091151  
2893.000000	0.088446  
2892.000000	0.085741  
2891.000000	0.082997  
2890.000000	0.080267  
2889.000000	0.077697  
2888.000000	0.075444  
2887.000000	0.073581  
2886.000000	0.072084  
2885.000000	0.070902  
2884.000000	0.070048  
2883.000000	0.069612  
2882.000000	0.069683  
2881.000000	0.070300  
2880.000000	0.071471  
2879.000000	0.073204  
2878.000000	0.075491  
2877.000000	0.078242  
2876.000000	0.081255  
2875.000000	0.084262  
2874.000000	0.086991  
2873.000000	0.089212  
2872.000000	0.090765  
2871.000000	0.091614  
2870.000000	0.091893  
2869.000000	0.091884  
2868.000000	0.091924  
2867.000000	0.092280  
2866.000000	0.093118  
2865.000000	0.094547  
2864.000000	0.096655  
2863.000000	0.099463  
2862.000000	0.102873  
2861.000000	0.106721  
2860.000000	0.110878  
2859.000000	0.115254  
2858.000000	0.119669  
2857.000000	0.123760  
2856.000000	0.127049  
2855.000000	0.129076  
2854.000000	0.129510  
2853.000000	0.128215  
2852.000000	0.125283  
2851.000000	0.120997  
2850.000000	0.115694  
2849.000000	0.109662  
2848.000000	0.103137  
2847.000000	0.096367  
2846.000000	0.089632  
2845.000000	0.083164  
2844.000000	0.077062  
2843.000000	0.071298  
2842.000000	0.065819  
2841.000000	0.060635  
2840.000000	0.055816  
2839.000000	0.051431  
2838.000000	0.047500  
2837.000000	0.043992  
2836.000000	0.040846  
2835.000000	0.037993  
2834.000000	0.035382  
2833.000000	0.032999  
2832.000000	0.030857  
2831.000000	0.028980  
2830.000000	0.027383  
2829.000000	0.026050  
2828.000000	0.024918  
2827.000000	0.023893  
2826.000000	0.022901  
2825.000000	0.021928  
2824.000000	0.021011  
2823.000000	0.020196  
2822.000000	0.019498  
2821.000000	0.018893  
2820.000000	0.018336  
2819.000000	0.017787  
2818.000000	0.017224  
2817.000000	0.016648  
2816.000000	0.016077  
2815.000000	0.015529  
2814.000000	0.015020  
2813.000000	0.014549  
2812.000000	0.014103  
2811.000000	0.013678  
2810.000000	0.013305  
2809.000000	0.013034  
2808.000000	0.012885  
2807.000000	0.012820  
2806.000000	0.012764  
2805.000000	0.012654  
2804.000000	0.012457  
2803.000000	0.012172  
2802.000000	0.011824  
2801.000000	0.011477  
2800.000000	0.011198  
2799.000000	0.011024  
2798.000000	0.010943  
2797.000000	0.010920  
2796.000000	0.010919  
2795.000000	0.010900  
2794.000000	0.010801  
2793.000000	0.010574  
2792.000000	0.010237  
2791.000000	0.009882  
2790.000000	0.009624  
2789.000000	0.009516  
2788.000000	0.009522  
2787.000000	0.009555  
2786.000000	0.009541  
2785.000000	0.009453  
2784.000000	0.009312  
2783.000000	0.009158  
2782.000000	0.009038  
2781.000000	0.008983  
2780.000000	0.008997  
2779.000000	0.009035  
2778.000000	0.009019  
2777.000000	0.008885  
2776.000000	0.008621  
2775.000000	0.008290  
2774.000000	0.007997  
2773.000000	0.007828  
2772.000000	0.007791  
2771.000000	0.007820  
2770.000000	0.007824  
2769.000000	0.007757  
2768.000000	0.007626  
2767.000000	0.007471  
2766.000000	0.007330  
2765.000000	0.007238  
2764.000000	0.007214  
2763.000000	0.007249  
2762.000000	0.007293  
2761.000000	0.007284  
2760.000000	0.007199  
2759.000000	0.007058  
2758.000000	0.006902  
2757.000000	0.006768  
2756.000000	0.006680  
2755.000000	0.006642  
2754.000000	0.006630  
2753.000000	0.006610  
2752.000000	0.006572  
2751.000000	0.006551  
2750.000000	0.006590  
2749.000000	0.006691  
2748.000000	0.006791  
2747.000000	0.006804  
2746.000000	0.006689  
2745.000000	0.006492  
2744.000000	0.006317  
2743.000000	0.006238  
2742.000000	0.006256  
2741.000000	0.006327  
2740.000000	0.006423  
2739.000000	0.006525  
2738.000000	0.006609  
2737.000000	0.006653  
2736.000000	0.006693  
2735.000000	0.006795  
2734.000000	0.006974  
2733.000000	0.007140  
2732.000000	0.007175  
2731.000000	0.007051  
2730.000000	0.006852  
2729.000000	0.006701  
2728.000000	0.006665  
2727.000000	0.006723  
2726.000000	0.006782  
2725.000000	0.006749  
2724.000000	0.006604  
2723.000000	0.006408  
2722.000000	0.006252  
2721.000000	0.006182  
2720.000000	0.006199  
2719.000000	0.006285  
2718.000000	0.006404  
2717.000000	0.006495  
2716.000000	0.006505  
2715.000000	0.006441  
2714.000000	0.006342  
2713.000000	0.006220  
2712.000000	0.006063  
2711.000000	0.005895  
2710.000000	0.005781  
2709.000000	0.005756  
2708.000000	0.005771  
2707.000000	0.005756  
2706.000000	0.005694  
2705.000000	0.005613  
2704.000000	0.005531  
2703.000000	0.005440  
2702.000000	0.005343  
2701.000000	0.005250  
2700.000000	0.005163  
2699.000000	0.005084  
2698.000000	0.005041  
2697.000000	0.005071  
2696.000000	0.005167  
2695.000000	0.005274  
2694.000000	0.005334  
2693.000000	0.005331  
2692.000000	0.005283  
2691.000000	0.005235  
2690.000000	0.005253  
2689.000000	0.005391  
2688.000000	0.005626  
2687.000000	0.005844  
2686.000000	0.005929  
2685.000000	0.005871  
2684.000000	0.005766  
2683.000000	0.005709  
2682.000000	0.005719  
2681.000000	0.005752  
2680.000000	0.005765  
2679.000000	0.005749  
2678.000000	0.005724  
2677.000000	0.005728  
2676.000000	0.005795  
2675.000000	0.005918  
2674.000000	0.006038  
2673.000000	0.006083  
2672.000000	0.006028  
2671.000000	0.005910  
2670.000000	0.005785  
2669.000000	0.005692  
2668.000000	0.005650  
2667.000000	0.005661  
2666.000000	0.005701  
2665.000000	0.005733  
2664.000000	0.005726  
2663.000000	0.005675  
2662.000000	0.005580  
2661.000000	0.005443  
2660.000000	0.005292  
2659.000000	0.005165  
2658.000000	0.005075  
2657.000000	0.004996  
2656.000000	0.004918  
2655.000000	0.004881  
2654.000000	0.004915  
2653.000000	0.004981  
2652.000000	0.005007  
2651.000000	0.004991  
2650.000000	0.005001  
2649.000000	0.005070  
2648.000000	0.005144  
2647.000000	0.005149  
2646.000000	0.005065  
2645.000000	0.004933  
2644.000000	0.004812  
2643.000000	0.004760  
2642.000000	0.004815  
2641.000000	0.004951  
2640.000000	0.005068  
2639.000000	0.005067  
2638.000000	0.004923  
2637.000000	0.004690  
2636.000000	0.004460  
2635.000000	0.004331  
2634.000000	0.004370  
2633.000000	0.004556  
2632.000000	0.004771  
2631.000000	0.004879  
2630.000000	0.004838  
2629.000000	0.004699  
2628.000000	0.004548  
2627.000000	0.004452  
2626.000000	0.004439  
2625.000000	0.004477  
2624.000000	0.004475  
2623.000000	0.004369  
2622.000000	0.004196  
2621.000000	0.004061  
2620.000000	0.004023  
2619.000000	0.004051  
2618.000000	0.004092  
2617.000000	0.004134  
2616.000000	0.004195  
2615.000000	0.004275  
2614.000000	0.004351  
2613.000000	0.004399  
2612.000000	0.004394  
2611.000000	0.004339  
2610.000000	0.004291  
2609.000000	0.004334  
2608.000000	0.004489  
2607.000000	0.004675  
2606.000000	0.004780  
2605.000000	0.004755  
2604.000000	0.004621  
2603.000000	0.004423  
2602.000000	0.004206  
2601.000000	0.004034  
2600.000000	0.003954  
2599.000000	0.003952  
2598.000000	0.003965  
2597.000000	0.003959  
2596.000000	0.003965  
2595.000000	0.004005  
2594.000000	0.004010  
2593.000000	0.003875  
2592.000000	0.003605  
2591.000000	0.003348  
2590.000000	0.003250  
2589.000000	0.003306  
2588.000000	0.003395  
2587.000000	0.003452  
2586.000000	0.003521  
2585.000000	0.003639  
2584.000000	0.003736  
2583.000000	0.003708  
2582.000000	0.003552  
2581.000000	0.003374  
2580.000000	0.003285  
2579.000000	0.003316  
2578.000000	0.003440  
2577.000000	0.003596  
2576.000000	0.003706  
2575.000000	0.003696  
2574.000000	0.003573  
2573.000000	0.003436  
2572.000000	0.003387  
2571.000000	0.003430  
2570.000000	0.003465  
2569.000000	0.003396  
2568.000000	0.003223  
2567.000000	0.003035  
2566.000000	0.002936  
2565.000000	0.002961  
2564.000000	0.003061  
2563.000000	0.003155  
2562.000000	0.003186  
2561.000000	0.003143  
2560.000000	0.003051  
2559.000000	0.002954  
2558.000000	0.002918  
2557.000000	0.002993  
2556.000000	0.003158  
2555.000000	0.003311  
2554.000000	0.003345  
2553.000000	0.003254  
2552.000000	0.003147  
2551.000000	0.003147  
2550.000000	0.003289  
2549.000000	0.003508  
2548.000000	0.003700  
2547.000000	0.003777  
2546.000000	0.003682  
2545.000000	0.003415  
2544.000000	0.003079  
2543.000000	0.002846  
2542.000000	0.002817  
2541.000000	0.002915  
2540.000000	0.002976  
2539.000000	0.002941  
2538.000000	0.002898  
2537.000000	0.002932  
2536.000000	0.002985  
2535.000000	0.002932  
2534.000000	0.002746  
2533.000000	0.002546  
2532.000000	0.002458  
2531.000000	0.002483  
2530.000000	0.002512  
2529.000000	0.002452  
2528.000000	0.002335  
2527.000000	0.002297  
2526.000000	0.002448  
2525.000000	0.002768  
2524.000000	0.003119  
2523.000000	0.003368  
2522.000000	0.003451  
2521.000000	0.003358  
2520.000000	0.003115  
2519.000000	0.002831  
2518.000000	0.002685  
2517.000000	0.002780  
2516.000000	0.003015  
2515.000000	0.003170  
2514.000000	0.003130  
2513.000000	0.002975  
2512.000000	0.002853  
2511.000000	0.002827  
2510.000000	0.002856  
2509.000000	0.002881  
2508.000000	0.002895  
2507.000000	0.002933  
2506.000000	0.003026  
2505.000000	0.003152  
2504.000000	0.003230  
2503.000000	0.003189  
2502.000000	0.003056  
2501.000000	0.002958  
2500.000000	0.002996  
2499.000000	0.003120  
2498.000000	0.003150  
2497.000000	0.002944  
2496.000000	0.002531  
2495.000000	0.002099  
2494.000000	0.001856  
2493.000000	0.001892  
2492.000000	0.002150  
2491.000000	0.002500  
2490.000000	0.002826  
2489.000000	0.003057  
2488.000000	0.003153  
2487.000000	0.003100  
2486.000000	0.002909  
2485.000000	0.002618  
2484.000000	0.002298  
2483.000000	0.002057  
2482.000000	0.002011  
2481.000000	0.002210  
2480.000000	0.002581  
2479.000000	0.002960  
2478.000000	0.003195  
2477.000000	0.003229  
2476.000000	0.003101  
2475.000000	0.002893  
2474.000000	0.002690  
2473.000000	0.002547  
2472.000000	0.002481  
2471.000000	0.002474  
2470.000000	0.002476  
2469.000000	0.002447  
2468.000000	0.002404  
2467.000000	0.002430  
2466.000000	0.002574  
2465.000000	0.002760  
2464.000000	0.002825  
2463.000000	0.002692  
2462.000000	0.002460  
2461.000000	0.002299  
2460.000000	0.002283  
2459.000000	0.002374  
2458.000000	0.002514  
2457.000000	0.002648  
2456.000000	0.002685  
2455.000000	0.002544  
2454.000000	0.002266  
2453.000000	0.002014  
2452.000000	0.001884  
2451.000000	0.001808  
2450.000000	0.001679  
2449.000000	0.001545  
2448.000000	0.001582  
2447.000000	0.001875  
2446.000000	0.002287  
2445.000000	0.002576  
2444.000000	0.002605  
2443.000000	0.002451  
2442.000000	0.002307  
2441.000000	0.002304  
2440.000000	0.002394  
2439.000000	0.002428  
2438.000000	0.002324  
2437.000000	0.002155  
2436.000000	0.002059  
2435.000000	0.002070  
2434.000000	0.002100  
2433.000000	0.002062  
2432.000000	0.001969  
2431.000000	0.001901  
2430.000000	0.001911  
2429.000000	0.001999  
2428.000000	0.002146  
2427.000000	0.002324  
2426.000000	0.002480  
2425.000000	0.002550  
2424.000000	0.002520  
2423.000000	0.002441  
2422.000000	0.002375  
2421.000000	0.002332  
2420.000000	0.002287  
2419.000000	0.002232  
2418.000000	0.002190  
2417.000000	0.002176  
2416.000000	0.002189  
2415.000000	0.002240  
2414.000000	0.002342  
2413.000000	0.002470  
2412.000000	0.002546  
2411.000000	0.002512  
2410.000000	0.002408  
2409.000000	0.002347  
2408.000000	0.002415  
2407.000000	0.002570  
2406.000000	0.002678  
2405.000000	0.002617  
2404.000000	0.002385  
2403.000000	0.002086  
2402.000000	0.001840  
2401.000000	0.001698  
2400.000000	0.001656  
2399.000000	0.001721  
2398.000000	0.001903  
2397.000000	0.002163  
2396.000000	0.002395  
2395.000000	0.002513  
2394.000000	0.002531  
2393.000000	0.002538  
2392.000000	0.002614  
2391.000000	0.002787  
2390.000000	0.003030  
2389.000000	0.003300  
2388.000000	0.003591  
2387.000000	0.003964  
2386.000000	0.004497  
2385.000000	0.005145  
2384.000000	0.005669  
2383.000000	0.005734  
2382.000000	0.005113  
2381.000000	0.003798  
2380.000000	0.001958  
2379.000000	-0.000167 
2378.000000	-0.002339 
2377.000000	-0.004360 
2376.000000	-0.006042 
2375.000000	-0.007182 
2374.000000	-0.007649 
2373.000000	-0.007513 
2372.000000	-0.007027 
2371.000000	-0.006413 
2370.000000	-0.005723 
2369.000000	-0.005004 
2368.000000	-0.004389 
2367.000000	-0.003863 
2366.000000	-0.003179 
2365.000000	-0.002354 
2364.000000	-0.001899 
2363.000000	-0.002020 
2362.000000	-0.002301 
2361.000000	-0.002179 
2360.000000	-0.001340 
2359.000000	-0.000305 
2358.000000	0.000092  
2357.000000	-0.000634 
2356.000000	-0.002187 
2355.000000	-0.003557 
2354.000000	-0.004210 
2353.000000	-0.004089 
2352.000000	-0.003572 
2351.000000	-0.003056 
2350.000000	-0.002555 
2349.000000	-0.002263 
2348.000000	-0.002148 
2347.000000	-0.002276 
2346.000000	-0.002278 
2345.000000	-0.001720 
2344.000000	-0.000897 
2343.000000	-0.000298 
2342.000000	-0.000757 
2341.000000	-0.002021 
2340.000000	-0.003037 
2339.000000	-0.003199 
2338.000000	-0.002987 
2337.000000	-0.003097 
2336.000000	-0.003553 
2335.000000	-0.003850 
2334.000000	-0.003874 
2333.000000	-0.003710 
2332.000000	-0.003415 
2331.000000	-0.002862 
2330.000000	-0.001833 
2329.000000	-0.000726 
2328.000000	0.000317  
2327.000000	0.000975  
2326.000000	0.001133  
2325.000000	0.000780  
2324.000000	-0.000099 
2323.000000	-0.001091 
2322.000000	-0.001964 
2321.000000	-0.002259 
2320.000000	-0.001846 
2319.000000	-0.000824 
2318.000000	0.000329  
2317.000000	0.001105  
2316.000000	0.001345  
2315.000000	0.001279  
2314.000000	0.001419  
2313.000000	0.002060  
2312.000000	0.003156  
2311.000000	0.004312  
2310.000000	0.005223  
2309.000000	0.005799  
2308.000000	0.006118  
2307.000000	0.006223  
2306.000000	0.006111  
2305.000000	0.005893  
2304.000000	0.005742  
2303.000000	0.005807  
2302.000000	0.006056  
2301.000000	0.006319  
2300.000000	0.006457  
2299.000000	0.006460  
2298.000000	0.006475  
2297.000000	0.006582  
2296.000000	0.006720  
2295.000000	0.006685  
2294.000000	0.006392  
2293.000000	0.005935  
2292.000000	0.005476  
2291.000000	0.005082  
2290.000000	0.004732  
2289.000000	0.004421  
2288.000000	0.004125  
2287.000000	0.003766  
2286.000000	0.003288  
2285.000000	0.002811  
2284.000000	0.002541  
2283.000000	0.002542  
2282.000000	0.002641  
2281.000000	0.002651  
2280.000000	0.002586  
2279.000000	0.002610  
2278.000000	0.002780  
2277.000000	0.002970  
2276.000000	0.003064  
2275.000000	0.003125  
2274.000000	0.003348  
2273.000000	0.003791  
2272.000000	0.004271  
2271.000000	0.004527  
2270.000000	0.004472  
2269.000000	0.004232  
2268.000000	0.003927  
2267.000000	0.003548  
2266.000000	0.003089  
2265.000000	0.002702  
2264.000000	0.002597  
2263.000000	0.002781  
2262.000000	0.003052  
2261.000000	0.003230  
2260.000000	0.003280  
2259.000000	0.003245  
2258.000000	0.003153  
2257.000000	0.003090  
2256.000000	0.003183  
2255.000000	0.003438  
2254.000000	0.003670  
2253.000000	0.003696  
2252.000000	0.003554  
2251.000000	0.003416  
2250.000000	0.003323  
2249.000000	0.003128  
2248.000000	0.002696  
2247.000000	0.002096  
2246.000000	0.001554  
2245.000000	0.001271  
2244.000000	0.001294  
2243.000000	0.001531  
2242.000000	0.001852  
2241.000000	0.002182  
2240.000000	0.002489  
2239.000000	0.002730  
2238.000000	0.002836  
2237.000000	0.002778  
2236.000000	0.002620  
2235.000000	0.002467  
2234.000000	0.002372  
2233.000000	0.002306  
2232.000000	0.002191  
2231.000000	0.001963  
2230.000000	0.001647  
2229.000000	0.001390  
2228.000000	0.001372  
2227.000000	0.001635  
2226.000000	0.002004  
2225.000000	0.002199  
2224.000000	0.002031  
2223.000000	0.001520  
2222.000000	0.000893  
2221.000000	0.000469  
2220.000000	0.000451  
2219.000000	0.000738  
2218.000000	0.001034  
2217.000000	0.001221  
2216.000000	0.001512  
2215.000000	0.002120  
2214.000000	0.002842  
2213.000000	0.003187  
2212.000000	0.002961  
2211.000000	0.002508  
2210.000000	0.002262  
2209.000000	0.002246  
2208.000000	0.002175  
2207.000000	0.001952  
2206.000000	0.001820  
2205.000000	0.002009  
2204.000000	0.002423  
2203.000000	0.002792  
2202.000000	0.002992  
2201.000000	0.003110  
2200.000000	0.003259  
2199.000000	0.003473  
2198.000000	0.003736  
2197.000000	0.003994  
2196.000000	0.004115  
2195.000000	0.003947  
2194.000000	0.003487  
2193.000000	0.002921  
2192.000000	0.002434  
2191.000000	0.002046  
2190.000000	0.001716  
2189.000000	0.001543  
2188.000000	0.001703  
2187.000000	0.002151  
2186.000000	0.002516  
2185.000000	0.002420  
2184.000000	0.001886  
2183.000000	0.001348  
2182.000000	0.001259  
2181.000000	0.001707  
2180.000000	0.002394  
2179.000000	0.002912  
2178.000000	0.003046  
2177.000000	0.002887  
2176.000000	0.002700  
2175.000000	0.002617  
2174.000000	0.002496  
2173.000000	0.002148  
2172.000000	0.001673  
2171.000000	0.001435  
2170.000000	0.001628  
2169.000000	0.001970  
2168.000000	0.001982  
2167.000000	0.001585  
2166.000000	0.001262  
2165.000000	0.001519  
2164.000000	0.002270  
2163.000000	0.002902  
2162.000000	0.002928  
2161.000000	0.002440  
2160.000000	0.001942  
2159.000000	0.001809  
2158.000000	0.002008  
2157.000000	0.002277  
2156.000000	0.002385  
2155.000000	0.002229  
2154.000000	0.001868  
2153.000000	0.001532  
2152.000000	0.001491  
2151.000000	0.001794  
2150.000000	0.002181  
2149.000000	0.002303  
2148.000000	0.002065  
2147.000000	0.001715  
2146.000000	0.001606  
2145.000000	0.001891  
2144.000000	0.002435  
2143.000000	0.002952  
2142.000000	0.003184  
2141.000000	0.003010  
2140.000000	0.002488  
2139.000000	0.001851  
2138.000000	0.001405  
2137.000000	0.001356  
2136.000000	0.001646  
2135.000000	0.001995  
2134.000000	0.002157  
2133.000000	0.002143  
2132.000000	0.002176  
2131.000000	0.002408  
2130.000000	0.002743  
2129.000000	0.002965  
2128.000000	0.002983  
2127.000000	0.002874  
2126.000000	0.002706  
2125.000000	0.002445  
2124.000000	0.002090  
2123.000000	0.001818  
2122.000000	0.001878  
2121.000000	0.002306  
2120.000000	0.002828  
2119.000000	0.003097  
2118.000000	0.003003  
2117.000000	0.002746  
2116.000000	0.002621  
2115.000000	0.002744  
2114.000000	0.002950  
2113.000000	0.002947  
2112.000000	0.002605  
2111.000000	0.002122  
2110.000000	0.001857  
2109.000000	0.001978  
2108.000000	0.002289  
2107.000000	0.002446  
2106.000000	0.002298  
2105.000000	0.001965  
2104.000000	0.001640  
2103.000000	0.001413  
2102.000000	0.001289  
2101.000000	0.001248  
2100.000000	0.001221  
2099.000000	0.001094  
2098.000000	0.000837  
2097.000000	0.000598  
2096.000000	0.000557  
2095.000000	0.000712  
2094.000000	0.000905  
2093.000000	0.001051  
2092.000000	0.001234  
2091.000000	0.001517  
2090.000000	0.001787  
2089.000000	0.001891  
2088.000000	0.001883  
2087.000000	0.001988  
2086.000000	0.002305  
2085.000000	0.002635  
2084.000000	0.002681  
2083.000000	0.002360  
2082.000000	0.001886  
2081.000000	0.001591  
2080.000000	0.001690  
2079.000000	0.002159  
2078.000000	0.002719  
2077.000000	0.002989  
2076.000000	0.002783  
2075.000000	0.002313  
2074.000000	0.002015  
2073.000000	0.002123  
2072.000000	0.002457  
2071.000000	0.002680  
2070.000000	0.002675  
2069.000000	0.002573  
2068.000000	0.002505  
2067.000000	0.002470  
2066.000000	0.002439  
2065.000000	0.002455  
2064.000000	0.002570  
2063.000000	0.002760  
2062.000000	0.002955  
2061.000000	0.003081  
2060.000000	0.003042  
2059.000000	0.002765  
2058.000000	0.002340  
2057.000000	0.002022  
2056.000000	0.001969  
2055.000000	0.002036  
2054.000000	0.001944  
2053.000000	0.001625  
2052.000000	0.001280  
2051.000000	0.001121  
2050.000000	0.001218  
2049.000000	0.001604  
2048.000000	0.002300  
2047.000000	0.003109  
2046.000000	0.003552  
2045.000000	0.003257  
2044.000000	0.002408  
2043.000000	0.001592  
2042.000000	0.001228  
2041.000000	0.001297  
2040.000000	0.001645  
2039.000000	0.002263  
2038.000000	0.003086  
2037.000000	0.003726  
2036.000000	0.003744  
2035.000000	0.003207  
2034.000000	0.002703  
2033.000000	0.002701  
2032.000000	0.003060  
2031.000000	0.003254  
2030.000000	0.002936  
2029.000000	0.002169  
2028.000000	0.001274  
2027.000000	0.000574  
2026.000000	0.000240  
2025.000000	0.000242  
2024.000000	0.000427  
2023.000000	0.000726  
2022.000000	0.001195  
2021.000000	0.001784  
2020.000000	0.002204  
2019.000000	0.002177  
2018.000000	0.001758  
2017.000000	0.001254  
2016.000000	0.000855  
2015.000000	0.000569  
2014.000000	0.000510  
2013.000000	0.000918  
2012.000000	0.001698  
2011.000000	0.002219  
2010.000000	0.001867  
2009.000000	0.000772  
2008.000000	-0.000256 
2007.000000	-0.000573 
2006.000000	-0.000237 
2005.000000	0.000307  
2004.000000	0.000786  
2003.000000	0.001216  
2002.000000	0.001687  
2001.000000	0.002211  
2000.000000	0.002689  
1999.000000	0.002908  
1998.000000	0.002654  
1997.000000	0.001984  
1996.000000	0.001297  
1995.000000	0.001000  
1994.000000	0.001144  
1993.000000	0.001453  
1992.000000	0.001664  
1991.000000	0.001753  
1990.000000	0.001822  
1989.000000	0.001946  
1988.000000	0.002180  
1987.000000	0.002529  
1986.000000	0.002854  
1985.000000	0.002957  
1984.000000	0.002842  
1983.000000	0.002724  
1982.000000	0.002715  
1981.000000	0.002643  
1980.000000	0.002335  
1979.000000	0.001935  
1978.000000	0.001703  
1977.000000	0.001587  
1976.000000	0.001316  
1975.000000	0.000896  
1974.000000	0.000636  
1973.000000	0.000662  
1972.000000	0.000744  
1971.000000	0.000724  
1970.000000	0.000788  
1969.000000	0.001124  
1968.000000	0.001560  
1967.000000	0.001785  
1966.000000	0.001803  
1965.000000	0.001866  
1964.000000	0.002071  
1963.000000	0.002271  
1962.000000	0.002336  
1961.000000	0.002292  
1960.000000	0.002224  
1959.000000	0.002197  
1958.000000	0.002242  
1957.000000	0.002282  
1956.000000	0.002115  
1955.000000	0.001618  
1954.000000	0.000972  
1953.000000	0.000561  
1952.000000	0.000627  
1951.000000	0.001102  
1950.000000	0.001727  
1949.000000	0.002226  
1948.000000	0.002404  
1947.000000	0.002246  
1946.000000	0.001957  
1945.000000	0.001810  
1944.000000	0.001893  
1943.000000	0.002061  
1942.000000	0.002153  
1941.000000	0.002156  
1940.000000	0.002112  
1939.000000	0.002037  
1938.000000	0.001999  
1937.000000	0.002133  
1936.000000	0.002468  
1935.000000	0.002838  
1934.000000	0.003053  
1933.000000	0.003094  
1932.000000	0.003074  
1931.000000	0.003062  
1930.000000	0.003014  
1929.000000	0.002877  
1928.000000	0.002660  
1927.000000	0.002392  
1926.000000	0.002089  
1925.000000	0.001794  
1924.000000	0.001605  
1923.000000	0.001610  
1922.000000	0.001811  
1921.000000	0.002116  
1920.000000	0.002401  
1919.000000	0.002548  
1918.000000	0.002519  
1917.000000	0.002416  
1916.000000	0.002372  
1915.000000	0.002355  
1914.000000	0.002225  
1913.000000	0.001943  
1912.000000	0.001665  
1911.000000	0.001591  
1910.000000	0.001740  
1909.000000	0.001961  
1908.000000	0.002132  
1907.000000	0.002243  
1906.000000	0.002306  
1905.000000	0.002302  
1904.000000	0.002230  
1903.000000	0.002148  
1902.000000	0.002126  
1901.000000	0.002183  
1900.000000	0.002273  
1899.000000	0.002327  
1898.000000	0.002310  
1897.000000	0.002243  
1896.000000	0.002193  
1895.000000	0.002215  
1894.000000	0.002310  
1893.000000	0.002428  
1892.000000	0.002517  
1891.000000	0.002557  
1890.000000	0.002568  
1889.000000	0.002598  
1888.000000	0.002651  
1887.000000	0.002642  
1886.000000	0.002496  
1885.000000	0.002275  
1884.000000	0.002128  
1883.000000	0.002111  
1882.000000	0.002138  
1881.000000	0.002129  
1880.000000	0.002102  
1879.000000	0.002101  
1878.000000	0.002114  
1877.000000	0.002134  
1876.000000	0.002221  
1875.000000	0.002432  
1874.000000	0.002709  
1873.000000	0.002913  
1872.000000	0.002970  
1871.000000	0.002912  
1870.000000	0.002783  
1869.000000	0.002590  
1868.000000	0.002403  
1867.000000	0.002332  
1866.000000	0.002375  
1865.000000	0.002445  
1864.000000	0.002495  
1863.000000	0.002533  
1862.000000	0.002564  
1861.000000	0.002573  
1860.000000	0.002559  
1859.000000	0.002566  
1858.000000	0.002630  
1857.000000	0.002735  
1856.000000	0.002819  
1855.000000	0.002787  
1854.000000	0.002593  
1853.000000	0.002323  
1852.000000	0.002156  
1851.000000	0.002189  
1850.000000	0.002328  
1849.000000	0.002378  
1848.000000	0.002267  
1847.000000	0.002132  
1846.000000	0.002169  
1845.000000	0.002427  
1844.000000	0.002723  
1843.000000	0.002829  
1842.000000	0.002697  
1841.000000	0.002445  
1840.000000	0.002219  
1839.000000	0.002125  
1838.000000	0.002188  
1837.000000	0.002332  
1836.000000	0.002441  
1835.000000	0.002462  
1834.000000	0.002416  
1833.000000	0.002327  
1832.000000	0.002179  
1831.000000	0.002012  
1830.000000	0.001974  
1829.000000	0.002161  
1828.000000	0.002458  
1827.000000	0.002674  
1826.000000	0.002731  
1825.000000	0.002682  
1824.000000	0.002633  
1823.000000	0.002656  
1822.000000	0.002725  
1821.000000	0.002746  
1820.000000	0.002642  
1819.000000	0.002458  
1818.000000	0.002343  
1817.000000	0.002397  
1816.000000	0.002562  
1815.000000	0.002700  
1814.000000	0.002728  
1813.000000	0.002655  
1812.000000	0.002547  
1811.000000	0.002506  
1810.000000	0.002601  
1809.000000	0.002791  
1808.000000	0.002980  
1807.000000	0.003092  
1806.000000	0.003091  
1805.000000	0.003000  
1804.000000	0.002898  
1803.000000	0.002875  
1802.000000	0.002971  
1801.000000	0.003147  
1800.000000	0.003347  
1799.000000	0.003525  
1798.000000	0.003613  
1797.000000	0.003576  
1796.000000	0.003476  
1795.000000	0.003405  
1794.000000	0.003395  
1793.000000	0.003400  
1792.000000	0.003365  
1791.000000	0.003309  
1790.000000	0.003274  
1789.000000	0.003265  
1788.000000	0.003283  
1787.000000	0.003348  
1786.000000	0.003461  
1785.000000	0.003592  
1784.000000	0.003689  
1783.000000	0.003719  
1782.000000	0.003707  
1781.000000	0.003743  
1780.000000	0.003899  
1779.000000	0.004136  
1778.000000	0.004337  
1777.000000	0.004444  
1776.000000	0.004488  
1775.000000	0.004506  
1774.000000	0.004517  
1773.000000	0.004532  
1772.000000	0.004538  
1771.000000	0.004522  
1770.000000	0.004529  
1769.000000	0.004633  
1768.000000	0.004848  
1767.000000	0.005099  
1766.000000	0.005301  
1765.000000	0.005458  
1764.000000	0.005648  
1763.000000	0.005945  
1762.000000	0.006365  
1761.000000	0.006857  
1760.000000	0.007341  
1759.000000	0.007796  
1758.000000	0.008308  
1757.000000	0.009013  
1756.000000	0.009899  
1755.000000	0.010839  
1754.000000	0.011885  
1753.000000	0.013370  
1752.000000	0.015655  
1751.000000	0.018768  
1750.000000	0.022555  
1749.000000	0.027122  
1748.000000	0.032543  
1747.000000	0.038549  
1746.000000	0.044908  
1745.000000	0.051576  
1744.000000	0.058135  
1743.000000	0.063637  
1742.000000	0.067345  
1741.000000	0.069002  
1740.000000	0.068385  
1739.000000	0.065669  
1738.000000	0.061872  
1737.000000	0.057732  
1736.000000	0.052942  
1735.000000	0.046681  
1734.000000	0.039629  
1733.000000	0.033932  
1732.000000	0.030071  
1731.000000	0.027130  
1730.000000	0.024665  
1729.000000	0.022703  
1728.000000	0.021230  
1727.000000	0.020066  
1726.000000	0.019050  
1725.000000	0.018108  
1724.000000	0.017186  
1723.000000	0.016282  
1722.000000	0.015442  
1721.000000	0.014670  
1720.000000	0.013906  
1719.000000	0.013146  
1718.000000	0.012453  
1717.000000	0.011756  
1716.000000	0.011019  
1715.000000	0.010373  
1714.000000	0.009880  
1713.000000	0.009483  
1712.000000	0.009084  
1711.000000	0.008639  
1710.000000	0.008190  
1709.000000	0.007770  
1708.000000	0.007377  
1707.000000	0.007050  
1706.000000	0.006862  
1705.000000	0.006784  
1704.000000	0.006760  
1703.000000	0.006787  
1702.000000	0.006888  
1701.000000	0.006957  
1700.000000	0.006915  
1699.000000	0.006883  
1698.000000	0.006895  
1697.000000	0.006792  
1696.000000	0.006504  
1695.000000	0.006245  
1694.000000	0.006107  
1693.000000	0.005980  
1692.000000	0.005836  
1691.000000	0.005725  
1690.000000	0.005698  
1689.000000	0.005712  
1688.000000	0.005705  
1687.000000	0.005662  
1686.000000	0.005627  
1685.000000	0.005616  
1684.000000	0.005590  
1683.000000	0.005587  
1682.000000	0.005631  
1681.000000	0.005675  
1680.000000	0.005646  
1679.000000	0.005541  
1678.000000	0.005368  
1677.000000	0.005173  
1676.000000	0.005027  
1675.000000	0.005042  
1674.000000	0.005240  
1673.000000	0.005514  
1672.000000	0.005767  
1671.000000	0.005974  
1670.000000	0.006140  
1669.000000	0.006291  
1668.000000	0.006413  
1667.000000	0.006468  
1666.000000	0.006501  
1665.000000	0.006606  
1664.000000	0.006836  
1663.000000	0.007147  
1662.000000	0.007428  
1661.000000	0.007641  
1660.000000	0.007813  
1659.000000	0.007954  
1658.000000	0.007997  
1657.000000	0.007961  
1656.000000	0.007892  
1655.000000	0.007927  
1654.000000	0.008162  
1653.000000	0.008578  
1652.000000	0.008969  
1651.000000	0.009060  
1650.000000	0.009016  
1649.000000	0.009064  
1648.000000	0.009272  
1647.000000	0.009404  
1646.000000	0.009331  
1645.000000	0.009161  
1644.000000	0.008984  
1643.000000	0.008837  
1642.000000	0.008796  
1641.000000	0.008834  
1640.000000	0.008873  
1639.000000	0.008852  
1638.000000	0.008800  
1637.000000	0.008782  
1636.000000	0.008800  
1635.000000	0.008812  
1634.000000	0.008810  
1633.000000	0.008798  
1632.000000	0.008775  
1631.000000	0.008732  
1630.000000	0.008635  
1629.000000	0.008513  
1628.000000	0.008410  
1627.000000	0.008327  
1626.000000	0.008249  
1625.000000	0.008189  
1624.000000	0.008151  
1623.000000	0.008081  
1622.000000	0.007953  
1621.000000	0.007837  
1620.000000	0.007773  
1619.000000	0.007735  
1618.000000	0.007656  
1617.000000	0.007524  
1616.000000	0.007408  
1615.000000	0.007306  
1614.000000	0.007184  
1613.000000	0.007080  
1612.000000	0.007040  
1611.000000	0.007056  
1610.000000	0.007084  
1609.000000	0.007099  
1608.000000	0.007080  
1607.000000	0.006979  
1606.000000	0.006809  
1605.000000	0.006649  
1604.000000	0.006559  
1603.000000	0.006512  
1602.000000	0.006472  
1601.000000	0.006444  
1600.000000	0.006421  
1599.000000	0.006354  
1598.000000	0.006238  
1597.000000	0.006153  
1596.000000	0.006167  
1595.000000	0.006255  
1594.000000	0.006350  
1593.000000	0.006457  
1592.000000	0.006621  
1591.000000	0.006826  
1590.000000	0.006993  
1589.000000	0.007079  
1588.000000	0.007100  
1587.000000	0.007085  
1586.000000	0.007072  
1585.000000	0.007115  
1584.000000	0.007232  
1583.000000	0.007373  
1582.000000	0.007476  
1581.000000	0.007555  
1580.000000	0.007678  
1579.000000	0.007883  
1578.000000	0.008147  
1577.000000	0.008393  
1576.000000	0.008540  
1575.000000	0.008568  
1574.000000	0.008570  
1573.000000	0.008652  
1572.000000	0.008807  
1571.000000	0.008940  
1570.000000	0.008948  
1569.000000	0.008892  
1568.000000	0.008852  
1567.000000	0.008782  
1566.000000	0.008609  
1565.000000	0.008388  
1564.000000	0.008151  
1563.000000	0.007922  
1562.000000	0.007671  
1561.000000	0.007458  
1560.000000	0.007464  
1559.000000	0.007517  
1558.000000	0.007394  
1557.000000	0.007423  
1556.000000	0.007631  
1555.000000	0.007756  
1554.000000	0.007839  
1553.000000	0.007749  
1552.000000	0.007507  
1551.000000	0.007142  
1550.000000	0.006837  
1549.000000	0.006714  
1548.000000	0.006738  
1547.000000	0.006777  
1546.000000	0.006800  
1545.000000	0.006806  
1544.000000	0.006769  
1543.000000	0.006710  
1542.000000	0.006759  
1541.000000	0.006872  
1540.000000	0.006818  
1539.000000	0.006672  
1538.000000	0.006624  
1537.000000	0.006632  
1536.000000	0.006624  
1535.000000	0.006591  
1534.000000	0.006496  
1533.000000	0.006345  
1532.000000	0.006216  
1531.000000	0.006161  
1530.000000	0.006110  
1529.000000	0.006022  
1528.000000	0.005946  
1527.000000	0.005995  
1526.000000	0.006220  
1525.000000	0.006498  
1524.000000	0.006655  
1523.000000	0.006669  
1522.000000	0.006648  
1521.000000	0.006663  
1520.000000	0.006687  
1519.000000	0.006666  
1518.000000	0.006630  
1517.000000	0.006640  
1516.000000	0.006705  
1515.000000	0.006839  
1514.000000	0.007053  
1513.000000	0.007307  
1512.000000	0.007485  
1511.000000	0.007531  
1510.000000	0.007537  
1509.000000	0.007690  
1508.000000	0.008021  
1507.000000	0.008344  
1506.000000	0.008742  
1505.000000	0.009223  
1504.000000	0.009461  
1503.000000	0.009434  
1502.000000	0.009360  
1501.000000	0.009297  
1500.000000	0.009231  
1499.000000	0.009210  
1498.000000	0.009494  
1497.000000	0.010098  
1496.000000	0.010609  
1495.000000	0.010829  
1494.000000	0.010996  
1493.000000	0.011264  
1492.000000	0.011511  
1491.000000	0.011601  
1490.000000	0.011686  
1489.000000	0.011971  
1488.000000	0.012424  
1487.000000	0.012932  
1486.000000	0.013466  
1485.000000	0.014059  
1484.000000	0.014699  
1483.000000	0.015422  
1482.000000	0.016364  
1481.000000	0.017540  
1480.000000	0.018763  
1479.000000	0.019962  
1478.000000	0.021355  
1477.000000	0.023142  
1476.000000	0.025249  
1475.000000	0.027735  
1474.000000	0.031303  
1473.000000	0.036689  
1472.000000	0.043342  
1471.000000	0.050036  
1470.000000	0.056330  
1469.000000	0.062180  
1468.000000	0.067319  
1467.000000	0.071540  
1466.000000	0.074953  
1465.000000	0.077635  
1464.000000	0.079420  
1463.000000	0.080410  
1462.000000	0.081011  
1461.000000	0.081479  
1460.000000	0.081878  
1459.000000	0.082320  
1458.000000	0.082876  
1457.000000	0.082835  
1456.000000	0.081438  
1455.000000	0.079179  
1454.000000	0.076704  
1453.000000	0.074051  
1452.000000	0.071229  
1451.000000	0.068455  
1450.000000	0.065910  
1449.000000	0.063395  
1448.000000	0.060692  
1447.000000	0.057980  
1446.000000	0.055488  
1445.000000	0.053068  
1444.000000	0.050492  
1443.000000	0.047782  
1442.000000	0.045137  
1441.000000	0.042717  
1440.000000	0.040538  
1439.000000	0.038492  
1438.000000	0.036408  
1437.000000	0.034265  
1436.000000	0.032377  
1435.000000	0.030983  
1434.000000	0.029830  
1433.000000	0.028537  
1432.000000	0.027007  
1431.000000	0.025399  
1430.000000	0.023916  
1429.000000	0.022656  
1428.000000	0.021665  
1427.000000	0.020937  
1426.000000	0.020388  
1425.000000	0.019938  
1424.000000	0.019561  
1423.000000	0.019257  
1422.000000	0.018991  
1421.000000	0.018692  
1420.000000	0.018336  
1419.000000	0.017987  
1418.000000	0.017709  
1417.000000	0.017467  
1416.000000	0.017190  
1415.000000	0.016871  
1414.000000	0.016543  
1413.000000	0.016232  
1412.000000	0.015944  
1411.000000	0.015672  
1410.000000	0.015435  
1409.000000	0.015272  
1408.000000	0.015219  
1407.000000	0.015302  
1406.000000	0.015513  
1405.000000	0.015822  
1404.000000	0.016189  
1403.000000	0.016569  
1402.000000	0.016921  
1401.000000	0.017238  
1400.000000	0.017573  
1399.000000	0.017940  
1398.000000	0.018289  
1397.000000	0.018592  
1396.000000	0.018883  
1395.000000	0.019205  
1394.000000	0.019591  
1393.000000	0.020043  
1392.000000	0.020520  
1391.000000	0.021014  
1390.000000	0.021587  
1389.000000	0.022382  
1388.000000	0.023579  
1387.000000	0.025215  
1386.000000	0.027120  
1385.000000	0.029159  
1384.000000	0.031392  
1383.000000	0.033970  
1382.000000	0.036964  
1381.000000	0.040252  
1380.000000	0.043461  
1379.000000	0.045964  
1378.000000	0.047149  
1377.000000	0.046802  
1376.000000	0.045099  
1375.000000	0.042394  
1374.000000	0.039255  
1373.000000	0.036359  
1372.000000	0.034081  
1371.000000	0.032389  
1370.000000	0.031175  
1369.000000	0.030427  
1368.000000	0.030065  
1367.000000	0.029829  
1366.000000	0.029410  
1365.000000	0.028633  
1364.000000	0.027520  
1363.000000	0.026258  
1362.000000	0.025118  
1361.000000	0.024300  
1360.000000	0.023808  
1359.000000	0.023503  
1358.000000	0.023254  
1357.000000	0.023025  
1356.000000	0.022866  
1355.000000	0.022828  
1354.000000	0.022880  
1353.000000	0.022921  
1352.000000	0.022886  
1351.000000	0.022785  
1350.000000	0.022637  
1349.000000	0.022452  
1348.000000	0.022218  
1347.000000	0.021911  
1346.000000	0.021537  
1345.000000	0.021163  
1344.000000	0.020874  
1343.000000	0.020679  
1342.000000	0.020502  
1341.000000	0.020261  
1340.000000	0.019929  
1339.000000	0.019526  
1338.000000	0.019098  
1337.000000	0.018694  
1336.000000	0.018343  
1335.000000	0.018053  
1334.000000	0.017800  
1333.000000	0.017559  
1332.000000	0.017352  
1331.000000	0.017221  
1330.000000	0.017167  
1329.000000	0.017163  
1328.000000	0.017198  
1327.000000	0.017278  
1326.000000	0.017386  
1325.000000	0.017501  
1324.000000	0.017615  
1323.000000	0.017723  
1322.000000	0.017820  
1321.000000	0.017910  
1320.000000	0.018018  
1319.000000	0.018165  
1318.000000	0.018340  
1317.000000	0.018511  
1316.000000	0.018659  
1315.000000	0.018790  
1314.000000	0.018924  
1313.000000	0.019064  
1312.000000	0.019199  
1311.000000	0.019329  
1310.000000	0.019473  
1309.000000	0.019647  
1308.000000	0.019847  
1307.000000	0.020041  
1306.000000	0.020195  
1305.000000	0.020295  
1304.000000	0.020330  
1303.000000	0.020293  
1302.000000	0.020194  
1301.000000	0.020066  
1300.000000	0.019941  
1299.000000	0.019817  
1298.000000	0.019672  
1297.000000	0.019497  
1296.000000	0.019302  
1295.000000	0.019096  
1294.000000	0.018873  
1293.000000	0.018634  
1292.000000	0.018405  
1291.000000	0.018234  
1290.000000	0.018161  
1289.000000	0.018190  
1288.000000	0.018300  
1287.000000	0.018475  
1286.000000	0.018718  
1285.000000	0.019030  
1284.000000	0.019374  
1283.000000	0.019693  
1282.000000	0.019958  
1281.000000	0.020187  
1280.000000	0.020413  
1279.000000	0.020641  
1278.000000	0.020853  
1277.000000	0.021054  
1276.000000	0.021275  
1275.000000	0.021536  
1274.000000	0.021814  
1273.000000	0.022073  
1272.000000	0.022286  
1271.000000	0.022447  
1270.000000	0.022569  
1269.000000	0.022674  
1268.000000	0.022776  
1267.000000	0.022862  
1266.000000	0.022903  
1265.000000	0.022893  
1264.000000	0.022866  
1263.000000	0.022890  
1262.000000	0.023028  
1261.000000	0.023271  
1260.000000	0.023536  
1259.000000	0.023726  
1258.000000	0.023815  
1257.000000	0.023850  
1256.000000	0.023878  
1255.000000	0.023920  
1254.000000	0.024017  
1253.000000	0.024249  
1252.000000	0.024653  
1251.000000	0.025154  
1250.000000	0.025622  
1249.000000	0.026010  
1248.000000	0.026380  
1247.000000	0.026793  
1246.000000	0.027222  
1245.000000	0.027577  
1244.000000	0.027791  
1243.000000	0.027863  
1242.000000	0.027825  
1241.000000	0.027702  
1240.000000	0.027496  
1239.000000	0.027202  
1238.000000	0.026829  
1237.000000	0.026411  
1236.000000	0.025992  
1235.000000	0.025595  
1234.000000	0.025206  
1233.000000	0.024791  
1232.000000	0.024340  
1231.000000	0.023883  
1230.000000	0.023457  
1229.000000	0.023074  
1228.000000	0.022738  
1227.000000	0.022475  
1226.000000	0.022305  
1225.000000	0.022199  
1224.000000	0.022101  
1223.000000	0.021989  
1222.000000	0.021885  
1221.000000	0.021804  
1220.000000	0.021729  
1219.000000	0.021658  
1218.000000	0.021640  
1217.000000	0.021732  
1216.000000	0.021930  
1215.000000	0.022165  
1214.000000	0.022369  
1213.000000	0.022511  
1212.000000	0.022608  
1211.000000	0.022718  
1210.000000	0.022902  
1209.000000	0.023162  
1208.000000	0.023427  
1207.000000	0.023642  
1206.000000	0.023847  
1205.000000	0.024123  
1204.000000	0.024481  
1203.000000	0.024859  
1202.000000	0.025223  
1201.000000	0.025618  
1200.000000	0.026098  
1199.000000	0.026664  
1198.000000	0.027292  
1197.000000	0.027974  
1196.000000	0.028703  
1195.000000	0.029463  
1194.000000	0.030257  
1193.000000	0.031105  
1192.000000	0.031989  
1191.000000	0.032834  
1190.000000	0.033590  
1189.000000	0.034300  
1188.000000	0.035050  
1187.000000	0.035878  
1186.000000	0.036767  
1185.000000	0.037685  
1184.000000	0.038605  
1183.000000	0.039506  
1182.000000	0.040382  
1181.000000	0.041238  
1180.000000	0.042045  
1179.000000	0.042732  
1178.000000	0.043250  
1177.000000	0.043620  
1176.000000	0.043882  
1175.000000	0.044038  
1174.000000	0.044059  
1173.000000	0.043937  
1172.000000	0.043679  
1171.000000	0.043292  
1170.000000	0.042793  
1169.000000	0.042222  
1168.000000	0.041612  
1167.000000	0.040966  
1166.000000	0.040264  
1165.000000	0.039487  
1164.000000	0.038601  
1163.000000	0.037578  
1162.000000	0.036451  
1161.000000	0.035322  
1160.000000	0.034295  
1159.000000	0.033388  
1158.000000	0.032549  
1157.000000	0.031728  
1156.000000	0.030902  
1155.000000	0.030057  
1154.000000	0.029191  
1153.000000	0.028347  
1152.000000	0.027597  
1151.000000	0.026973  
1150.000000	0.026446  
1149.000000	0.025969  
1148.000000	0.025527  
1147.000000	0.025114  
1146.000000	0.024695  
1145.000000	0.024221  
1144.000000	0.023657  
1143.000000	0.023007  
1142.000000	0.022314  
1141.000000	0.021644  
1140.000000	0.021045  
1139.000000	0.020519  
1138.000000	0.020049  
1137.000000	0.019658  
1136.000000	0.019382  
1135.000000	0.019187  
1134.000000	0.018968  
1133.000000	0.018680  
1132.000000	0.018408  
1131.000000	0.018286  
1130.000000	0.018362  
1129.000000	0.018593  
1128.000000	0.018926  
1127.000000	0.019326  
1126.000000	0.019759  
1125.000000	0.020195  
1124.000000	0.020640  
1123.000000	0.021111  
1122.000000	0.021574  
1121.000000	0.021970  
1120.000000	0.022272  
1119.000000	0.022484  
1118.000000	0.022597  
1117.000000	0.022576  
1116.000000	0.022425  
1115.000000	0.022190  
1114.000000	0.021904  
1113.000000	0.021558  
1112.000000	0.021160  
1111.000000	0.020770  
1110.000000	0.020442  
1109.000000	0.020181  
1108.000000	0.019972  
1107.000000	0.019852  
1106.000000	0.019867  
1105.000000	0.019980  
1104.000000	0.020079  
1103.000000	0.020090  
1102.000000	0.020057  
1101.000000	0.020083  
1100.000000	0.020210  
1099.000000	0.020396  
1098.000000	0.020566  
1097.000000	0.020685  
1096.000000	0.020761  
1095.000000	0.020801  
1094.000000	0.020784  
1093.000000	0.020699  
1092.000000	0.020585  
1091.000000	0.020488  
1090.000000	0.020404  
1089.000000	0.020284  
1088.000000	0.020115  
1087.000000	0.019963  
1086.000000	0.019913  
1085.000000	0.019987  
1084.000000	0.020135  
1083.000000	0.020291  
1082.000000	0.020417  
1081.000000	0.020522  
1080.000000	0.020666  
1079.000000	0.020946  
1078.000000	0.021416  
1077.000000	0.022049  
1076.000000	0.022764  
1075.000000	0.023498  
1074.000000	0.024207  
1073.000000	0.024827  
1072.000000	0.025269  
1071.000000	0.025498  
1070.000000	0.025584  
1069.000000	0.025635  
1068.000000	0.025697  
1067.000000	0.025743  
1066.000000	0.025744  
1065.000000	0.025721  
1064.000000	0.025712  
1063.000000	0.025699  
1062.000000	0.025598  
1061.000000	0.025322  
1060.000000	0.024860  
1059.000000	0.024295  
1058.000000	0.023747  
1057.000000	0.023305  
1056.000000	0.023017  
1055.000000	0.022887  
1054.000000	0.022853  
1053.000000	0.022768  
1052.000000	0.022513  
1051.000000	0.022154  
1050.000000	0.021934  
1049.000000	0.022031  
1048.000000	0.022363  
1047.000000	0.022689  
1046.000000	0.022850  
1045.000000	0.022869  
1044.000000	0.022861  
1043.000000	0.022917  
1042.000000	0.023059  
1041.000000	0.023230  
1040.000000	0.023324  
1039.000000	0.023259  
1038.000000	0.023047  
1037.000000	0.022786  
1036.000000	0.022583  
1035.000000	0.022490  
1034.000000	0.022513  
1033.000000	0.022619  
1032.000000	0.022742  
1031.000000	0.022796  
1030.000000	0.022733  
1029.000000	0.022573  
1028.000000	0.022363  
1027.000000	0.022133  
1026.000000	0.021892  
1025.000000	0.021627  
1024.000000	0.021308  
1023.000000	0.020904  
1022.000000	0.020427  
1021.000000	0.019941  
1020.000000	0.019496  
1019.000000	0.019076  
1018.000000	0.018645  
1017.000000	0.018236  
1016.000000	0.017938  
1015.000000	0.017803  
1014.000000	0.017778  
1013.000000	0.017750  
1012.000000	0.017642  
1011.000000	0.017453  
1010.000000	0.017233  
1009.000000	0.017042  
1008.000000	0.016907  
1007.000000	0.016801  
1006.000000	0.016667  
1005.000000	0.016478  
1004.000000	0.016265  
1003.000000	0.016086  
1002.000000	0.015972  
1001.000000	0.015896  
1000.000000	0.015787  
999.000000	 0.015586  
998.000000	 0.015301  
997.000000	 0.015019  
996.000000	 0.014864  
995.000000	 0.014891  
994.000000	 0.015044  
993.000000	 0.015193  
992.000000	 0.015232  
991.000000	 0.015146  
990.000000	 0.015011  
989.000000	 0.014916  
988.000000	 0.014885  
987.000000	 0.014857  
986.000000	 0.014761  
985.000000	 0.014614  
984.000000	 0.014517  
983.000000	 0.014542  
982.000000	 0.014655  
981.000000	 0.014762  
980.000000	 0.014825  
979.000000	 0.014889  
978.000000	 0.015019  
977.000000	 0.015230  
976.000000	 0.015478  
975.000000	 0.015697  
974.000000	 0.015855  
973.000000	 0.015967  
972.000000	 0.016095  
971.000000	 0.016298  
970.000000	 0.016580  
969.000000	 0.016885  
968.000000	 0.017128  
967.000000	 0.017253  
966.000000	 0.017243  
965.000000	 0.017112  
964.000000	 0.016889  
963.000000	 0.016625  
962.000000	 0.016399  
961.000000	 0.016277  
960.000000	 0.016263  
959.000000	 0.016290  
958.000000	 0.016288  
957.000000	 0.016251  
956.000000	 0.016231  
955.000000	 0.016259  
954.000000	 0.016309  
953.000000	 0.016343  
952.000000	 0.016357  
951.000000	 0.016369  
950.000000	 0.016370  
949.000000	 0.016323  
948.000000	 0.016205  
947.000000	 0.016035  
946.000000	 0.015864  
945.000000	 0.015729  
944.000000	 0.015623  
943.000000	 0.015498  
942.000000	 0.015304  
941.000000	 0.015028  
940.000000	 0.014681  
939.000000	 0.014283  
938.000000	 0.013859  
937.000000	 0.013461  
936.000000	 0.013143  
935.000000	 0.012912  
934.000000	 0.012743  
933.000000	 0.012640  
932.000000	 0.012649  
931.000000	 0.012771  
930.000000	 0.012902  
929.000000	 0.012918  
928.000000	 0.012820  
927.000000	 0.012741  
926.000000	 0.012795  
925.000000	 0.012955  
924.000000	 0.013108  
923.000000	 0.013186  
922.000000	 0.013206  
921.000000	 0.013206  
920.000000	 0.013178  
919.000000	 0.013097  
918.000000	 0.012993  
917.000000	 0.012951  
916.000000	 0.013023  
915.000000	 0.013157  
914.000000	 0.013233  
913.000000	 0.013178  
912.000000	 0.013012  
911.000000	 0.012806  
910.000000	 0.012632  
909.000000	 0.012554  
908.000000	 0.012601  
907.000000	 0.012709  
906.000000	 0.012739  
905.000000	 0.012608  
904.000000	 0.012396  
903.000000	 0.012257  
902.000000	 0.012240  
901.000000	 0.012252  
900.000000	 0.012197  
899.000000	 0.012088  
898.000000	 0.011998  
897.000000	 0.011967  
896.000000	 0.011973  
895.000000	 0.011984  
894.000000	 0.011979  
893.000000	 0.011952  
892.000000	 0.011920  
891.000000	 0.011917  
890.000000	 0.011970  
889.000000	 0.012071  
888.000000	 0.012188  
887.000000	 0.012285  
886.000000	 0.012335  
885.000000	 0.012326  
884.000000	 0.012284  
883.000000	 0.012257  
882.000000	 0.012279  
881.000000	 0.012350  
880.000000	 0.012447  
879.000000	 0.012551  
878.000000	 0.012641  
877.000000	 0.012689  
876.000000	 0.012689  
875.000000	 0.012670  
874.000000	 0.012658  
873.000000	 0.012623  
872.000000	 0.012510  
871.000000	 0.012331  
870.000000	 0.012209  
869.000000	 0.012279  
868.000000	 0.012536  
867.000000	 0.012807  
866.000000	 0.012897  
865.000000	 0.012766  
864.000000	 0.012539  
863.000000	 0.012352  
862.000000	 0.012243  
861.000000	 0.012199  
860.000000	 0.012244  
859.000000	 0.012398  
858.000000	 0.012598  
857.000000	 0.012737  
856.000000	 0.012818  
855.000000	 0.012979  
854.000000	 0.013335  
853.000000	 0.013831  
852.000000	 0.014300  
851.000000	 0.014635  
850.000000	 0.014856  
849.000000	 0.015025  
848.000000	 0.015159  
847.000000	 0.015248  
846.000000	 0.015306  
845.000000	 0.015367  
844.000000	 0.015436  
843.000000	 0.015471  
842.000000	 0.015423  
841.000000	 0.015287  
840.000000	 0.015106  
839.000000	 0.014936  
838.000000	 0.014801  
837.000000	 0.014661  
836.000000	 0.014430  
835.000000	 0.014028  
834.000000	 0.013474  
833.000000	 0.012921  
832.000000	 0.012562  
831.000000	 0.012465  
830.000000	 0.012517  
829.000000	 0.012559  
828.000000	 0.012561  
827.000000	 0.012629  
826.000000	 0.012831  
825.000000	 0.013095  
824.000000	 0.013290  
823.000000	 0.013347  
822.000000	 0.013281  
821.000000	 0.013148  
820.000000	 0.013030  
819.000000	 0.013007  
818.000000	 0.013120  
817.000000	 0.013340  
816.000000	 0.013589  
815.000000	 0.013771  
814.000000	 0.013794  
813.000000	 0.013632  
812.000000	 0.013380  
811.000000	 0.013216  
810.000000	 0.013281  
809.000000	 0.013577  
808.000000	 0.013978  
807.000000	 0.014311  
806.000000	 0.014427  
805.000000	 0.014243  
804.000000	 0.013801  
803.000000	 0.013267  
802.000000	 0.012834  
801.000000	 0.012592  
800.000000	 0.012481  
799.000000	 0.012383  
798.000000	 0.012239  
797.000000	 0.012077  
796.000000	 0.011950  
795.000000	 0.011865  
794.000000	 0.011796  
793.000000	 0.011758  
792.000000	 0.011820  
791.000000	 0.012019  
790.000000	 0.012283  
789.000000	 0.012474  
788.000000	 0.012530  
787.000000	 0.012545  
786.000000	 0.012680  
785.000000	 0.012993  
784.000000	 0.013383  
783.000000	 0.013694  
782.000000	 0.013884  
781.000000	 0.014063  
780.000000	 0.014356  
779.000000	 0.014765  
778.000000	 0.015179  
777.000000	 0.015520  
776.000000	 0.015846  
775.000000	 0.016271  
774.000000	 0.016824  
773.000000	 0.017414  
772.000000	 0.017913  
771.000000	 0.018253  
770.000000	 0.018432  
769.000000	 0.018491  
768.000000	 0.018487  
767.000000	 0.018456  
766.000000	 0.018377  
765.000000	 0.018201  
764.000000	 0.017951  
763.000000	 0.017771  
762.000000	 0.017827  
761.000000	 0.018149  
760.000000	 0.018586  
759.000000	 0.018934  
758.000000	 0.019109  
757.000000	 0.019201  
756.000000	 0.019359  
755.000000	 0.019634  
754.000000	 0.019952  
753.000000	 0.020233  
752.000000	 0.020494  
751.000000	 0.020819  
750.000000	 0.021245  
749.000000	 0.021737  
748.000000	 0.022279  
747.000000	 0.022961  
746.000000	 0.023926  
745.000000	 0.025224  
744.000000	 0.026719  
743.000000	 0.028165  
742.000000	 0.029369  
741.000000	 0.030291  
740.000000	 0.031021  
739.000000	 0.031656  
738.000000	 0.032207  
737.000000	 0.032611  
736.000000	 0.032817  
735.000000	 0.032863  
734.000000	 0.032888  
733.000000	 0.033068  
732.000000	 0.033508  
731.000000	 0.034139  
730.000000	 0.034796  
729.000000	 0.035445  
728.000000	 0.036264  
727.000000	 0.037426  
726.000000	 0.038855  
725.000000	 0.040266  
724.000000	 0.041429  
723.000000	 0.042310  
722.000000	 0.042876  
721.000000	 0.042820  
720.000000	 0.041717  
719.000000	 0.039603  
718.000000	 0.037128  
717.000000	 0.035016  
716.000000	 0.033601  
715.000000	 0.032761  
714.000000	 0.032122  
713.000000	 0.031355  
712.000000	 0.030366  
711.000000	 0.029309  
710.000000	 0.028444  
709.000000	 0.027939  
708.000000	 0.027756  
707.000000	 0.027710  
706.000000	 0.027713  
705.000000	 0.027854  
704.000000	 0.028162  
703.000000	 0.028451  
702.000000	 0.028469  
701.000000	 0.028180  
700.000000	 0.027808  
699.000000	 0.027536  
698.000000	 0.027291  
697.000000	 0.026860  
696.000000	 0.026176  
695.000000	 0.025487  
694.000000	 0.025105  
693.000000	 0.025010  
692.000000	 0.024791  
691.000000	 0.024012  
690.000000	 0.022692  
689.000000	 0.021313  
688.000000	 0.020296  
687.000000	 0.019627  
686.000000	 0.019058  
685.000000	 0.018532  
684.000000	 0.018191  
683.000000	 0.018061  
682.000000	 0.017990  
681.000000	 0.017854  
680.000000	 0.017634  
679.000000	 0.017271  
678.000000	 0.016750  
677.000000	 0.016385  
676.000000	 0.016358  
675.000000	 0.016537  
674.000000	 0.016732  
673.000000	 0.016604  
672.000000	 0.014986  
671.000000	 0.009657  
670.000000	 -0.000856 
669.000000	 -0.015275 
668.000000	 -0.025259 
667.000000	 -0.019752 
666.000000	 -0.005092 
665.000000	 0.006569  
664.000000	 0.012588  
663.000000	 0.014773  
662.000000	 0.015134  
661.000000	 0.014700  
660.000000	 0.014080  
659.000000	 0.013838  
658.000000	 0.014005  
657.000000	 0.014018  
656.000000	 0.013248  
655.000000	 0.011849  
654.000000	 0.010672  
653.000000	 0.010402  
652.000000	 0.010981  
651.000000	 0.011841  
650.000000	 0.012479  

