PE IR                   SPECTRUM    ASCII       PEDS        1.60        
  -1
NB4-20~2.ASC
17/04/10
13:44:43.00
17/04/10
13:44:43.00
Admin

650.000000
6









SPECTRUM ONE,CPU32 MAIN 00.02.5000 17-APRIL-2002 13:00:00
MIR TGS
MIR
OPTKBR
68128
0.200000

4.000000
STRONG
RATIO
SPECTRUM
MAGNITUDE

DOUBLE

COMBINED


0


#HDR
-1
-1
#GR
CM-1
A
0.00000011920928955078
0.0
4000.000000
-1.000000
3351
8
0.207431
-0.018963
#DATA
4000.000000	0.001944  
3999.000000	0.002007  
3998.000000	0.002143  
3997.000000	0.002358  
3996.000000	0.002346  
3995.000000	0.002516  
3994.000000	0.002580  
3993.000000	0.002516  
3992.000000	0.002375  
3991.000000	0.002247  
3990.000000	0.002188  
3989.000000	0.002176  
3988.000000	0.002135  
3987.000000	0.002023  
3986.000000	0.001888  
3985.000000	0.001819  
3984.000000	0.001842  
3983.000000	0.001875  
3982.000000	0.001807  
3981.000000	0.001625  
3980.000000	0.001430  
3979.000000	0.001341  
3978.000000	0.001391  
3977.000000	0.001529  
3976.000000	0.001700  
3975.000000	0.001882  
3974.000000	0.002049  
3973.000000	0.002142  
3972.000000	0.002107  
3971.000000	0.001967  
3970.000000	0.001820  
3969.000000	0.001749  
3968.000000	0.001753  
3967.000000	0.001759  
3966.000000	0.001721  
3965.000000	0.001675  
3964.000000	0.001692  
3963.000000	0.001806  
3962.000000	0.001974  
3961.000000	0.002122  
3960.000000	0.002202  
3959.000000	0.002208  
3958.000000	0.002156  
3957.000000	0.002071  
3956.000000	0.001973  
3955.000000	0.001886  
3954.000000	0.001834  
3953.000000	0.001830  
3952.000000	0.001874  
3951.000000	0.001941  
3950.000000	0.002002  
3949.000000	0.002052  
3948.000000	0.002107  
3947.000000	0.002166  
3946.000000	0.002195  
3945.000000	0.002148  
3944.000000	0.002030  
3943.000000	0.001911  
3942.000000	0.001859  
3941.000000	0.001871  
3940.000000	0.001907  
3939.000000	0.001949  
3938.000000	0.002017  
3937.000000	0.002127  
3936.000000	0.002253  
3935.000000	0.002345  
3934.000000	0.002365  
3933.000000	0.002310  
3932.000000	0.002204  
3931.000000	0.002093  
3930.000000	0.002030  
3929.000000	0.002053  
3928.000000	0.002161  
3927.000000	0.002315  
3926.000000	0.002468  
3925.000000	0.002589  
3924.000000	0.002673  
3923.000000	0.002725  
3922.000000	0.002754  
3921.000000	0.002763  
3920.000000	0.002737  
3919.000000	0.002652  
3918.000000	0.002498  
3917.000000	0.002320  
3916.000000	0.002194  
3915.000000	0.002170  
3914.000000	0.002217  
3913.000000	0.002242  
3912.000000	0.002167  
3911.000000	0.002000  
3910.000000	0.001847  
3909.000000	0.001835  
3908.000000	0.002013  
3907.000000	0.002335  
3906.000000	0.002696  
3905.000000	0.003011  
3904.000000	0.003228  
3903.000000	0.003296  
3902.000000	0.003182  
3901.000000	0.002942  
3900.000000	0.002713  
3899.000000	0.002602  
3898.000000	0.002590  
3897.000000	0.002584  
3896.000000	0.002527  
3895.000000	0.002416  
3894.000000	0.002289  
3893.000000	0.002191  
3892.000000	0.002165  
3891.000000	0.002211  
3890.000000	0.002285  
3889.000000	0.002352  
3888.000000	0.002386  
3887.000000	0.002366  
3886.000000	0.002324  
3885.000000	0.002323  
3884.000000	0.002372  
3883.000000	0.002410  
3882.000000	0.002382  
3881.000000	0.002314  
3880.000000	0.002279  
3879.000000	0.002310  
3878.000000	0.002389  
3877.000000	0.002478  
3876.000000	0.002540  
3875.000000	0.002599  
3874.000000	0.002731  
3873.000000	0.002947  
3872.000000	0.003157  
3871.000000	0.003262  
3870.000000	0.003270  
3869.000000	0.003249  
3868.000000	0.003233  
3867.000000	0.003204  
3866.000000	0.003117  
3865.000000	0.002961  
3864.000000	0.002798  
3863.000000	0.002696  
3862.000000	0.002660  
3861.000000	0.002638  
3860.000000	0.002579  
3859.000000	0.002483  
3858.000000	0.002412  
3857.000000	0.002447  
3856.000000	0.002578  
3855.000000	0.002606  
3854.000000	0.002445  
3853.000000	0.002283  
3852.000000	0.002262  
3851.000000	0.002395  
3850.000000	0.002653  
3849.000000	0.002970  
3848.000000	0.003280  
3847.000000	0.003524  
3846.000000	0.003668  
3845.000000	0.003738  
3844.000000	0.003795  
3843.000000	0.003860  
3842.000000	0.003892  
3841.000000	0.003837  
3840.000000	0.003683  
3839.000000	0.003476  
3838.000000	0.003289  
3837.000000	0.003188  
3836.000000	0.003213  
3835.000000	0.003347  
3834.000000	0.003522  
3833.000000	0.003638  
3832.000000	0.003618  
3831.000000	0.003468  
3830.000000	0.003264  
3829.000000	0.003066  
3828.000000	0.002883  
3827.000000	0.002723  
3826.000000	0.002657  
3825.000000	0.002801  
3824.000000	0.003196  
3823.000000	0.003702  
3822.000000	0.004071  
3821.000000	0.004160  
3820.000000	0.003961  
3819.000000	0.003542  
3818.000000	0.003024  
3817.000000	0.002547  
3816.000000	0.002252  
3815.000000	0.002192  
3814.000000	0.002297  
3813.000000	0.002450  
3812.000000	0.002558  
3811.000000	0.002582  
3810.000000	0.002514  
3809.000000	0.002374  
3808.000000	0.002242  
3807.000000	0.002252  
3806.000000	0.002471  
3805.000000	0.002832  
3804.000000	0.003174  
3803.000000	0.003313  
3802.000000	0.003193  
3801.000000	0.002965  
3800.000000	0.002809  
3799.000000	0.002786  
3798.000000	0.002859  
3797.000000	0.002972  
3796.000000	0.003081  
3795.000000	0.003143  
3794.000000	0.003131  
3793.000000	0.003037  
3792.000000	0.002875  
3791.000000	0.002676  
3790.000000	0.002486  
3789.000000	0.002342  
3788.000000	0.002259  
3787.000000	0.002229  
3786.000000	0.002238  
3785.000000	0.002269  
3784.000000	0.002308  
3783.000000	0.002342  
3782.000000	0.002359  
3781.000000	0.002348  
3780.000000	0.002324  
3779.000000	0.002314  
3778.000000	0.002320  
3777.000000	0.002325  
3776.000000	0.002321  
3775.000000	0.002308  
3774.000000	0.002297  
3773.000000	0.002309  
3772.000000	0.002372  
3771.000000	0.002514  
3770.000000	0.002734  
3769.000000	0.002952  
3768.000000	0.003038  
3767.000000	0.002919  
3766.000000	0.002652  
3765.000000	0.002399  
3764.000000	0.002310  
3763.000000	0.002402  
3762.000000	0.002576  
3761.000000	0.002709  
3760.000000	0.002786  
3759.000000	0.002892  
3758.000000	0.003054  
3757.000000	0.003170  
3756.000000	0.003137  
3755.000000	0.003003  
3754.000000	0.003011  
3753.000000	0.003421  
3752.000000	0.004189  
3751.000000	0.004843  
3750.000000	0.004941  
3749.000000	0.004596  
3748.000000	0.004224  
3747.000000	0.004101  
3746.000000	0.004208  
3745.000000	0.004328  
3744.000000	0.004300  
3743.000000	0.004202  
3742.000000	0.004205  
3741.000000	0.004383  
3740.000000	0.004718  
3739.000000	0.005149  
3738.000000	0.005541  
3737.000000	0.005743  
3736.000000	0.005727  
3735.000000	0.005606  
3734.000000	0.005497  
3733.000000	0.005408  
3732.000000	0.005297  
3731.000000	0.005169  
3730.000000	0.005079  
3729.000000	0.005031  
3728.000000	0.004951  
3727.000000	0.004778  
3726.000000	0.004550  
3725.000000	0.004372  
3724.000000	0.004288  
3723.000000	0.004238  
3722.000000	0.004120  
3721.000000	0.003875  
3720.000000	0.003521  
3719.000000	0.003130  
3718.000000	0.002795  
3717.000000	0.002581  
3716.000000	0.002509  
3715.000000	0.002557  
3714.000000	0.002695  
3713.000000	0.002922  
3712.000000	0.003262  
3711.000000	0.003653  
3710.000000	0.003931  
3709.000000	0.004006  
3708.000000	0.003963  
3707.000000	0.003960  
3706.000000	0.004060  
3705.000000	0.004154  
3704.000000	0.004048  
3703.000000	0.003657  
3702.000000	0.003133  
3701.000000	0.002729  
3700.000000	0.002571  
3699.000000	0.002620  
3698.000000	0.002779  
3697.000000	0.002976  
3696.000000	0.003194  
3695.000000	0.003445  
3694.000000	0.003696  
3693.000000	0.003851  
3692.000000	0.003793  
3691.000000	0.003513  
3690.000000	0.003163  
3689.000000	0.002916  
3688.000000	0.002794  
3687.000000	0.002738  
3686.000000	0.002725  
3685.000000	0.002770  
3684.000000	0.002902  
3683.000000	0.003083  
3682.000000	0.003196  
3681.000000	0.003147  
3680.000000	0.002989  
3679.000000	0.002900  
3678.000000	0.003022  
3677.000000	0.003304  
3676.000000	0.003579  
3675.000000	0.003712  
3674.000000	0.003679  
3673.000000	0.003592  
3672.000000	0.003570  
3671.000000	0.003606  
3670.000000	0.003623  
3669.000000	0.003540  
3668.000000	0.003332  
3667.000000	0.003079  
3666.000000	0.002880  
3665.000000	0.002735  
3664.000000	0.002549  
3663.000000	0.002242  
3662.000000	0.001846  
3661.000000	0.001500  
3660.000000	0.001337  
3659.000000	0.001409  
3658.000000	0.001687  
3657.000000	0.002109  
3656.000000	0.002603  
3655.000000	0.003092  
3654.000000	0.003509  
3653.000000	0.003771  
3652.000000	0.003781  
3651.000000	0.003553  
3650.000000	0.003306  
3649.000000	0.003248  
3648.000000	0.003332  
3647.000000	0.003406  
3646.000000	0.003387  
3645.000000	0.003285  
3644.000000	0.003168  
3643.000000	0.003140  
3642.000000	0.003268  
3641.000000	0.003520  
3640.000000	0.003757  
3639.000000	0.003846  
3638.000000	0.003775  
3637.000000	0.003661  
3636.000000	0.003649  
3635.000000	0.003797  
3634.000000	0.004043  
3633.000000	0.004260  
3632.000000	0.004359  
3631.000000	0.004334  
3630.000000	0.004298  
3629.000000	0.004393  
3628.000000	0.004528  
3627.000000	0.004493  
3626.000000	0.004277  
3625.000000	0.004018  
3624.000000	0.003837  
3623.000000	0.003743  
3622.000000	0.003634  
3621.000000	0.003407  
3620.000000	0.003102  
3619.000000	0.002897  
3618.000000	0.002891  
3617.000000	0.003021  
3616.000000	0.003171  
3615.000000	0.003270  
3614.000000	0.003363  
3613.000000	0.003559  
3612.000000	0.003909  
3611.000000	0.004340  
3610.000000	0.004684  
3609.000000	0.004765  
3608.000000	0.004543  
3607.000000	0.004140  
3606.000000	0.003729  
3605.000000	0.003411  
3604.000000	0.003210  
3603.000000	0.003120  
3602.000000	0.003157  
3601.000000	0.003342  
3600.000000	0.003648  
3599.000000	0.003975  
3598.000000	0.004202  
3597.000000	0.004256  
3596.000000	0.004146  
3595.000000	0.003961  
3594.000000	0.003802  
3593.000000	0.003712  
3592.000000	0.003654  
3591.000000	0.003566  
3590.000000	0.003421  
3589.000000	0.003285  
3588.000000	0.003290  
3587.000000	0.003461  
3586.000000	0.003652  
3585.000000	0.003727  
3584.000000	0.003679  
3583.000000	0.003571  
3582.000000	0.003467  
3581.000000	0.003413  
3580.000000	0.003424  
3579.000000	0.003465  
3578.000000	0.003461  
3577.000000	0.003366  
3576.000000	0.003210  
3575.000000	0.003067  
3574.000000	0.002970  
3573.000000	0.002895  
3572.000000	0.002815  
3571.000000	0.002760  
3570.000000	0.002804  
3569.000000	0.002983  
3568.000000	0.003230  
3567.000000	0.003394  
3566.000000	0.003386  
3565.000000	0.003267  
3564.000000	0.003156  
3563.000000	0.003098  
3562.000000	0.003073  
3561.000000	0.003073  
3560.000000	0.003145  
3559.000000	0.003325  
3558.000000	0.003558  
3557.000000	0.003714  
3556.000000	0.003686  
3555.000000	0.003467  
3554.000000	0.003154  
3553.000000	0.002898  
3552.000000	0.002812  
3551.000000	0.002899  
3550.000000	0.003065  
3549.000000	0.003190  
3548.000000	0.003216  
3547.000000	0.003191  
3546.000000	0.003214  
3545.000000	0.003333  
3544.000000	0.003492  
3543.000000	0.003605  
3542.000000	0.003645  
3541.000000	0.003649  
3540.000000	0.003648  
3539.000000	0.003614  
3538.000000	0.003477  
3537.000000	0.003230  
3536.000000	0.002975  
3535.000000	0.002856  
3534.000000	0.002937  
3533.000000	0.003161  
3532.000000	0.003420  
3531.000000	0.003640  
3530.000000	0.003793  
3529.000000	0.003851  
3528.000000	0.003787  
3527.000000	0.003616  
3526.000000	0.003405  
3525.000000	0.003228  
3524.000000	0.003118  
3523.000000	0.003078  
3522.000000	0.003112  
3521.000000	0.003213  
3520.000000	0.003347  
3519.000000	0.003469  
3518.000000	0.003558  
3517.000000	0.003631  
3516.000000	0.003710  
3515.000000	0.003792  
3514.000000	0.003857  
3513.000000	0.003880  
3512.000000	0.003861  
3511.000000	0.003828  
3510.000000	0.003821  
3509.000000	0.003846  
3508.000000	0.003862  
3507.000000	0.003826  
3506.000000	0.003752  
3505.000000	0.003703  
3504.000000	0.003734  
3503.000000	0.003838  
3502.000000	0.003951  
3501.000000	0.004017  
3500.000000	0.004027  
3499.000000	0.004017  
3498.000000	0.004027  
3497.000000	0.004061  
3496.000000	0.004076  
3495.000000	0.004036  
3494.000000	0.003957  
3493.000000	0.003879  
3492.000000	0.003806  
3491.000000	0.003711  
3490.000000	0.003598  
3489.000000	0.003522  
3488.000000	0.003548  
3487.000000	0.003696  
3486.000000	0.003938  
3485.000000	0.004199  
3484.000000	0.004366  
3483.000000	0.004336  
3482.000000	0.004124  
3481.000000	0.003873  
3480.000000	0.003744  
3479.000000	0.003783  
3478.000000	0.003917  
3477.000000	0.004053  
3476.000000	0.004148  
3475.000000	0.004207  
3474.000000	0.004248  
3473.000000	0.004276  
3472.000000	0.004274  
3471.000000	0.004219  
3470.000000	0.004118  
3469.000000	0.004025  
3468.000000	0.004005  
3467.000000	0.004074  
3466.000000	0.004183  
3465.000000	0.004253  
3464.000000	0.004218  
3463.000000	0.004064  
3462.000000	0.003851  
3461.000000	0.003691  
3460.000000	0.003671  
3459.000000	0.003781  
3458.000000	0.003933  
3457.000000	0.004041  
3456.000000	0.004079  
3455.000000	0.004066  
3454.000000	0.004052  
3453.000000	0.004098  
3452.000000	0.004237  
3451.000000	0.004426  
3450.000000	0.004564  
3449.000000	0.004585  
3448.000000	0.004522  
3447.000000	0.004472  
3446.000000	0.004498  
3445.000000	0.004594  
3444.000000	0.004708  
3443.000000	0.004786  
3442.000000	0.004803  
3441.000000	0.004792  
3440.000000	0.004828  
3439.000000	0.004954  
3438.000000	0.005118  
3437.000000	0.005195  
3436.000000	0.005096  
3435.000000	0.004856  
3434.000000	0.004625  
3433.000000	0.004553  
3432.000000	0.004670  
3431.000000	0.004864  
3430.000000	0.004983  
3429.000000	0.004945  
3428.000000	0.004778  
3427.000000	0.004563  
3426.000000	0.004387  
3425.000000	0.004311  
3424.000000	0.004354  
3423.000000	0.004477  
3422.000000	0.004608  
3421.000000	0.004697  
3420.000000	0.004746  
3419.000000	0.004771  
3418.000000	0.004790  
3417.000000	0.004824  
3416.000000	0.004893  
3415.000000	0.004983  
3414.000000	0.005048  
3413.000000	0.005068  
3412.000000	0.005069  
3411.000000	0.005085  
3410.000000	0.005088  
3409.000000	0.005016  
3408.000000	0.004842  
3407.000000	0.004613  
3406.000000	0.004419  
3405.000000	0.004329  
3404.000000	0.004365  
3403.000000	0.004503  
3402.000000	0.004693  
3401.000000	0.004887  
3400.000000	0.005039  
3399.000000	0.005111  
3398.000000	0.005093  
3397.000000	0.005034  
3396.000000	0.005032  
3395.000000	0.005156  
3394.000000	0.005377  
3393.000000	0.005578  
3392.000000	0.005649  
3391.000000	0.005568  
3390.000000	0.005413  
3389.000000	0.005287  
3388.000000	0.005232  
3387.000000	0.005208  
3386.000000	0.005157  
3385.000000	0.005091  
3384.000000	0.005087  
3383.000000	0.005188  
3382.000000	0.005338  
3381.000000	0.005439  
3380.000000	0.005461  
3379.000000	0.005441  
3378.000000	0.005391  
3377.000000	0.005253  
3376.000000	0.004993  
3375.000000	0.004698  
3374.000000	0.004536  
3373.000000	0.004602  
3372.000000	0.004837  
3371.000000	0.005096  
3370.000000	0.005289  
3369.000000	0.005422  
3368.000000	0.005527  
3367.000000	0.005598  
3366.000000	0.005617  
3365.000000	0.005600  
3364.000000	0.005577  
3363.000000	0.005543  
3362.000000	0.005478  
3361.000000	0.005412  
3360.000000	0.005416  
3359.000000	0.005512  
3358.000000	0.005625  
3357.000000	0.005663  
3356.000000	0.005616  
3355.000000	0.005540  
3354.000000	0.005461  
3353.000000	0.005365  
3352.000000	0.005255  
3351.000000	0.005172  
3350.000000	0.005149  
3349.000000	0.005178  
3348.000000	0.005243  
3347.000000	0.005356  
3346.000000	0.005513  
3345.000000	0.005657  
3344.000000	0.005719  
3343.000000	0.005685  
3342.000000	0.005609  
3341.000000	0.005541  
3340.000000	0.005468  
3339.000000	0.005344  
3338.000000	0.005180  
3337.000000	0.005066  
3336.000000	0.005082  
3335.000000	0.005198  
3334.000000	0.005298  
3333.000000	0.005301  
3332.000000	0.005245  
3331.000000	0.005230  
3330.000000	0.005305  
3329.000000	0.005441  
3328.000000	0.005582  
3327.000000	0.005682  
3326.000000	0.005699  
3325.000000	0.005606  
3324.000000	0.005448  
3323.000000	0.005328  
3322.000000	0.005325  
3321.000000	0.005421  
3320.000000	0.005536  
3319.000000	0.005620  
3318.000000	0.005685  
3317.000000	0.005747  
3316.000000	0.005780  
3315.000000	0.005734  
3314.000000	0.005593  
3313.000000	0.005414  
3312.000000	0.005295  
3311.000000	0.005313  
3310.000000	0.005461  
3309.000000	0.005642  
3308.000000	0.005721  
3307.000000	0.005619  
3306.000000	0.005395  
3305.000000	0.005216  
3304.000000	0.005225  
3303.000000	0.005428  
3302.000000	0.005704  
3301.000000	0.005925  
3300.000000	0.006028  
3299.000000	0.005995  
3298.000000	0.005822  
3297.000000	0.005557  
3296.000000	0.005321  
3295.000000	0.005221  
3294.000000	0.005264  
3293.000000	0.005377  
3292.000000	0.005499  
3291.000000	0.005611  
3290.000000	0.005679  
3289.000000	0.005652  
3288.000000	0.005539  
3287.000000	0.005418  
3286.000000	0.005354  
3285.000000	0.005322  
3284.000000	0.005264  
3283.000000	0.005175  
3282.000000	0.005111  
3281.000000	0.005111  
3280.000000	0.005157  
3279.000000	0.005212  
3278.000000	0.005254  
3277.000000	0.005285  
3276.000000	0.005329  
3275.000000	0.005417  
3274.000000	0.005568  
3273.000000	0.005742  
3272.000000	0.005857  
3271.000000	0.005845  
3270.000000	0.005702  
3269.000000	0.005476  
3268.000000	0.005216  
3267.000000	0.004958  
3266.000000	0.004757  
3265.000000	0.004699  
3264.000000	0.004837  
3263.000000	0.005116  
3262.000000	0.005384  
3261.000000	0.005529  
3260.000000	0.005572  
3259.000000	0.005625  
3258.000000	0.005749  
3257.000000	0.005880  
3256.000000	0.005897  
3255.000000	0.005754  
3254.000000	0.005534  
3253.000000	0.005392  
3252.000000	0.005429  
3251.000000	0.005599  
3250.000000	0.005760  
3249.000000	0.005814  
3248.000000	0.005788  
3247.000000	0.005747  
3246.000000	0.005672  
3245.000000	0.005499  
3244.000000	0.005256  
3243.000000	0.005078  
3242.000000	0.005059  
3241.000000	0.005147  
3240.000000	0.005231  
3239.000000	0.005252  
3238.000000	0.005216  
3237.000000	0.005123  
3236.000000	0.004971  
3235.000000	0.004799  
3234.000000	0.004674  
3233.000000	0.004632  
3232.000000	0.004671  
3231.000000	0.004770  
3230.000000	0.004892  
3229.000000	0.004984  
3228.000000	0.005028  
3227.000000	0.005071  
3226.000000	0.005169  
3225.000000	0.005314  
3224.000000	0.005439  
3223.000000	0.005495  
3222.000000	0.005467  
3221.000000	0.005359  
3220.000000	0.005193  
3219.000000	0.005038  
3218.000000	0.004977  
3217.000000	0.005040  
3216.000000	0.005185  
3215.000000	0.005344  
3214.000000	0.005456  
3213.000000	0.005482  
3212.000000	0.005415  
3211.000000	0.005301  
3210.000000	0.005210  
3209.000000	0.005182  
3208.000000	0.005212  
3207.000000	0.005299  
3206.000000	0.005442  
3205.000000	0.005611  
3204.000000	0.005747  
3203.000000	0.005812  
3202.000000	0.005803  
3201.000000	0.005710  
3200.000000	0.005512  
3199.000000	0.005228  
3198.000000	0.004941  
3197.000000	0.004724  
3196.000000	0.004585  
3195.000000	0.004495  
3194.000000	0.004440  
3193.000000	0.004424  
3192.000000	0.004440  
3191.000000	0.004485  
3190.000000	0.004590  
3189.000000	0.004786  
3188.000000	0.005042  
3187.000000	0.005272  
3186.000000	0.005408  
3185.000000	0.005446  
3184.000000	0.005403  
3183.000000	0.005274  
3182.000000	0.005070  
3181.000000	0.004853  
3180.000000	0.004715  
3179.000000	0.004696  
3178.000000	0.004759  
3177.000000	0.004847  
3176.000000	0.004932  
3175.000000	0.005006  
3174.000000	0.005036  
3173.000000	0.004987  
3172.000000	0.004868  
3171.000000	0.004735  
3170.000000	0.004648  
3169.000000	0.004621  
3168.000000	0.004636  
3167.000000	0.004675  
3166.000000	0.004731  
3165.000000	0.004802  
3164.000000	0.004876  
3163.000000	0.004929  
3162.000000	0.004937  
3161.000000	0.004901  
3160.000000	0.004854  
3159.000000	0.004844  
3158.000000	0.004887  
3157.000000	0.004966  
3156.000000	0.005057  
3155.000000	0.005146  
3154.000000	0.005224  
3153.000000	0.005277  
3152.000000	0.005283  
3151.000000	0.005220  
3150.000000	0.005069  
3149.000000	0.004852  
3148.000000	0.004634  
3147.000000	0.004485  
3146.000000	0.004415  
3145.000000	0.004395  
3144.000000	0.004421  
3143.000000	0.004512  
3142.000000	0.004627  
3141.000000	0.004663  
3140.000000	0.004575  
3139.000000	0.004463  
3138.000000	0.004484  
3137.000000	0.004667  
3136.000000	0.004884  
3135.000000	0.004982  
3134.000000	0.004914  
3133.000000	0.004758  
3132.000000	0.004647  
3131.000000	0.004669  
3130.000000	0.004807  
3129.000000	0.004947  
3128.000000	0.004981  
3127.000000	0.004897  
3126.000000	0.004753  
3125.000000	0.004599  
3124.000000	0.004460  
3123.000000	0.004388  
3122.000000	0.004438  
3121.000000	0.004592  
3120.000000	0.004731  
3119.000000	0.004743  
3118.000000	0.004627  
3117.000000	0.004487  
3116.000000	0.004430  
3115.000000	0.004480  
3114.000000	0.004571  
3113.000000	0.004613  
3112.000000	0.004571  
3111.000000	0.004494  
3110.000000	0.004452  
3109.000000	0.004457  
3108.000000	0.004457  
3107.000000	0.004412  
3106.000000	0.004347  
3105.000000	0.004327  
3104.000000	0.004403  
3103.000000	0.004559  
3102.000000	0.004714  
3101.000000	0.004757  
3100.000000	0.004631  
3099.000000	0.004388  
3098.000000	0.004161  
3097.000000	0.004062  
3096.000000	0.004116  
3095.000000	0.004272  
3094.000000	0.004451  
3093.000000	0.004581  
3092.000000	0.004634  
3091.000000	0.004638  
3090.000000	0.004640  
3089.000000	0.004655  
3088.000000	0.004672  
3087.000000	0.004700  
3086.000000	0.004767  
3085.000000	0.004857  
3084.000000	0.004899  
3083.000000	0.004849  
3082.000000	0.004764  
3081.000000	0.004747  
3080.000000	0.004851  
3079.000000	0.005035  
3078.000000	0.005221  
3077.000000	0.005353  
3076.000000	0.005407  
3075.000000	0.005383  
3074.000000	0.005307  
3073.000000	0.005221  
3072.000000	0.005168  
3071.000000	0.005179  
3070.000000	0.005246  
3069.000000	0.005325  
3068.000000	0.005360  
3067.000000	0.005335  
3066.000000	0.005300  
3065.000000	0.005336  
3064.000000	0.005488  
3063.000000	0.005714  
3062.000000	0.005905  
3061.000000	0.005958  
3060.000000	0.005853  
3059.000000	0.005666  
3058.000000	0.005491  
3057.000000	0.005362  
3056.000000	0.005265  
3055.000000	0.005221  
3054.000000	0.005275  
3053.000000	0.005418  
3052.000000	0.005551  
3051.000000	0.005591  
3050.000000	0.005563  
3049.000000	0.005564  
3048.000000	0.005646  
3047.000000	0.005783  
3046.000000	0.005920  
3045.000000	0.006022  
3044.000000	0.006060  
3043.000000	0.006014  
3042.000000	0.005900  
3041.000000	0.005786  
3040.000000	0.005755  
3039.000000	0.005847  
3038.000000	0.006029  
3037.000000	0.006213  
3036.000000	0.006309  
3035.000000	0.006289  
3034.000000	0.006201  
3033.000000	0.006127  
3032.000000	0.006134  
3031.000000	0.006255  
3030.000000	0.006486  
3029.000000	0.006777  
3028.000000	0.007047  
3027.000000	0.007237  
3026.000000	0.007363  
3025.000000	0.007502  
3024.000000	0.007731  
3023.000000	0.008080  
3022.000000	0.008504  
3021.000000	0.008896  
3020.000000	0.009152  
3019.000000	0.009284  
3018.000000	0.009436  
3017.000000	0.009750  
3016.000000	0.010218  
3015.000000	0.010693  
3014.000000	0.011054  
3013.000000	0.011292  
3012.000000	0.011475  
3011.000000	0.011649  
3010.000000	0.011817  
3009.000000	0.011960  
3008.000000	0.012058  
3007.000000	0.012092  
3006.000000	0.012057  
3005.000000	0.011952  
3004.000000	0.011770  
3003.000000	0.011511  
3002.000000	0.011232  
3001.000000	0.011049  
3000.000000	0.011052  
2999.000000	0.011215  
2998.000000	0.011412  
2997.000000	0.011530  
2996.000000	0.011557  
2995.000000	0.011583  
2994.000000	0.011726  
2993.000000	0.012052  
2992.000000	0.012540  
2991.000000	0.013113  
2990.000000	0.013693  
2989.000000	0.014241  
2988.000000	0.014769  
2987.000000	0.015344  
2986.000000	0.016058  
2985.000000	0.016963  
2984.000000	0.018035  
2983.000000	0.019202  
2982.000000	0.020418  
2981.000000	0.021695  
2980.000000	0.023076  
2979.000000	0.024613  
2978.000000	0.026376  
2977.000000	0.028454  
2976.000000	0.030902  
2975.000000	0.033714  
2974.000000	0.036841  
2973.000000	0.040248  
2972.000000	0.043917  
2971.000000	0.047851  
2970.000000	0.052095  
2969.000000	0.056738  
2968.000000	0.061833  
2967.000000	0.067283  
2966.000000	0.072853  
2965.000000	0.078307  
2964.000000	0.083530  
2963.000000	0.088513  
2962.000000	0.093251  
2961.000000	0.097708  
2960.000000	0.101834  
2959.000000	0.105549  
2958.000000	0.108711  
2957.000000	0.111138  
2956.000000	0.112694  
2955.000000	0.113353  
2954.000000	0.113180  
2953.000000	0.112291  
2952.000000	0.110831  
2951.000000	0.108965  
2950.000000	0.106881  
2949.000000	0.104790  
2948.000000	0.102892  
2947.000000	0.101337  
2946.000000	0.100223  
2945.000000	0.099656  
2944.000000	0.099790  
2943.000000	0.100780  
2942.000000	0.102698  
2941.000000	0.105508  
2940.000000	0.109141  
2939.000000	0.113555  
2938.000000	0.118716  
2937.000000	0.124528  
2936.000000	0.130812  
2935.000000	0.137360  
2934.000000	0.144026  
2933.000000	0.150795  
2932.000000	0.157751  
2931.000000	0.164935  
2930.000000	0.172234  
2929.000000	0.179419  
2928.000000	0.186240  
2927.000000	0.192464  
2926.000000	0.197844  
2925.000000	0.202162  
2924.000000	0.205279  
2923.000000	0.207084  
2922.000000	0.207431  
2921.000000	0.206254  
2920.000000	0.203739  
2919.000000	0.200269  
2918.000000	0.196158  
2917.000000	0.191520  
2916.000000	0.186408  
2915.000000	0.180967  
2914.000000	0.175403  
2913.000000	0.169879  
2912.000000	0.164523  
2911.000000	0.159472  
2910.000000	0.154828  
2909.000000	0.150556  
2908.000000	0.146479  
2907.000000	0.142408  
2906.000000	0.138269  
2905.000000	0.134120  
2904.000000	0.130079  
2903.000000	0.126247  
2902.000000	0.122652  
2901.000000	0.119229  
2900.000000	0.115860  
2899.000000	0.112446  
2898.000000	0.108978  
2897.000000	0.105533  
2896.000000	0.102208  
2895.000000	0.099060  
2894.000000	0.096078  
2893.000000	0.093188  
2892.000000	0.090287  
2891.000000	0.087315  
2890.000000	0.084329  
2889.000000	0.081502  
2888.000000	0.079012  
2887.000000	0.076931  
2886.000000	0.075227  
2885.000000	0.073863  
2884.000000	0.072861  
2883.000000	0.072287  
2882.000000	0.072205  
2881.000000	0.072664  
2880.000000	0.073721  
2879.000000	0.075435  
2878.000000	0.077812  
2877.000000	0.080745  
2876.000000	0.083996  
2875.000000	0.087246  
2874.000000	0.090175  
2873.000000	0.092535  
2872.000000	0.094185  
2871.000000	0.095115  
2870.000000	0.095460  
2869.000000	0.095495  
2868.000000	0.095556  
2867.000000	0.095925  
2866.000000	0.096769  
2865.000000	0.098170  
2864.000000	0.100184  
2863.000000	0.102844  
2862.000000	0.106111  
2861.000000	0.109883  
2860.000000	0.114032  
2859.000000	0.118425  
2858.000000	0.122877  
2857.000000	0.127091  
2856.000000	0.130650  
2855.000000	0.133074  
2854.000000	0.133933  
2853.000000	0.132989  
2852.000000	0.130279  
2851.000000	0.126067  
2850.000000	0.120704  
2849.000000	0.114528  
2848.000000	0.107848  
2847.000000	0.100961  
2846.000000	0.094128  
2845.000000	0.087518  
2844.000000	0.081159  
2843.000000	0.074994  
2842.000000	0.069002  
2841.000000	0.063279  
2840.000000	0.057977  
2839.000000	0.053186  
2838.000000	0.048900  
2837.000000	0.045066  
2836.000000	0.041619  
2835.000000	0.038490  
2834.000000	0.035611  
2833.000000	0.032962  
2832.000000	0.030585  
2831.000000	0.028539  
2830.000000	0.026838  
2829.000000	0.025429  
2828.000000	0.024219  
2827.000000	0.023117  
2826.000000	0.022070  
2825.000000	0.021066  
2824.000000	0.020127  
2823.000000	0.019281  
2822.000000	0.018558  
2821.000000	0.017962  
2820.000000	0.017453  
2819.000000	0.016960  
2818.000000	0.016427  
2817.000000	0.015858  
2816.000000	0.015291  
2815.000000	0.014753  
2814.000000	0.014237  
2813.000000	0.013743  
2812.000000	0.013288  
2811.000000	0.012898  
2810.000000	0.012578  
2809.000000	0.012329  
2808.000000	0.012150  
2807.000000	0.012028  
2806.000000	0.011931  
2805.000000	0.011808  
2804.000000	0.011605  
2803.000000	0.011301  
2802.000000	0.010923  
2801.000000	0.010555  
2800.000000	0.010278  
2799.000000	0.010118  
2798.000000	0.010033  
2797.000000	0.009981  
2796.000000	0.009947  
2795.000000	0.009920  
2794.000000	0.009852  
2793.000000	0.009678  
2792.000000	0.009377  
2791.000000	0.009014  
2790.000000	0.008701  
2789.000000	0.008526  
2788.000000	0.008498  
2787.000000	0.008549  
2786.000000	0.008584  
2785.000000	0.008549  
2784.000000	0.008450  
2783.000000	0.008327  
2782.000000	0.008220  
2781.000000	0.008162  
2780.000000	0.008162  
2779.000000	0.008183  
2778.000000	0.008142  
2777.000000	0.007965  
2776.000000	0.007655  
2775.000000	0.007308  
2774.000000	0.007056  
2773.000000	0.006976  
2772.000000	0.007045  
2771.000000	0.007158  
2770.000000	0.007205  
2769.000000	0.007137  
2768.000000	0.006977  
2767.000000	0.006777  
2766.000000	0.006594  
2765.000000	0.006483  
2764.000000	0.006480  
2763.000000	0.006562  
2762.000000	0.006638  
2761.000000	0.006628  
2760.000000	0.006525  
2759.000000	0.006390  
2758.000000	0.006278  
2757.000000	0.006202  
2756.000000	0.006150  
2755.000000	0.006121  
2754.000000	0.006120  
2753.000000	0.006135  
2752.000000	0.006143  
2751.000000	0.006132  
2750.000000	0.006116  
2749.000000	0.006121  
2748.000000	0.006146  
2747.000000	0.006146  
2746.000000	0.006073  
2745.000000	0.005939  
2744.000000	0.005820  
2743.000000	0.005787  
2742.000000	0.005840  
2741.000000	0.005932  
2740.000000	0.006029  
2739.000000	0.006128  
2738.000000	0.006224  
2737.000000	0.006306  
2736.000000	0.006380  
2735.000000	0.006468  
2734.000000	0.006563  
2733.000000	0.006619  
2732.000000	0.006591  
2731.000000	0.006497  
2730.000000	0.006405  
2729.000000	0.006385  
2728.000000	0.006451  
2727.000000	0.006550  
2726.000000	0.006595  
2725.000000	0.006538  
2724.000000	0.006408  
2723.000000	0.006285  
2722.000000	0.006219  
2721.000000	0.006214  
2720.000000	0.006251  
2719.000000	0.006308  
2718.000000	0.006345  
2717.000000	0.006315  
2716.000000	0.006213  
2715.000000	0.006087  
2714.000000	0.005974  
2713.000000	0.005844  
2712.000000	0.005663  
2711.000000	0.005463  
2710.000000	0.005327  
2709.000000	0.005296  
2708.000000	0.005336  
2707.000000	0.005387  
2706.000000	0.005416  
2705.000000	0.005402  
2704.000000	0.005327  
2703.000000	0.005200  
2702.000000	0.005062  
2701.000000	0.004956  
2700.000000	0.004885  
2699.000000	0.004831  
2698.000000	0.004796  
2697.000000	0.004810  
2696.000000	0.004890  
2695.000000	0.005009  
2694.000000	0.005113  
2693.000000	0.005154  
2692.000000	0.005122  
2691.000000	0.005054  
2690.000000	0.005019  
2689.000000	0.005080  
2688.000000	0.005247  
2687.000000	0.005452  
2686.000000	0.005594  
2685.000000	0.005622  
2684.000000	0.005579  
2683.000000	0.005547  
2682.000000	0.005565  
2681.000000	0.005600  
2680.000000	0.005607  
2679.000000	0.005588  
2678.000000	0.005584  
2677.000000	0.005626  
2676.000000	0.005708  
2675.000000	0.005800  
2674.000000	0.005862  
2673.000000	0.005867  
2672.000000	0.005811  
2671.000000	0.005719  
2670.000000	0.005627  
2669.000000	0.005570  
2668.000000	0.005576  
2667.000000	0.005658  
2666.000000	0.005786  
2665.000000	0.005891  
2664.000000	0.005912  
2663.000000	0.005830  
2662.000000	0.005666  
2661.000000	0.005460  
2660.000000	0.005262  
2659.000000	0.005123  
2658.000000	0.005054  
2657.000000	0.005019  
2656.000000	0.004992  
2655.000000	0.004990  
2654.000000	0.005032  
2653.000000	0.005075  
2652.000000	0.005057  
2651.000000	0.004987  
2650.000000	0.004939  
2649.000000	0.004953  
2648.000000	0.004990  
2647.000000	0.004997  
2646.000000	0.004961  
2645.000000	0.004895  
2644.000000	0.004812  
2643.000000	0.004748  
2642.000000	0.004759  
2641.000000	0.004857  
2640.000000	0.004963  
2639.000000	0.004974  
2638.000000	0.004857  
2637.000000	0.004658  
2636.000000	0.004458  
2635.000000	0.004349  
2634.000000	0.004401  
2633.000000	0.004609  
2632.000000	0.004869  
2631.000000	0.005048  
2630.000000	0.005081  
2629.000000	0.004984  
2628.000000	0.004817  
2627.000000	0.004657  
2626.000000	0.004585  
2625.000000	0.004619  
2624.000000	0.004684  
2623.000000	0.004672  
2622.000000	0.004555  
2621.000000	0.004376  
2620.000000	0.004179  
2619.000000	0.003980  
2618.000000	0.003822  
2617.000000	0.003779  
2616.000000	0.003871  
2615.000000	0.004033  
2614.000000	0.004182  
2613.000000	0.004292  
2612.000000	0.004379  
2611.000000	0.004453  
2610.000000	0.004508  
2609.000000	0.004547  
2608.000000	0.004581  
2607.000000	0.004614  
2606.000000	0.004641  
2605.000000	0.004633  
2604.000000	0.004541  
2603.000000	0.004338  
2602.000000	0.004094  
2601.000000	0.003960  
2600.000000	0.004036  
2599.000000	0.004248  
2598.000000	0.004411  
2597.000000	0.004407  
2596.000000	0.004277  
2595.000000	0.004135  
2594.000000	0.004024  
2593.000000	0.003894  
2592.000000	0.003712  
2591.000000	0.003527  
2590.000000	0.003436  
2589.000000	0.003469  
2588.000000	0.003572  
2587.000000	0.003672  
2586.000000	0.003746  
2585.000000	0.003802  
2584.000000	0.003830  
2583.000000	0.003804  
2582.000000	0.003729  
2581.000000	0.003642  
2580.000000	0.003574  
2579.000000	0.003541  
2578.000000	0.003557  
2577.000000	0.003628  
2576.000000	0.003710  
2575.000000	0.003723  
2574.000000	0.003636  
2573.000000	0.003511  
2572.000000	0.003437  
2571.000000	0.003431  
2570.000000	0.003430  
2569.000000	0.003365  
2568.000000	0.003229  
2567.000000	0.003071  
2566.000000	0.002948  
2565.000000	0.002895  
2564.000000	0.002917  
2563.000000	0.003000  
2562.000000	0.003119  
2561.000000	0.003241  
2560.000000	0.003322  
2559.000000	0.003323  
2558.000000	0.003264  
2557.000000	0.003225  
2556.000000	0.003271  
2555.000000	0.003375  
2554.000000	0.003442  
2553.000000	0.003425  
2552.000000	0.003390  
2551.000000	0.003433  
2550.000000	0.003567  
2549.000000	0.003714  
2548.000000	0.003788  
2547.000000	0.003738  
2546.000000	0.003542  
2545.000000	0.003219  
2544.000000	0.002872  
2543.000000	0.002672  
2542.000000	0.002702  
2541.000000	0.002858  
2540.000000	0.002948  
2539.000000	0.002905  
2538.000000	0.002833  
2537.000000	0.002842  
2536.000000	0.002899  
2535.000000	0.002897  
2534.000000	0.002815  
2533.000000	0.002749  
2532.000000	0.002778  
2531.000000	0.002852  
2530.000000	0.002851  
2529.000000	0.002722  
2528.000000	0.002545  
2527.000000	0.002459  
2526.000000	0.002529  
2525.000000	0.002704  
2524.000000	0.002891  
2523.000000	0.003056  
2522.000000	0.003203  
2521.000000	0.003283  
2520.000000	0.003210  
2519.000000	0.002999  
2518.000000	0.002824  
2517.000000	0.002866  
2516.000000	0.003112  
2515.000000	0.003372  
2514.000000	0.003480  
2513.000000	0.003430  
2512.000000	0.003320  
2511.000000	0.003223  
2510.000000	0.003155  
2509.000000	0.003116  
2508.000000	0.003115  
2507.000000	0.003156  
2506.000000	0.003225  
2505.000000	0.003288  
2504.000000	0.003290  
2503.000000	0.003204  
2502.000000	0.003077  
2501.000000	0.003017  
2500.000000	0.003093  
2499.000000	0.003238  
2498.000000	0.003275  
2497.000000	0.003066  
2496.000000	0.002643  
2495.000000	0.002200  
2494.000000	0.001959  
2493.000000	0.002013  
2492.000000	0.002297  
2491.000000	0.002668  
2490.000000	0.003009  
2489.000000	0.003259  
2488.000000	0.003391  
2487.000000	0.003379  
2486.000000	0.003212  
2485.000000	0.002909  
2484.000000	0.002547  
2483.000000	0.002267  
2482.000000	0.002221  
2481.000000	0.002466  
2480.000000	0.002899  
2479.000000	0.003323  
2478.000000	0.003581  
2477.000000	0.003631  
2476.000000	0.003520  
2475.000000	0.003315  
2474.000000	0.003077  
2473.000000	0.002861  
2472.000000	0.002711  
2471.000000	0.002646  
2470.000000	0.002635  
2469.000000	0.002607  
2468.000000	0.002523  
2467.000000	0.002435  
2466.000000	0.002440  
2465.000000	0.002537  
2464.000000	0.002607  
2463.000000	0.002561  
2462.000000	0.002468  
2461.000000	0.002469  
2460.000000	0.002593  
2459.000000	0.002761  
2458.000000	0.002922  
2457.000000	0.003087  
2456.000000	0.003210  
2455.000000	0.003167  
2454.000000	0.002914  
2453.000000	0.002594  
2452.000000	0.002385  
2451.000000	0.002302  
2450.000000	0.002238  
2449.000000	0.002160  
2448.000000	0.002165  
2447.000000	0.002335  
2446.000000	0.002608  
2445.000000	0.002833  
2444.000000	0.002901  
2443.000000	0.002817  
2442.000000	0.002678  
2441.000000	0.002592  
2440.000000	0.002592  
2439.000000	0.002619  
2438.000000	0.002600  
2437.000000	0.002526  
2436.000000	0.002440  
2435.000000	0.002358  
2434.000000	0.002254  
2433.000000	0.002131  
2432.000000	0.002058  
2431.000000	0.002097  
2430.000000	0.002236  
2429.000000	0.002400  
2428.000000	0.002528  
2427.000000	0.002610  
2426.000000	0.002668  
2425.000000	0.002715  
2424.000000	0.002743  
2423.000000	0.002733  
2422.000000	0.002690  
2421.000000	0.002650  
2420.000000	0.002647  
2419.000000	0.002666  
2418.000000	0.002647  
2417.000000	0.002555  
2416.000000	0.002435  
2415.000000	0.002384  
2414.000000	0.002464  
2413.000000	0.002651  
2412.000000	0.002853  
2411.000000	0.002983  
2410.000000	0.003015  
2409.000000	0.002994  
2408.000000	0.002981  
2407.000000	0.002992  
2406.000000	0.002969  
2405.000000	0.002847  
2404.000000	0.002630  
2403.000000	0.002402  
2402.000000	0.002247  
2401.000000	0.002176  
2400.000000	0.002158  
2399.000000	0.002191  
2398.000000	0.002308  
2397.000000	0.002503  
2396.000000	0.002694  
2395.000000	0.002807  
2394.000000	0.002852  
2393.000000	0.002918  
2392.000000	0.003075  
2391.000000	0.003308  
2390.000000	0.003546  
2389.000000	0.003747  
2388.000000	0.003969  
2387.000000	0.004364  
2386.000000	0.005056  
2385.000000	0.005993  
2384.000000	0.006910  
2383.000000	0.007467  
2382.000000	0.007451  
2381.000000	0.006869  
2380.000000	0.005916  
2379.000000	0.004865  
2378.000000	0.003966  
2377.000000	0.003343  
2376.000000	0.003012  
2375.000000	0.002983  
2374.000000	0.003314  
2373.000000	0.004019  
2372.000000	0.004942  
2371.000000	0.005801  
2370.000000	0.006368  
2369.000000	0.006573  
2368.000000	0.006513  
2367.000000	0.006414  
2366.000000	0.006466  
2365.000000	0.006557  
2364.000000	0.006376  
2363.000000	0.005992  
2362.000000	0.005827  
2361.000000	0.006159  
2360.000000	0.007015  
2359.000000	0.007958  
2358.000000	0.008394  
2357.000000	0.007988  
2356.000000	0.006946  
2355.000000	0.005902  
2354.000000	0.005102  
2353.000000	0.004643  
2352.000000	0.004622  
2351.000000	0.005006  
2350.000000	0.005659  
2349.000000	0.006164  
2348.000000	0.006390  
2347.000000	0.006394  
2346.000000	0.006655  
2345.000000	0.007597  
2344.000000	0.008766  
2343.000000	0.009364  
2342.000000	0.008567  
2341.000000	0.006736  
2340.000000	0.005096  
2339.000000	0.004393  
2338.000000	0.004259  
2337.000000	0.004000  
2336.000000	0.003514  
2335.000000	0.003189  
2334.000000	0.003165  
2333.000000	0.003427  
2332.000000	0.004010  
2331.000000	0.004955  
2330.000000	0.006217  
2329.000000	0.007327  
2328.000000	0.008151  
2327.000000	0.008588  
2326.000000	0.008652  
2325.000000	0.008401  
2324.000000	0.007809  
2323.000000	0.007093  
2322.000000	0.006342  
2321.000000	0.005906  
2320.000000	0.006022  
2319.000000	0.006674  
2318.000000	0.007449  
2317.000000	0.007854  
2316.000000	0.007771  
2315.000000	0.007454  
2314.000000	0.007372  
2313.000000	0.007744  
2312.000000	0.008448  
2311.000000	0.009086  
2310.000000	0.009407  
2309.000000	0.009437  
2308.000000	0.009348  
2307.000000	0.009191  
2306.000000	0.008886  
2305.000000	0.008481  
2304.000000	0.008168  
2303.000000	0.008112  
2302.000000	0.008216  
2301.000000	0.008223  
2300.000000	0.008004  
2299.000000	0.007678  
2298.000000	0.007479  
2297.000000	0.007467  
2296.000000	0.007487  
2295.000000	0.007314  
2294.000000	0.006899  
2293.000000	0.006379  
2292.000000	0.005916  
2291.000000	0.005549  
2290.000000	0.005227  
2289.000000	0.004923  
2288.000000	0.004611  
2287.000000	0.004215  
2286.000000	0.003669  
2285.000000	0.003068  
2284.000000	0.002642  
2283.000000	0.002544  
2282.000000	0.002693  
2281.000000	0.002909  
2280.000000	0.003104  
2279.000000	0.003289  
2278.000000	0.003430  
2277.000000	0.003423  
2276.000000	0.003281  
2275.000000	0.003226  
2274.000000	0.003513  
2273.000000	0.004129  
2272.000000	0.004761  
2271.000000	0.005075  
2270.000000	0.005000  
2269.000000	0.004705  
2268.000000	0.004335  
2267.000000	0.003877  
2266.000000	0.003316  
2265.000000	0.002801  
2264.000000	0.002560  
2263.000000	0.002647  
2262.000000	0.002900  
2261.000000	0.003127  
2260.000000	0.003244  
2259.000000	0.003252  
2258.000000	0.003195  
2257.000000	0.003178  
2256.000000	0.003309  
2255.000000	0.003545  
2254.000000	0.003686  
2253.000000	0.003609  
2252.000000	0.003435  
2251.000000	0.003368  
2250.000000	0.003413  
2249.000000	0.003362  
2248.000000	0.003053  
2247.000000	0.002551  
2246.000000	0.002080  
2245.000000	0.001835  
2244.000000	0.001875  
2243.000000	0.002106  
2242.000000	0.002345  
2241.000000	0.002465  
2240.000000	0.002503  
2239.000000	0.002594  
2238.000000	0.002764  
2237.000000	0.002855  
2236.000000	0.002697  
2235.000000	0.002327  
2234.000000	0.001978  
2233.000000	0.001850  
2232.000000	0.001919  
2231.000000	0.001994  
2230.000000	0.001931  
2229.000000	0.001770  
2228.000000	0.001658  
2227.000000	0.001678  
2226.000000	0.001763  
2225.000000	0.001756  
2224.000000	0.001525  
2223.000000	0.001078  
2222.000000	0.000621  
2221.000000	0.000481  
2220.000000	0.000848  
2219.000000	0.001552  
2218.000000	0.002177  
2217.000000	0.002470  
2216.000000	0.002564  
2215.000000	0.002721  
2214.000000	0.002946  
2213.000000	0.003014  
2212.000000	0.002849  
2211.000000	0.002660  
2210.000000	0.002634  
2209.000000	0.002648  
2208.000000	0.002444  
2207.000000	0.002020  
2206.000000	0.001687  
2205.000000	0.001727  
2204.000000	0.002121  
2203.000000	0.002655  
2202.000000	0.003167  
2201.000000	0.003605  
2200.000000	0.003922  
2199.000000	0.004069  
2198.000000	0.004095  
2197.000000	0.004138  
2196.000000	0.004239  
2195.000000	0.004231  
2194.000000	0.003912  
2193.000000	0.003298  
2192.000000	0.002623  
2191.000000	0.002085  
2190.000000	0.001719  
2189.000000	0.001532  
2188.000000	0.001603  
2187.000000	0.001944  
2186.000000	0.002325  
2185.000000	0.002422  
2184.000000	0.002160  
2183.000000	0.001839  
2182.000000	0.001856  
2181.000000	0.002347  
2180.000000	0.003089  
2179.000000	0.003701  
2178.000000	0.003915  
2177.000000	0.003741  
2176.000000	0.003404  
2175.000000	0.003073  
2174.000000	0.002676  
2173.000000	0.002091  
2172.000000	0.001475  
2171.000000	0.001233  
2170.000000	0.001571  
2169.000000	0.002185  
2168.000000	0.002541  
2167.000000	0.002448  
2166.000000	0.002216  
2165.000000	0.002236  
2164.000000	0.002513  
2163.000000	0.002721  
2162.000000	0.002612  
2161.000000	0.002267  
2160.000000	0.001951  
2159.000000	0.001835  
2158.000000	0.001916  
2157.000000	0.002140  
2156.000000	0.002457  
2155.000000	0.002763  
2154.000000	0.002947  
2153.000000	0.003017  
2152.000000	0.003115  
2151.000000	0.003298  
2150.000000	0.003404  
2149.000000	0.003228  
2148.000000	0.002826  
2147.000000	0.002516  
2146.000000	0.002576  
2145.000000	0.003002  
2144.000000	0.003572  
2143.000000	0.004025  
2142.000000	0.004140  
2141.000000	0.003797  
2140.000000	0.003104  
2139.000000	0.002419  
2138.000000	0.002128  
2137.000000	0.002340  
2136.000000	0.002797  
2135.000000	0.003105  
2134.000000	0.003042  
2133.000000	0.002697  
2132.000000	0.002362  
2131.000000	0.002274  
2130.000000	0.002434  
2129.000000	0.002653  
2128.000000	0.002764  
2127.000000	0.002748  
2126.000000	0.002642  
2125.000000	0.002440  
2124.000000	0.002164  
2123.000000	0.001968  
2122.000000	0.002051  
2121.000000	0.002425  
2120.000000	0.002841  
2119.000000	0.003007  
2118.000000	0.002839  
2117.000000	0.002522  
2116.000000	0.002358  
2115.000000	0.002519  
2114.000000	0.002875  
2113.000000	0.003061  
2112.000000	0.002820  
2111.000000	0.002316  
2110.000000	0.002003  
2109.000000	0.002146  
2108.000000	0.002544  
2107.000000	0.002803  
2106.000000	0.002753  
2105.000000	0.002515  
2104.000000	0.002244  
2103.000000	0.001988  
2102.000000	0.001781  
2101.000000	0.001688  
2100.000000	0.001690  
2099.000000	0.001647  
2098.000000	0.001465  
2097.000000	0.001232  
2096.000000	0.001117  
2095.000000	0.001169  
2094.000000	0.001297  
2093.000000	0.001405  
2092.000000	0.001487  
2091.000000	0.001581  
2090.000000	0.001699  
2089.000000	0.001842  
2088.000000	0.002036  
2087.000000	0.002333  
2086.000000	0.002726  
2085.000000	0.003075  
2084.000000	0.003164  
2083.000000	0.002886  
2082.000000	0.002387  
2081.000000	0.001998  
2080.000000	0.001974  
2079.000000	0.002292  
2078.000000	0.002675  
2077.000000	0.002814  
2076.000000	0.002613  
2075.000000	0.002280  
2074.000000	0.002140  
2073.000000	0.002329  
2072.000000	0.002646  
2071.000000	0.002779  
2070.000000	0.002641  
2069.000000	0.002411  
2068.000000	0.002278  
2067.000000	0.002274  
2066.000000	0.002359  
2065.000000	0.002527  
2064.000000	0.002755  
2063.000000	0.002942  
2062.000000	0.002997  
2061.000000	0.002920  
2060.000000	0.002744  
2059.000000	0.002470  
2058.000000	0.002162  
2057.000000	0.001992  
2056.000000	0.002061  
2055.000000	0.002227  
2054.000000	0.002282  
2053.000000	0.002222  
2052.000000	0.002193  
2051.000000	0.002212  
2050.000000	0.002177  
2049.000000	0.002188  
2048.000000	0.002550  
2047.000000	0.003260  
2046.000000	0.003753  
2045.000000	0.003474  
2044.000000	0.002595  
2043.000000	0.001850  
2042.000000	0.001698  
2041.000000	0.001937  
2040.000000	0.002183  
2039.000000	0.002395  
2038.000000	0.002712  
2037.000000	0.003026  
2036.000000	0.003074  
2035.000000	0.002879  
2034.000000	0.002797  
2033.000000	0.003029  
2032.000000	0.003344  
2031.000000	0.003378  
2030.000000	0.003015  
2029.000000	0.002376  
2028.000000	0.001619  
2027.000000	0.000919  
2026.000000	0.000509  
2025.000000	0.000523  
2024.000000	0.000819  
2023.000000	0.001153  
2022.000000	0.001497  
2021.000000	0.001980  
2020.000000	0.002528  
2019.000000	0.002820  
2018.000000	0.002666  
2017.000000	0.002242  
2016.000000	0.001832  
2015.000000	0.001513  
2014.000000	0.001285  
2013.000000	0.001300  
2012.000000	0.001633  
2011.000000	0.001951  
2010.000000	0.001749  
2009.000000	0.000955  
2008.000000	0.000078  
2007.000000	-0.000385 
2006.000000	-0.000417 
2005.000000	-0.000241 
2004.000000	0.000081  
2003.000000	0.000631  
2002.000000	0.001365  
2001.000000	0.002077  
2000.000000	0.002564  
1999.000000	0.002683  
1998.000000	0.002355  
1997.000000	0.001704  
1996.000000	0.001135  
1995.000000	0.001055  
1994.000000	0.001493  
1993.000000	0.002071  
1992.000000	0.002403  
1991.000000	0.002458  
1990.000000	0.002460  
1989.000000	0.002585  
1988.000000	0.002840  
1987.000000	0.003098  
1986.000000	0.003197  
1985.000000	0.003092  
1984.000000	0.002958  
1983.000000	0.003029  
1982.000000	0.003268  
1981.000000	0.003365  
1980.000000	0.003126  
1979.000000	0.002738  
1978.000000	0.002474  
1977.000000	0.002276  
1976.000000	0.001908  
1975.000000	0.001426  
1974.000000	0.001129  
1973.000000	0.001083  
1972.000000	0.001038  
1971.000000	0.000864  
1970.000000	0.000769  
1969.000000	0.000956  
1968.000000	0.001295  
1967.000000	0.001528  
1966.000000	0.001644  
1965.000000	0.001804  
1964.000000	0.002030  
1963.000000	0.002199  
1962.000000	0.002265  
1961.000000	0.002296  
1960.000000	0.002342  
1959.000000	0.002407  
1958.000000	0.002516  
1957.000000	0.002649  
1956.000000	0.002639  
1955.000000	0.002312  
1954.000000	0.001739  
1953.000000	0.001234  
1952.000000	0.001081  
1951.000000	0.001323  
1950.000000	0.001825  
1949.000000	0.002386  
1948.000000	0.002790  
1947.000000	0.002900  
1946.000000	0.002771  
1945.000000	0.002613  
1944.000000	0.002568  
1943.000000	0.002584  
1942.000000	0.002537  
1941.000000	0.002394  
1940.000000	0.002182  
1939.000000	0.001932  
1938.000000	0.001750  
1937.000000	0.001829  
1936.000000	0.002242  
1935.000000	0.002798  
1934.000000	0.003196  
1933.000000	0.003316  
1932.000000	0.003275  
1931.000000	0.003222  
1930.000000	0.003168  
1929.000000	0.003057  
1928.000000	0.002899  
1927.000000	0.002752  
1926.000000	0.002636  
1925.000000	0.002528  
1924.000000	0.002406  
1923.000000	0.002295  
1922.000000	0.002269  
1921.000000	0.002408  
1920.000000	0.002717  
1919.000000	0.003060  
1918.000000	0.003230  
1917.000000	0.003175  
1916.000000	0.003035  
1915.000000	0.002901  
1914.000000	0.002705  
1913.000000	0.002390  
1912.000000	0.002068  
1911.000000	0.001901  
1910.000000	0.001899  
1909.000000	0.001923  
1908.000000	0.001901  
1907.000000	0.001885  
1906.000000	0.001909  
1905.000000	0.001934  
1904.000000	0.001941  
1903.000000	0.001981  
1902.000000	0.002100  
1901.000000	0.002258  
1900.000000	0.002372  
1899.000000	0.002396  
1898.000000	0.002352  
1897.000000	0.002296  
1896.000000	0.002292  
1895.000000	0.002369  
1894.000000	0.002488  
1893.000000	0.002588  
1892.000000	0.002659  
1891.000000	0.002738  
1890.000000	0.002843  
1889.000000	0.002933  
1888.000000	0.002958  
1887.000000	0.002899  
1886.000000	0.002778  
1885.000000	0.002652  
1884.000000	0.002581  
1883.000000	0.002572  
1882.000000	0.002570  
1881.000000	0.002534  
1880.000000	0.002480  
1879.000000	0.002439  
1878.000000	0.002419  
1877.000000	0.002427  
1876.000000	0.002508  
1875.000000	0.002692  
1874.000000	0.002920  
1873.000000	0.003095  
1872.000000	0.003173  
1871.000000	0.003170  
1870.000000	0.003061  
1869.000000	0.002816  
1868.000000	0.002549  
1867.000000	0.002454  
1866.000000	0.002565  
1865.000000	0.002760  
1864.000000	0.002919  
1863.000000	0.003007  
1862.000000	0.003035  
1861.000000	0.003000  
1860.000000	0.002911  
1859.000000	0.002835  
1858.000000	0.002849  
1857.000000	0.002956  
1856.000000	0.003060  
1855.000000	0.003020  
1854.000000	0.002782  
1853.000000	0.002469  
1852.000000	0.002297  
1851.000000	0.002366  
1850.000000	0.002539  
1849.000000	0.002580  
1848.000000	0.002422  
1847.000000	0.002249  
1846.000000	0.002282  
1845.000000	0.002551  
1844.000000	0.002856  
1843.000000	0.002990  
1842.000000	0.002930  
1841.000000	0.002782  
1840.000000	0.002644  
1839.000000	0.002563  
1838.000000	0.002550  
1837.000000	0.002582  
1836.000000	0.002614  
1835.000000	0.002613  
1834.000000	0.002567  
1833.000000	0.002457  
1832.000000	0.002267  
1831.000000	0.002080  
1830.000000	0.002074  
1829.000000	0.002320  
1828.000000	0.002655  
1827.000000	0.002888  
1826.000000	0.002946  
1825.000000	0.002858  
1824.000000	0.002731  
1823.000000	0.002686  
1822.000000	0.002756  
1821.000000	0.002843  
1820.000000	0.002809  
1819.000000	0.002641  
1818.000000	0.002484  
1817.000000	0.002478  
1816.000000	0.002607  
1815.000000	0.002748  
1814.000000	0.002812  
1813.000000	0.002788  
1812.000000	0.002721  
1811.000000	0.002697  
1810.000000	0.002774  
1809.000000	0.002916  
1808.000000	0.003054  
1807.000000	0.003145  
1806.000000	0.003173  
1805.000000	0.003154  
1804.000000	0.003139  
1803.000000	0.003193  
1802.000000	0.003321  
1801.000000	0.003443  
1800.000000	0.003508  
1799.000000	0.003543  
1798.000000	0.003562  
1797.000000	0.003535  
1796.000000	0.003472  
1795.000000	0.003435  
1794.000000	0.003470  
1793.000000	0.003529  
1792.000000	0.003524  
1791.000000	0.003465  
1790.000000	0.003421  
1789.000000	0.003426  
1788.000000	0.003469  
1787.000000	0.003526  
1786.000000	0.003580  
1785.000000	0.003614  
1784.000000	0.003605  
1783.000000	0.003545  
1782.000000	0.003480  
1781.000000	0.003481  
1780.000000	0.003593  
1779.000000	0.003764  
1778.000000	0.003897  
1777.000000	0.003952  
1776.000000	0.003962  
1775.000000	0.003972  
1774.000000	0.003993  
1773.000000	0.003988  
1772.000000	0.003935  
1771.000000	0.003889  
1770.000000	0.003947  
1769.000000	0.004150  
1768.000000	0.004408  
1767.000000	0.004578  
1766.000000	0.004635  
1765.000000	0.004697  
1764.000000	0.004871  
1763.000000	0.005155  
1762.000000	0.005487  
1761.000000	0.005822  
1760.000000	0.006143  
1759.000000	0.006462  
1758.000000	0.006838  
1757.000000	0.007345  
1756.000000	0.007968  
1755.000000	0.008648  
1754.000000	0.009466  
1753.000000	0.010663  
1752.000000	0.012425  
1751.000000	0.014686  
1750.000000	0.017355  
1749.000000	0.020608  
1748.000000	0.024534  
1747.000000	0.028889  
1746.000000	0.033446  
1745.000000	0.038117  
1744.000000	0.042547  
1743.000000	0.046020  
1742.000000	0.047997  
1741.000000	0.048300  
1740.000000	0.046860  
1739.000000	0.044050  
1738.000000	0.040814  
1737.000000	0.037689  
1736.000000	0.034362  
1735.000000	0.030114  
1734.000000	0.025333  
1733.000000	0.021524  
1732.000000	0.019048  
1731.000000	0.017264  
1730.000000	0.015805  
1729.000000	0.014619  
1728.000000	0.013683  
1727.000000	0.012917  
1726.000000	0.012250  
1725.000000	0.011642  
1724.000000	0.011060  
1723.000000	0.010504  
1722.000000	0.010023  
1721.000000	0.009640  
1720.000000	0.009301  
1719.000000	0.008922  
1718.000000	0.008469  
1717.000000	0.007935  
1716.000000	0.007422  
1715.000000	0.007075  
1714.000000	0.006879  
1713.000000	0.006717  
1712.000000	0.006498  
1711.000000	0.006217  
1710.000000	0.005921  
1709.000000	0.005642  
1708.000000	0.005395  
1707.000000	0.005219  
1706.000000	0.005139  
1705.000000	0.005113  
1704.000000	0.005165  
1703.000000	0.005409  
1702.000000	0.005881  
1701.000000	0.006214  
1700.000000	0.006015  
1699.000000	0.005554  
1698.000000	0.005258  
1697.000000	0.005159  
1696.000000	0.005117  
1695.000000	0.005084  
1694.000000	0.005016  
1693.000000	0.004888  
1692.000000	0.004749  
1691.000000	0.004655  
1690.000000	0.004653  
1689.000000	0.004703  
1688.000000	0.004739  
1687.000000	0.004750  
1686.000000	0.004759  
1685.000000	0.004726  
1684.000000	0.004664  
1683.000000	0.004663  
1682.000000	0.004693  
1681.000000	0.004720  
1680.000000	0.004707  
1679.000000	0.004652  
1678.000000	0.004574  
1677.000000	0.004504  
1676.000000	0.004445  
1675.000000	0.004437  
1674.000000	0.004512  
1673.000000	0.004640  
1672.000000	0.004779  
1671.000000	0.004879  
1670.000000	0.004921  
1669.000000	0.004965  
1668.000000	0.005037  
1667.000000	0.005104  
1666.000000	0.005189  
1665.000000	0.005331  
1664.000000	0.005502  
1663.000000	0.005639  
1662.000000	0.005732  
1661.000000	0.005828  
1660.000000	0.005953  
1659.000000	0.006081  
1658.000000	0.006126  
1657.000000	0.006093  
1656.000000	0.006035  
1655.000000	0.006036  
1654.000000	0.006092  
1653.000000	0.006321  
1652.000000	0.006606  
1651.000000	0.006604  
1650.000000	0.006525  
1649.000000	0.006585  
1648.000000	0.006795  
1647.000000	0.006944  
1646.000000	0.006893  
1645.000000	0.006700  
1644.000000	0.006474  
1643.000000	0.006305  
1642.000000	0.006262  
1641.000000	0.006286  
1640.000000	0.006301  
1639.000000	0.006282  
1638.000000	0.006278  
1637.000000	0.006321  
1636.000000	0.006367  
1635.000000	0.006361  
1634.000000	0.006295  
1633.000000	0.006231  
1632.000000	0.006219  
1631.000000	0.006233  
1630.000000	0.006191  
1629.000000	0.006087  
1628.000000	0.005995  
1627.000000	0.005982  
1626.000000	0.006052  
1625.000000	0.006168  
1624.000000	0.006257  
1623.000000	0.006231  
1622.000000	0.006094  
1621.000000	0.005959  
1620.000000	0.005899  
1619.000000	0.005895  
1618.000000	0.005861  
1617.000000	0.005784  
1616.000000	0.005773  
1615.000000	0.005829  
1614.000000	0.005875  
1613.000000	0.005908  
1612.000000	0.005955  
1611.000000	0.006023  
1610.000000	0.006100  
1609.000000	0.006166  
1608.000000	0.006189  
1607.000000	0.006128  
1606.000000	0.006003  
1605.000000	0.005876  
1604.000000	0.005780  
1603.000000	0.005696  
1602.000000	0.005613  
1601.000000	0.005552  
1600.000000	0.005498  
1599.000000	0.005392  
1598.000000	0.005232  
1597.000000	0.005105  
1596.000000	0.005095  
1595.000000	0.005180  
1594.000000	0.005274  
1593.000000	0.005351  
1592.000000	0.005453  
1591.000000	0.005593  
1590.000000	0.005731  
1589.000000	0.005823  
1588.000000	0.005861  
1587.000000	0.005846  
1586.000000	0.005802  
1585.000000	0.005779  
1584.000000	0.005807  
1583.000000	0.005871  
1582.000000	0.005920  
1581.000000	0.005930  
1580.000000	0.005931  
1579.000000	0.005963  
1578.000000	0.006025  
1577.000000	0.006080  
1576.000000	0.006113  
1575.000000	0.006128  
1574.000000	0.006162  
1573.000000	0.006282  
1572.000000	0.006466  
1571.000000	0.006593  
1570.000000	0.006569  
1569.000000	0.006492  
1568.000000	0.006446  
1567.000000	0.006394  
1566.000000	0.006278  
1565.000000	0.006122  
1564.000000	0.005917  
1563.000000	0.005709  
1562.000000	0.005536  
1561.000000	0.005472  
1560.000000	0.005509  
1559.000000	0.005529  
1558.000000	0.005507  
1557.000000	0.005607  
1556.000000	0.005859  
1555.000000	0.006078  
1554.000000	0.006247  
1553.000000	0.006234  
1552.000000	0.006087  
1551.000000	0.005831  
1550.000000	0.005575  
1549.000000	0.005427  
1548.000000	0.005415  
1547.000000	0.005480  
1546.000000	0.005562  
1545.000000	0.005593  
1544.000000	0.005546  
1543.000000	0.005487  
1542.000000	0.005543  
1541.000000	0.005673  
1540.000000	0.005709  
1539.000000	0.005679  
1538.000000	0.005664  
1537.000000	0.005679  
1536.000000	0.005723  
1535.000000	0.005753  
1534.000000	0.005668  
1533.000000	0.005479  
1532.000000	0.005309  
1531.000000	0.005230  
1530.000000	0.005202  
1529.000000	0.005198  
1528.000000	0.005239  
1527.000000	0.005376  
1526.000000	0.005602  
1525.000000	0.005811  
1524.000000	0.005912  
1523.000000	0.005940  
1522.000000	0.005966  
1521.000000	0.006007  
1520.000000	0.006032  
1519.000000	0.006055  
1518.000000	0.006145  
1517.000000	0.006300  
1516.000000	0.006433  
1515.000000	0.006551  
1514.000000	0.006739  
1513.000000	0.006998  
1512.000000	0.007169  
1511.000000	0.007159  
1510.000000	0.007076  
1509.000000	0.007137  
1508.000000	0.007393  
1507.000000	0.007755  
1506.000000	0.008248  
1505.000000	0.008672  
1504.000000	0.008794  
1503.000000	0.008724  
1502.000000	0.008669  
1501.000000	0.008646  
1500.000000	0.008620  
1499.000000	0.008645  
1498.000000	0.008980  
1497.000000	0.009645  
1496.000000	0.010203  
1495.000000	0.010411  
1494.000000	0.010523  
1493.000000	0.010759  
1492.000000	0.011014  
1491.000000	0.011100  
1490.000000	0.011121  
1489.000000	0.011313  
1488.000000	0.011670  
1487.000000	0.012073  
1486.000000	0.012503  
1485.000000	0.012999  
1484.000000	0.013560  
1483.000000	0.014222  
1482.000000	0.015095  
1481.000000	0.016188  
1480.000000	0.017348  
1479.000000	0.018546  
1478.000000	0.019997  
1477.000000	0.021846  
1476.000000	0.023978  
1475.000000	0.026467  
1474.000000	0.030058  
1473.000000	0.035507  
1472.000000	0.042221  
1471.000000	0.048895  
1470.000000	0.055104  
1469.000000	0.060897  
1468.000000	0.066054  
1467.000000	0.070366  
1466.000000	0.073944  
1465.000000	0.076882  
1464.000000	0.078974  
1463.000000	0.080231  
1462.000000	0.081038  
1461.000000	0.081709  
1460.000000	0.082378  
1459.000000	0.083180  
1458.000000	0.084128  
1457.000000	0.084370  
1456.000000	0.083025  
1455.000000	0.080663  
1454.000000	0.078101  
1453.000000	0.075433  
1452.000000	0.072632  
1451.000000	0.069884  
1450.000000	0.067348  
1449.000000	0.064800  
1448.000000	0.061989  
1447.000000	0.059085  
1446.000000	0.056327  
1445.000000	0.053586  
1444.000000	0.050659  
1443.000000	0.047584  
1442.000000	0.044558  
1441.000000	0.041765  
1440.000000	0.039294  
1439.000000	0.037083  
1438.000000	0.034887  
1437.000000	0.032521  
1436.000000	0.030258  
1435.000000	0.028463  
1434.000000	0.026995  
1433.000000	0.025499  
1432.000000	0.023846  
1431.000000	0.022157  
1430.000000	0.020620  
1429.000000	0.019338  
1428.000000	0.018354  
1427.000000	0.017655  
1426.000000	0.017127  
1425.000000	0.016637  
1424.000000	0.016166  
1423.000000	0.015792  
1422.000000	0.015536  
1421.000000	0.015316  
1420.000000	0.015033  
1419.000000	0.014689  
1418.000000	0.014353  
1417.000000	0.014032  
1416.000000	0.013712  
1415.000000	0.013419  
1414.000000	0.013168  
1413.000000	0.012936  
1412.000000	0.012700  
1411.000000	0.012456  
1410.000000	0.012235  
1409.000000	0.012093  
1408.000000	0.012078  
1407.000000	0.012193  
1406.000000	0.012380  
1405.000000	0.012576  
1404.000000	0.012768  
1403.000000	0.012977  
1402.000000	0.013200  
1401.000000	0.013436  
1400.000000	0.013713  
1399.000000	0.014040  
1398.000000	0.014371  
1397.000000	0.014684  
1396.000000	0.015004  
1395.000000	0.015345  
1394.000000	0.015703  
1393.000000	0.016074  
1392.000000	0.016475  
1391.000000	0.016969  
1390.000000	0.017652  
1389.000000	0.018686  
1388.000000	0.020263  
1387.000000	0.022366  
1386.000000	0.024718  
1385.000000	0.027123  
1384.000000	0.029670  
1383.000000	0.032553  
1382.000000	0.035861  
1381.000000	0.039502  
1380.000000	0.043123  
1379.000000	0.046051  
1378.000000	0.047583  
1377.000000	0.047440  
1376.000000	0.045769  
1375.000000	0.042903  
1374.000000	0.039401  
1373.000000	0.036017  
1372.000000	0.033256  
1371.000000	0.031202  
1370.000000	0.029789  
1369.000000	0.028971  
1368.000000	0.028599  
1367.000000	0.028353  
1366.000000	0.027884  
1365.000000	0.026979  
1364.000000	0.025626  
1363.000000	0.024040  
1362.000000	0.022580  
1361.000000	0.021506  
1360.000000	0.020815  
1359.000000	0.020352  
1358.000000	0.019985  
1357.000000	0.019677  
1356.000000	0.019462  
1355.000000	0.019367  
1354.000000	0.019355  
1353.000000	0.019340  
1352.000000	0.019274  
1351.000000	0.019160  
1350.000000	0.019006  
1349.000000	0.018821  
1348.000000	0.018614  
1347.000000	0.018381  
1346.000000	0.018118  
1345.000000	0.017859  
1344.000000	0.017666  
1343.000000	0.017564  
1342.000000	0.017499  
1341.000000	0.017393  
1340.000000	0.017193  
1339.000000	0.016893  
1338.000000	0.016525  
1337.000000	0.016132  
1336.000000	0.015747  
1335.000000	0.015391  
1334.000000	0.015071  
1333.000000	0.014802  
1332.000000	0.014614  
1331.000000	0.014507  
1330.000000	0.014433  
1329.000000	0.014342  
1328.000000	0.014252  
1327.000000	0.014206  
1326.000000	0.014214  
1325.000000	0.014257  
1324.000000	0.014326  
1323.000000	0.014418  
1322.000000	0.014519  
1321.000000	0.014615  
1320.000000	0.014702  
1319.000000	0.014782  
1318.000000	0.014853  
1317.000000	0.014914  
1316.000000	0.014984  
1315.000000	0.015086  
1314.000000	0.015226  
1313.000000	0.015388  
1312.000000	0.015556  
1311.000000	0.015728  
1310.000000	0.015906  
1309.000000	0.016093  
1308.000000	0.016283  
1307.000000	0.016458  
1306.000000	0.016583  
1305.000000	0.016635  
1304.000000	0.016617  
1303.000000	0.016548  
1302.000000	0.016454  
1301.000000	0.016360  
1300.000000	0.016279  
1299.000000	0.016198  
1298.000000	0.016081  
1297.000000	0.015906  
1296.000000	0.015690  
1295.000000	0.015464  
1294.000000	0.015244  
1293.000000	0.015030  
1292.000000	0.014840  
1291.000000	0.014715  
1290.000000	0.014686  
1289.000000	0.014738  
1288.000000	0.014825  
1287.000000	0.014920  
1286.000000	0.015033  
1285.000000	0.015181  
1284.000000	0.015359  
1283.000000	0.015539  
1282.000000	0.015708  
1281.000000	0.015872  
1280.000000	0.016030  
1279.000000	0.016159  
1278.000000	0.016257  
1277.000000	0.016365  
1276.000000	0.016525  
1275.000000	0.016729  
1274.000000	0.016930  
1273.000000	0.017100  
1272.000000	0.017249  
1271.000000	0.017384  
1270.000000	0.017485  
1269.000000	0.017541  
1268.000000	0.017560  
1267.000000	0.017552  
1266.000000	0.017512  
1265.000000	0.017448  
1264.000000	0.017402  
1263.000000	0.017420  
1262.000000	0.017515  
1261.000000	0.017653  
1260.000000	0.017778  
1259.000000	0.017847  
1258.000000	0.017863  
1257.000000	0.017857  
1256.000000	0.017853  
1255.000000	0.017850  
1254.000000	0.017870  
1253.000000	0.017991  
1252.000000	0.018271  
1251.000000	0.018657  
1250.000000	0.019012  
1249.000000	0.019264  
1248.000000	0.019470  
1247.000000	0.019712  
1246.000000	0.019979  
1245.000000	0.020191  
1244.000000	0.020293  
1243.000000	0.020297  
1242.000000	0.020243  
1241.000000	0.020152  
1240.000000	0.020034  
1239.000000	0.019880  
1238.000000	0.019679  
1237.000000	0.019429  
1236.000000	0.019161  
1235.000000	0.018899  
1234.000000	0.018628  
1233.000000	0.018316  
1232.000000	0.017971  
1231.000000	0.017643  
1230.000000	0.017363  
1229.000000	0.017110  
1228.000000	0.016865  
1227.000000	0.016651  
1226.000000	0.016500  
1225.000000	0.016406  
1224.000000	0.016339  
1223.000000	0.016293  
1222.000000	0.016270  
1221.000000	0.016247  
1220.000000	0.016187  
1219.000000	0.016096  
1218.000000	0.016040  
1217.000000	0.016082  
1216.000000	0.016222  
1215.000000	0.016395  
1214.000000	0.016526  
1213.000000	0.016582  
1212.000000	0.016598  
1211.000000	0.016653  
1210.000000	0.016809  
1209.000000	0.017035  
1208.000000	0.017229  
1207.000000	0.017329  
1206.000000	0.017381  
1205.000000	0.017485  
1204.000000	0.017687  
1203.000000	0.017948  
1202.000000	0.018219  
1201.000000	0.018490  
1200.000000	0.018782  
1199.000000	0.019117  
1198.000000	0.019515  
1197.000000	0.019988  
1196.000000	0.020517  
1195.000000	0.021063  
1194.000000	0.021611  
1193.000000	0.022186  
1192.000000	0.022793  
1191.000000	0.023395  
1190.000000	0.023954  
1189.000000	0.024484  
1188.000000	0.025020  
1187.000000	0.025571  
1186.000000	0.026125  
1185.000000	0.026695  
1184.000000	0.027313  
1183.000000	0.027989  
1182.000000	0.028689  
1181.000000	0.029358  
1180.000000	0.029932  
1179.000000	0.030372  
1178.000000	0.030688  
1177.000000	0.030939  
1176.000000	0.031161  
1175.000000	0.031330  
1174.000000	0.031409  
1173.000000	0.031399  
1172.000000	0.031317  
1171.000000	0.031152  
1170.000000	0.030876  
1169.000000	0.030499  
1168.000000	0.030060  
1167.000000	0.029587  
1166.000000	0.029082  
1165.000000	0.028549  
1164.000000	0.027992  
1163.000000	0.027384  
1162.000000	0.026699  
1161.000000	0.025971  
1160.000000	0.025292  
1159.000000	0.024715  
1158.000000	0.024194  
1157.000000	0.023638  
1156.000000	0.023007  
1155.000000	0.022333  
1154.000000	0.021671  
1153.000000	0.021065  
1152.000000	0.020535  
1151.000000	0.020087  
1150.000000	0.019719  
1149.000000	0.019429  
1148.000000	0.019203  
1147.000000	0.018989  
1146.000000	0.018711  
1145.000000	0.018335  
1144.000000	0.017896  
1143.000000	0.017456  
1142.000000	0.017039  
1141.000000	0.016634  
1140.000000	0.016230  
1139.000000	0.015832  
1138.000000	0.015475  
1137.000000	0.015201  
1136.000000	0.015023  
1135.000000	0.014876  
1134.000000	0.014669  
1133.000000	0.014383  
1132.000000	0.014111  
1131.000000	0.013953  
1130.000000	0.013930  
1129.000000	0.014014  
1128.000000	0.014200  
1127.000000	0.014480  
1126.000000	0.014801  
1125.000000	0.015105  
1124.000000	0.015386  
1123.000000	0.015671  
1122.000000	0.015937  
1121.000000	0.016125  
1120.000000	0.016210  
1119.000000	0.016219  
1118.000000	0.016177  
1117.000000	0.016086  
1116.000000	0.015960  
1115.000000	0.015814  
1114.000000	0.015632  
1113.000000	0.015389  
1112.000000	0.015118  
1111.000000	0.014887  
1110.000000	0.014705  
1109.000000	0.014518  
1108.000000	0.014316  
1107.000000	0.014192  
1106.000000	0.014239  
1105.000000	0.014415  
1104.000000	0.014570  
1103.000000	0.014598  
1102.000000	0.014541  
1101.000000	0.014534  
1100.000000	0.014661  
1099.000000	0.014878  
1098.000000	0.015045  
1097.000000	0.015072  
1096.000000	0.015013  
1095.000000	0.014988  
1094.000000	0.015036  
1093.000000	0.015082  
1092.000000	0.015053  
1091.000000	0.014968  
1090.000000	0.014876  
1089.000000	0.014768  
1088.000000	0.014611  
1087.000000	0.014441  
1086.000000	0.014355  
1085.000000	0.014401  
1084.000000	0.014528  
1083.000000	0.014636  
1082.000000	0.014684  
1081.000000	0.014716  
1080.000000	0.014819  
1079.000000	0.015048  
1078.000000	0.015384  
1077.000000	0.015772  
1076.000000	0.016172  
1075.000000	0.016590  
1074.000000	0.017021  
1073.000000	0.017412  
1072.000000	0.017684  
1071.000000	0.017809  
1070.000000	0.017838  
1069.000000	0.017853  
1068.000000	0.017889  
1067.000000	0.017918  
1066.000000	0.017905  
1065.000000	0.017860  
1064.000000	0.017816  
1063.000000	0.017766  
1062.000000	0.017643  
1061.000000	0.017388  
1060.000000	0.017024  
1059.000000	0.016631  
1058.000000	0.016272  
1057.000000	0.015978  
1056.000000	0.015793  
1055.000000	0.015764  
1054.000000	0.015841  
1053.000000	0.015839  
1052.000000	0.015591  
1051.000000	0.015161  
1050.000000	0.014827  
1049.000000	0.014800  
1048.000000	0.015013  
1047.000000	0.015235  
1046.000000	0.015310  
1045.000000	0.015258  
1044.000000	0.015199  
1043.000000	0.015246  
1042.000000	0.015434  
1041.000000	0.015705  
1040.000000	0.015932  
1039.000000	0.016000  
1038.000000	0.015879  
1037.000000	0.015646  
1036.000000	0.015428  
1035.000000	0.015334  
1034.000000	0.015412  
1033.000000	0.015629  
1032.000000	0.015882  
1031.000000	0.016062  
1030.000000	0.016110  
1029.000000	0.016045  
1028.000000	0.015926  
1027.000000	0.015806  
1026.000000	0.015712  
1025.000000	0.015632  
1024.000000	0.015505  
1023.000000	0.015267  
1022.000000	0.014926  
1021.000000	0.014567  
1020.000000	0.014266  
1019.000000	0.014022  
1018.000000	0.013798  
1017.000000	0.013608  
1016.000000	0.013509  
1015.000000	0.013508  
1014.000000	0.013525  
1013.000000	0.013471  
1012.000000	0.013329  
1011.000000	0.013149  
1010.000000	0.012992  
1009.000000	0.012895  
1008.000000	0.012860  
1007.000000	0.012848  
1006.000000	0.012801  
1005.000000	0.012685  
1004.000000	0.012524  
1003.000000	0.012372  
1002.000000	0.012280  
1001.000000	0.012246  
1000.000000	0.012209  
999.000000	 0.012085  
998.000000	 0.011852  
997.000000	 0.011611  
996.000000	 0.011508  
995.000000	 0.011598  
994.000000	 0.011791  
993.000000	 0.011938  
992.000000	 0.011953  
991.000000	 0.011844  
990.000000	 0.011694  
989.000000	 0.011605  
988.000000	 0.011631  
987.000000	 0.011721  
986.000000	 0.011762  
985.000000	 0.011713  
984.000000	 0.011650  
983.000000	 0.011668  
982.000000	 0.011773  
981.000000	 0.011904  
980.000000	 0.012033  
979.000000	 0.012173  
978.000000	 0.012333  
977.000000	 0.012503  
976.000000	 0.012676  
975.000000	 0.012852  
974.000000	 0.013012  
973.000000	 0.013151  
972.000000	 0.013304  
971.000000	 0.013513  
970.000000	 0.013767  
969.000000	 0.014001  
968.000000	 0.014158  
967.000000	 0.014214  
966.000000	 0.014165  
965.000000	 0.014016  
964.000000	 0.013805  
963.000000	 0.013599  
962.000000	 0.013447  
961.000000	 0.013358  
960.000000	 0.013300  
959.000000	 0.013232  
958.000000	 0.013139  
957.000000	 0.013059  
956.000000	 0.013060  
955.000000	 0.013165  
954.000000	 0.013312  
953.000000	 0.013412  
952.000000	 0.013440  
951.000000	 0.013426  
950.000000	 0.013382  
949.000000	 0.013293  
948.000000	 0.013165  
947.000000	 0.013045  
946.000000	 0.012974  
945.000000	 0.012948  
944.000000	 0.012943  
943.000000	 0.012933  
942.000000	 0.012885  
941.000000	 0.012755  
940.000000	 0.012521  
939.000000	 0.012199  
938.000000	 0.011840  
937.000000	 0.011507  
936.000000	 0.011250  
935.000000	 0.011086  
934.000000	 0.010996  
933.000000	 0.010968  
932.000000	 0.011009  
931.000000	 0.011099  
930.000000	 0.011164  
929.000000	 0.011133  
928.000000	 0.011027  
927.000000	 0.010940  
926.000000	 0.010926  
925.000000	 0.010960  
924.000000	 0.011004  
923.000000	 0.011062  
922.000000	 0.011147  
921.000000	 0.011231  
920.000000	 0.011254  
919.000000	 0.011186  
918.000000	 0.011073  
917.000000	 0.011012  
916.000000	 0.011074  
915.000000	 0.011224  
914.000000	 0.011331  
913.000000	 0.011282  
912.000000	 0.011089  
911.000000	 0.010876  
910.000000	 0.010769  
909.000000	 0.010816  
908.000000	 0.010979  
907.000000	 0.011136  
906.000000	 0.011135  
905.000000	 0.010918  
904.000000	 0.010607  
903.000000	 0.010417  
902.000000	 0.010438  
901.000000	 0.010576  
900.000000	 0.010691  
899.000000	 0.010743  
898.000000	 0.010770  
897.000000	 0.010802  
896.000000	 0.010828  
895.000000	 0.010832  
894.000000	 0.010809  
893.000000	 0.010760  
892.000000	 0.010716  
891.000000	 0.010735  
890.000000	 0.010841  
889.000000	 0.010994  
888.000000	 0.011115  
887.000000	 0.011150  
886.000000	 0.011079  
885.000000	 0.010923  
884.000000	 0.010744  
883.000000	 0.010620  
882.000000	 0.010591  
881.000000	 0.010633  
880.000000	 0.010716  
879.000000	 0.010837  
878.000000	 0.010984  
877.000000	 0.011094  
876.000000	 0.011104  
875.000000	 0.011014  
874.000000	 0.010856  
873.000000	 0.010635  
872.000000	 0.010345  
871.000000	 0.010065  
870.000000	 0.009962  
869.000000	 0.010147  
868.000000	 0.010545  
867.000000	 0.010915  
866.000000	 0.011037  
865.000000	 0.010882  
864.000000	 0.010605  
863.000000	 0.010391  
862.000000	 0.010310  
861.000000	 0.010339  
860.000000	 0.010446  
859.000000	 0.010609  
858.000000	 0.010771  
857.000000	 0.010859  
856.000000	 0.010893  
855.000000	 0.010994  
854.000000	 0.011264  
853.000000	 0.011664  
852.000000	 0.012061  
851.000000	 0.012368  
850.000000	 0.012598  
849.000000	 0.012797  
848.000000	 0.012967  
847.000000	 0.013078  
846.000000	 0.013116  
845.000000	 0.013088  
844.000000	 0.012997  
843.000000	 0.012841  
842.000000	 0.012642  
841.000000	 0.012463  
840.000000	 0.012370  
839.000000	 0.012378  
838.000000	 0.012436  
837.000000	 0.012451  
836.000000	 0.012316  
835.000000	 0.011946  
834.000000	 0.011373  
833.000000	 0.010786  
832.000000	 0.010426  
831.000000	 0.010366  
830.000000	 0.010436  
829.000000	 0.010435  
828.000000	 0.010392  
827.000000	 0.010522  
826.000000	 0.010909  
825.000000	 0.011368  
824.000000	 0.011639  
823.000000	 0.011651  
822.000000	 0.011514  
821.000000	 0.011369  
820.000000	 0.011320  
819.000000	 0.011425  
818.000000	 0.011672  
817.000000	 0.011975  
816.000000	 0.012227  
815.000000	 0.012356  
814.000000	 0.012331  
813.000000	 0.012162  
812.000000	 0.011936  
811.000000	 0.011812  
810.000000	 0.011918  
809.000000	 0.012251  
808.000000	 0.012689  
807.000000	 0.013078  
806.000000	 0.013304  
805.000000	 0.013299  
804.000000	 0.013050  
803.000000	 0.012620  
802.000000	 0.012136  
801.000000	 0.011735  
800.000000	 0.011483  
799.000000	 0.011340  
798.000000	 0.011211  
797.000000	 0.011037  
796.000000	 0.010839  
795.000000	 0.010674  
794.000000	 0.010558  
793.000000	 0.010475  
792.000000	 0.010446  
791.000000	 0.010521  
790.000000	 0.010702  
789.000000	 0.010894  
788.000000	 0.010998  
787.000000	 0.011035  
786.000000	 0.011137  
785.000000	 0.011411  
784.000000	 0.011817  
783.000000	 0.012206  
782.000000	 0.012467  
781.000000	 0.012618  
780.000000	 0.012761  
779.000000	 0.012969  
778.000000	 0.013252  
777.000000	 0.013601  
776.000000	 0.014019  
775.000000	 0.014498  
774.000000	 0.014993  
773.000000	 0.015463  
772.000000	 0.015906  
771.000000	 0.016316  
770.000000	 0.016635  
769.000000	 0.016789  
768.000000	 0.016766  
767.000000	 0.016615  
766.000000	 0.016383  
765.000000	 0.016087  
764.000000	 0.015771  
763.000000	 0.015537  
762.000000	 0.015495  
761.000000	 0.015666  
760.000000	 0.015951  
759.000000	 0.016214  
758.000000	 0.016390  
757.000000	 0.016532  
756.000000	 0.016736  
755.000000	 0.017037  
754.000000	 0.017380  
753.000000	 0.017686  
752.000000	 0.017910  
751.000000	 0.018033  
750.000000	 0.018072  
749.000000	 0.018127  
748.000000	 0.018369  
747.000000	 0.018954  
746.000000	 0.019947  
745.000000	 0.021323  
744.000000	 0.022965  
743.000000	 0.024627  
742.000000	 0.025972  
741.000000	 0.026770  
740.000000	 0.027078  
739.000000	 0.027153  
738.000000	 0.027195  
737.000000	 0.027242  
736.000000	 0.027266  
735.000000	 0.027290  
734.000000	 0.027372  
733.000000	 0.027551  
732.000000	 0.027823  
731.000000	 0.028138  
730.000000	 0.028457  
729.000000	 0.028870  
728.000000	 0.029572  
727.000000	 0.030653  
726.000000	 0.031948  
725.000000	 0.033178  
724.000000	 0.034212  
723.000000	 0.035101  
722.000000	 0.035787  
721.000000	 0.035880  
720.000000	 0.034898  
719.000000	 0.032854  
718.000000	 0.030385  
717.000000	 0.028221  
716.000000	 0.026734  
715.000000	 0.025844  
714.000000	 0.025184  
713.000000	 0.024423  
712.000000	 0.023496  
711.000000	 0.022563  
710.000000	 0.021807  
709.000000	 0.021303  
708.000000	 0.021017  
707.000000	 0.020868  
706.000000	 0.020835  
705.000000	 0.020975  
704.000000	 0.021310  
703.000000	 0.021739  
702.000000	 0.022093  
701.000000	 0.022276  
700.000000	 0.022333  
699.000000	 0.022299  
698.000000	 0.022083  
697.000000	 0.021567  
696.000000	 0.020804  
695.000000	 0.020084  
694.000000	 0.019659  
693.000000	 0.019437  
692.000000	 0.019055  
691.000000	 0.018246  
690.000000	 0.017156  
689.000000	 0.016191  
688.000000	 0.015532  
687.000000	 0.014964  
686.000000	 0.014259  
685.000000	 0.013550  
684.000000	 0.013171  
683.000000	 0.013179  
682.000000	 0.013292  
681.000000	 0.013248  
680.000000	 0.013033  
679.000000	 0.012723  
678.000000	 0.012381  
677.000000	 0.012229  
676.000000	 0.012323  
675.000000	 0.012506  
674.000000	 0.012637  
673.000000	 0.012530  
672.000000	 0.011457  
671.000000	 0.007827  
670.000000	 0.000386  
669.000000	 -0.010556 
668.000000	 -0.018963 
667.000000	 -0.015307 
666.000000	 -0.004395 
665.000000	 0.004215  
664.000000	 0.008738  
663.000000	 0.010598  
662.000000	 0.011208  
661.000000	 0.011125  
660.000000	 0.010684  
659.000000	 0.010375  
658.000000	 0.010343  
657.000000	 0.010186  
656.000000	 0.009396  
655.000000	 0.008225  
654.000000	 0.007540  
653.000000	 0.007828  
652.000000	 0.008690  
651.000000	 0.009386  
650.000000	 0.009622  

