PE IR                   SPECTRUM    ASCII       PEDS        1.60        
  -1
NB4-07~3.ASC
17/04/10
13:29:20.00
17/04/10
13:29:20.00
Admin

650.000000
6









SPECTRUM ONE,CPU32 MAIN 00.02.5000 17-APRIL-2002 13:00:00
MIR TGS
MIR
OPTKBR
68128
0.200000

4.000000
STRONG
RATIO
SPECTRUM
MAGNITUDE

DOUBLE

COMBINED


0


#HDR
-1
-1
#GR
CM-1
A
0.00000011920928955078
0.0
4000.000000
-1.000000
3351
8
0.216028
-0.012344
#DATA
4000.000000	0.001220  
3999.000000	0.001109  
3998.000000	0.001107  
3997.000000	0.001208  
3996.000000	0.001380  
3995.000000	0.001558  
3994.000000	0.001676  
3993.000000	0.001702  
3992.000000	0.001647  
3991.000000	0.001563  
3990.000000	0.001506  
3989.000000	0.001490  
3988.000000	0.001476  
3987.000000	0.001421  
3986.000000	0.001336  
3985.000000	0.001268  
3984.000000	0.001236  
3983.000000	0.001192  
3982.000000	0.001082  
3981.000000	0.000922  
3980.000000	0.000797  
3979.000000	0.000776  
3978.000000	0.000855  
3977.000000	0.000977  
3976.000000	0.001103  
3975.000000	0.001233  
3974.000000	0.001358  
3973.000000	0.001425  
3972.000000	0.001379  
3971.000000	0.001231  
3970.000000	0.001067  
3969.000000	0.000970  
3968.000000	0.000953  
3967.000000	0.000972  
3966.000000	0.001003  
3965.000000	0.001068  
3964.000000	0.001196  
3963.000000	0.001368  
3962.000000	0.001528  
3961.000000	0.001634  
3960.000000	0.001686  
3959.000000	0.001701  
3958.000000	0.001674  
3957.000000	0.001588  
3956.000000	0.001449  
3955.000000	0.001307  
3954.000000	0.001230  
3953.000000	0.001240  
3952.000000	0.001298  
3951.000000	0.001334  
3950.000000	0.001325  
3949.000000	0.001322  
3948.000000	0.001395  
3947.000000	0.001543  
3946.000000	0.001672  
3945.000000	0.001674  
3944.000000	0.001518  
3943.000000	0.001286  
3942.000000	0.001098  
3941.000000	0.001011  
3940.000000	0.001012  
3939.000000	0.001081  
3938.000000	0.001199  
3937.000000	0.001334  
3936.000000	0.001431  
3935.000000	0.001461  
3934.000000	0.001457  
3933.000000	0.001481  
3932.000000	0.001553  
3931.000000	0.001626  
3930.000000	0.001652  
3929.000000	0.001632  
3928.000000	0.001611  
3927.000000	0.001624  
3926.000000	0.001660  
3925.000000	0.001688  
3924.000000	0.001698  
3923.000000	0.001719  
3922.000000	0.001785  
3921.000000	0.001900  
3920.000000	0.002007  
3919.000000	0.002024  
3918.000000	0.001914  
3917.000000	0.001735  
3916.000000	0.001583  
3915.000000	0.001504  
3914.000000	0.001469  
3913.000000	0.001416  
3912.000000	0.001313  
3911.000000	0.001189  
3910.000000	0.001121  
3909.000000	0.001171  
3908.000000	0.001330  
3907.000000	0.001522  
3906.000000	0.001666  
3905.000000	0.001748  
3904.000000	0.001820  
3903.000000	0.001890  
3902.000000	0.001893  
3901.000000	0.001809  
3900.000000	0.001732  
3899.000000	0.001762  
3898.000000	0.001864  
3897.000000	0.001901  
3896.000000	0.001790  
3895.000000	0.001569  
3894.000000	0.001345  
3893.000000	0.001215  
3892.000000	0.001216  
3891.000000	0.001324  
3890.000000	0.001462  
3889.000000	0.001565  
3888.000000	0.001627  
3887.000000	0.001666  
3886.000000	0.001699  
3885.000000	0.001717  
3884.000000	0.001671  
3883.000000	0.001528  
3882.000000	0.001337  
3881.000000	0.001214  
3880.000000	0.001245  
3879.000000	0.001395  
3878.000000	0.001553  
3877.000000	0.001677  
3876.000000	0.001803  
3875.000000	0.001980  
3874.000000	0.002210  
3873.000000	0.002424  
3872.000000	0.002525  
3871.000000	0.002503  
3870.000000	0.002464  
3869.000000	0.002487  
3868.000000	0.002517  
3867.000000	0.002482  
3866.000000	0.002386  
3865.000000	0.002268  
3864.000000	0.002162  
3863.000000	0.002087  
3862.000000	0.002048  
3861.000000	0.002020  
3860.000000	0.001967  
3859.000000	0.001884  
3858.000000	0.001808  
3857.000000	0.001789  
3856.000000	0.001815  
3855.000000	0.001795  
3854.000000	0.001720  
3853.000000	0.001734  
3852.000000	0.001816  
3851.000000	0.001826  
3850.000000	0.001797  
3849.000000	0.001838  
3848.000000	0.001998  
3847.000000	0.002236  
3846.000000	0.002488  
3845.000000	0.002721  
3844.000000	0.002939  
3843.000000	0.003145  
3842.000000	0.003312  
3841.000000	0.003395  
3840.000000	0.003362  
3839.000000	0.003216  
3838.000000	0.002994  
3837.000000	0.002758  
3836.000000	0.002579  
3835.000000	0.002516  
3834.000000	0.002574  
3833.000000	0.002675  
3832.000000	0.002721  
3831.000000	0.002675  
3830.000000	0.002571  
3829.000000	0.002449  
3828.000000	0.002313  
3827.000000	0.002158  
3826.000000	0.002039  
3825.000000	0.002056  
3824.000000	0.002284  
3823.000000	0.002678  
3822.000000	0.003030  
3821.000000	0.003136  
3820.000000	0.002941  
3819.000000	0.002508  
3818.000000	0.002017  
3817.000000	0.001706  
3816.000000	0.001703  
3815.000000	0.001889  
3814.000000	0.002027  
3813.000000	0.002012  
3812.000000	0.001904  
3811.000000	0.001794  
3810.000000	0.001717  
3809.000000	0.001670  
3808.000000	0.001670  
3807.000000	0.001780  
3806.000000	0.002021  
3805.000000	0.002324  
3804.000000	0.002603  
3803.000000	0.002762  
3802.000000	0.002736  
3801.000000	0.002578  
3800.000000	0.002357  
3799.000000	0.002107  
3798.000000	0.001907  
3797.000000	0.001842  
3796.000000	0.001923  
3795.000000	0.002063  
3794.000000	0.002155  
3793.000000	0.002154  
3792.000000	0.002076  
3791.000000	0.001957  
3790.000000	0.001831  
3789.000000	0.001732  
3788.000000	0.001674  
3787.000000	0.001651  
3786.000000	0.001643  
3785.000000	0.001642  
3784.000000	0.001649  
3783.000000	0.001651  
3782.000000	0.001627  
3781.000000	0.001563  
3780.000000	0.001489  
3779.000000	0.001465  
3778.000000	0.001518  
3777.000000	0.001606  
3776.000000	0.001678  
3775.000000	0.001707  
3774.000000	0.001693  
3773.000000	0.001658  
3772.000000	0.001654  
3771.000000	0.001755  
3770.000000	0.001996  
3769.000000	0.002290  
3768.000000	0.002463  
3767.000000	0.002401  
3766.000000	0.002151  
3765.000000	0.001877  
3764.000000	0.001715  
3763.000000	0.001688  
3762.000000	0.001754  
3761.000000	0.001853  
3760.000000	0.001940  
3759.000000	0.002001  
3758.000000	0.002033  
3757.000000	0.002021  
3756.000000	0.001964  
3755.000000	0.001933  
3754.000000	0.002099  
3753.000000	0.002606  
3752.000000	0.003335  
3751.000000	0.003876  
3750.000000	0.003930  
3749.000000	0.003611  
3748.000000	0.003241  
3747.000000	0.003082  
3746.000000	0.003192  
3745.000000	0.003428  
3744.000000	0.003579  
3743.000000	0.003510  
3742.000000	0.003265  
3741.000000	0.003069  
3740.000000	0.003144  
3739.000000	0.003558  
3738.000000	0.004162  
3737.000000	0.004643  
3736.000000	0.004722  
3735.000000	0.004423  
3734.000000	0.004032  
3733.000000	0.003774  
3732.000000	0.003643  
3731.000000	0.003530  
3730.000000	0.003380  
3729.000000	0.003232  
3728.000000	0.003133  
3727.000000	0.003083  
3726.000000	0.003043  
3725.000000	0.002981  
3724.000000	0.002890  
3723.000000	0.002765  
3722.000000	0.002583  
3721.000000	0.002314  
3720.000000	0.001974  
3719.000000	0.001648  
3718.000000	0.001439  
3717.000000	0.001379  
3716.000000	0.001406  
3715.000000	0.001438  
3714.000000	0.001464  
3713.000000	0.001560  
3712.000000	0.001809  
3711.000000	0.002168  
3710.000000	0.002465  
3709.000000	0.002582  
3708.000000	0.002575  
3707.000000	0.002584  
3706.000000	0.002670  
3705.000000	0.002738  
3704.000000	0.002622  
3703.000000	0.002253  
3702.000000	0.001793  
3701.000000	0.001502  
3700.000000	0.001480  
3699.000000	0.001625  
3698.000000	0.001786  
3697.000000	0.001895  
3696.000000	0.001980  
3695.000000	0.002098  
3694.000000	0.002261  
3693.000000	0.002400  
3692.000000	0.002397  
3691.000000	0.002199  
3690.000000	0.001930  
3689.000000	0.001811  
3688.000000	0.001877  
3687.000000	0.001966  
3686.000000	0.001968  
3685.000000	0.001933  
3684.000000	0.001959  
3683.000000	0.002058  
3682.000000	0.002135  
3681.000000	0.002085  
3680.000000	0.001927  
3679.000000	0.001796  
3678.000000	0.001835  
3677.000000	0.002062  
3676.000000	0.002372  
3675.000000	0.002652  
3674.000000	0.002827  
3673.000000	0.002899  
3672.000000	0.002961  
3671.000000	0.003032  
3670.000000	0.003043  
3669.000000	0.002953  
3668.000000	0.002746  
3667.000000	0.002448  
3666.000000	0.002123  
3665.000000	0.001807  
3664.000000	0.001488  
3663.000000	0.001142  
3662.000000	0.000782  
3661.000000	0.000478  
3660.000000	0.000320  
3659.000000	0.000366  
3658.000000	0.000622  
3657.000000	0.001049  
3656.000000	0.001565  
3655.000000	0.002035  
3654.000000	0.002324  
3653.000000	0.002382  
3652.000000	0.002250  
3651.000000	0.002036  
3650.000000	0.001878  
3649.000000	0.001853  
3648.000000	0.001920  
3647.000000	0.002011  
3646.000000	0.002091  
3645.000000	0.002138  
3644.000000	0.002160  
3643.000000	0.002201  
3642.000000	0.002308  
3641.000000	0.002462  
3640.000000	0.002567  
3639.000000	0.002539  
3638.000000	0.002390  
3637.000000	0.002213  
3636.000000	0.002108  
3635.000000	0.002115  
3634.000000	0.002204  
3633.000000	0.002298  
3632.000000	0.002335  
3631.000000	0.002311  
3630.000000	0.002293  
3629.000000	0.002383  
3628.000000	0.002579  
3627.000000	0.002710  
3626.000000	0.002693  
3625.000000	0.002623  
3624.000000	0.002607  
3623.000000	0.002646  
3622.000000	0.002639  
3621.000000	0.002475  
3620.000000	0.002162  
3619.000000	0.001864  
3618.000000	0.001734  
3617.000000	0.001767  
3616.000000	0.001872  
3615.000000	0.001988  
3614.000000	0.002127  
3613.000000	0.002332  
3612.000000	0.002608  
3611.000000	0.002903  
3610.000000	0.003128  
3609.000000	0.003185  
3608.000000	0.003028  
3607.000000	0.002701  
3606.000000	0.002296  
3605.000000	0.001911  
3604.000000	0.001636  
3603.000000	0.001538  
3602.000000	0.001648  
3601.000000	0.001932  
3600.000000	0.002294  
3599.000000	0.002619  
3598.000000	0.002812  
3597.000000	0.002834  
3596.000000	0.002711  
3595.000000	0.002535  
3594.000000	0.002404  
3593.000000	0.002326  
3592.000000	0.002235  
3591.000000	0.002092  
3590.000000	0.001945  
3589.000000	0.001891  
3588.000000	0.001972  
3587.000000	0.002133  
3586.000000	0.002261  
3585.000000	0.002277  
3584.000000	0.002174  
3583.000000	0.001992  
3582.000000	0.001803  
3581.000000	0.001700  
3580.000000	0.001738  
3579.000000	0.001852  
3578.000000	0.001892  
3577.000000	0.001764  
3576.000000	0.001538  
3575.000000	0.001364  
3574.000000	0.001305  
3573.000000	0.001284  
3572.000000	0.001195  
3571.000000	0.001062  
3570.000000	0.001028  
3569.000000	0.001211  
3568.000000	0.001532  
3567.000000	0.001779  
3566.000000	0.001847  
3565.000000	0.001805  
3564.000000	0.001755  
3563.000000	0.001716  
3562.000000	0.001654  
3561.000000	0.001565  
3560.000000	0.001519  
3559.000000	0.001588  
3558.000000	0.001750  
3557.000000	0.001891  
3556.000000	0.001897  
3555.000000	0.001749  
3554.000000	0.001524  
3553.000000	0.001338  
3552.000000	0.001268  
3551.000000	0.001298  
3550.000000	0.001353  
3549.000000	0.001363  
3548.000000	0.001305  
3547.000000	0.001219  
3546.000000	0.001176  
3545.000000	0.001219  
3544.000000	0.001328  
3543.000000	0.001466  
3542.000000	0.001628  
3541.000000	0.001833  
3540.000000	0.002054  
3539.000000	0.002187  
3538.000000	0.002116  
3537.000000	0.001839  
3536.000000	0.001510  
3535.000000	0.001318  
3534.000000	0.001328  
3533.000000	0.001460  
3532.000000	0.001605  
3531.000000	0.001715  
3530.000000	0.001802  
3529.000000	0.001873  
3528.000000	0.001912  
3527.000000	0.001905  
3526.000000	0.001848  
3525.000000	0.001733  
3524.000000	0.001559  
3523.000000	0.001369  
3522.000000	0.001242  
3521.000000	0.001218  
3520.000000	0.001274  
3519.000000	0.001368  
3518.000000	0.001480  
3517.000000	0.001608  
3516.000000	0.001733  
3515.000000	0.001826  
3514.000000	0.001881  
3513.000000	0.001909  
3512.000000	0.001910  
3511.000000	0.001875  
3510.000000	0.001811  
3509.000000	0.001746  
3508.000000	0.001693  
3507.000000	0.001647  
3506.000000	0.001608  
3505.000000	0.001597  
3504.000000	0.001632  
3503.000000	0.001703  
3502.000000	0.001776  
3501.000000	0.001820  
3500.000000	0.001827  
3499.000000	0.001818  
3498.000000	0.001831  
3497.000000	0.001890  
3496.000000	0.001974  
3495.000000	0.002042  
3494.000000	0.002062  
3493.000000	0.002016  
3492.000000	0.001888  
3491.000000	0.001692  
3490.000000	0.001499  
3489.000000	0.001410  
3488.000000	0.001471  
3487.000000	0.001647  
3486.000000	0.001874  
3485.000000	0.002100  
3484.000000	0.002261  
3483.000000	0.002276  
3482.000000	0.002113  
3481.000000	0.001861  
3480.000000	0.001665  
3479.000000	0.001603  
3478.000000	0.001638  
3477.000000	0.001685  
3476.000000	0.001693  
3475.000000	0.001674  
3474.000000	0.001670  
3473.000000	0.001695  
3472.000000	0.001713  
3471.000000	0.001662  
3470.000000	0.001527  
3469.000000	0.001367  
3468.000000	0.001259  
3467.000000	0.001233  
3466.000000	0.001261  
3465.000000	0.001296  
3464.000000	0.001289  
3463.000000	0.001197  
3462.000000	0.001025  
3461.000000	0.000863  
3460.000000	0.000826  
3459.000000	0.000962  
3458.000000	0.001218  
3457.000000	0.001503  
3456.000000	0.001741  
3455.000000	0.001889  
3454.000000	0.001942  
3453.000000	0.001948  
3452.000000	0.001974  
3451.000000	0.002030  
3450.000000	0.002044  
3449.000000	0.001948  
3448.000000	0.001780  
3447.000000	0.001658  
3446.000000	0.001673  
3445.000000	0.001811  
3444.000000	0.001979  
3443.000000	0.002086  
3442.000000	0.002107  
3441.000000	0.002097  
3440.000000	0.002147  
3439.000000	0.002283  
3438.000000	0.002416  
3437.000000	0.002411  
3436.000000	0.002208  
3435.000000	0.001899  
3434.000000	0.001658  
3433.000000	0.001611  
3432.000000	0.001743  
3431.000000	0.001926  
3430.000000	0.002024  
3429.000000	0.001992  
3428.000000	0.001869  
3427.000000	0.001715  
3426.000000	0.001574  
3425.000000	0.001483  
3424.000000	0.001461  
3423.000000	0.001496  
3422.000000	0.001547  
3421.000000	0.001588  
3420.000000	0.001630  
3419.000000	0.001686  
3418.000000	0.001753  
3417.000000	0.001825  
3416.000000	0.001910  
3415.000000	0.001995  
3414.000000	0.002047  
3413.000000	0.002051  
3412.000000	0.002052  
3411.000000	0.002099  
3410.000000	0.002169  
3409.000000	0.002168  
3408.000000	0.002020  
3407.000000	0.001757  
3406.000000	0.001505  
3405.000000	0.001389  
3404.000000	0.001439  
3403.000000	0.001584  
3402.000000	0.001736  
3401.000000	0.001854  
3400.000000	0.001936  
3399.000000	0.001969  
3398.000000	0.001940  
3397.000000	0.001894  
3396.000000	0.001932  
3395.000000	0.002122  
3394.000000	0.002412  
3393.000000	0.002670  
3392.000000	0.002786  
3391.000000	0.002734  
3390.000000	0.002560  
3389.000000	0.002338  
3388.000000	0.002142  
3387.000000	0.002013  
3386.000000	0.001943  
3385.000000	0.001914  
3384.000000	0.001937  
3383.000000	0.002026  
3382.000000	0.002156  
3381.000000	0.002265  
3380.000000	0.002307  
3379.000000	0.002278  
3378.000000	0.002183  
3377.000000	0.002018  
3376.000000	0.001805  
3375.000000	0.001624  
3374.000000	0.001571  
3373.000000	0.001667  
3372.000000	0.001842  
3371.000000	0.002012  
3370.000000	0.002146  
3369.000000	0.002270  
3368.000000	0.002395  
3367.000000	0.002488  
3366.000000	0.002520  
3365.000000	0.002500  
3364.000000	0.002458  
3363.000000	0.002394  
3362.000000	0.002294  
3361.000000	0.002185  
3360.000000	0.002133  
3359.000000	0.002163  
3358.000000	0.002213  
3357.000000	0.002203  
3356.000000	0.002116  
3355.000000	0.001998  
3354.000000	0.001883  
3353.000000	0.001782  
3352.000000	0.001707  
3351.000000	0.001683  
3350.000000	0.001707  
3349.000000	0.001756  
3348.000000	0.001838  
3347.000000	0.001987  
3346.000000	0.002198  
3345.000000	0.002387  
3344.000000	0.002461  
3343.000000	0.002412  
3342.000000	0.002313  
3341.000000	0.002217  
3340.000000	0.002110  
3339.000000	0.001960  
3338.000000	0.001805  
3337.000000	0.001751  
3336.000000	0.001856  
3335.000000	0.002052  
3334.000000	0.002190  
3333.000000	0.002188  
3332.000000	0.002084  
3331.000000	0.001977  
3330.000000	0.001923  
3329.000000	0.001940  
3328.000000	0.002031  
3327.000000	0.002168  
3326.000000	0.002272  
3325.000000	0.002267  
3324.000000	0.002181  
3323.000000	0.002128  
3322.000000	0.002165  
3321.000000	0.002229  
3320.000000	0.002232  
3319.000000	0.002197  
3318.000000	0.002235  
3317.000000	0.002397  
3316.000000	0.002592  
3315.000000	0.002672  
3314.000000	0.002573  
3313.000000	0.002364  
3312.000000	0.002185  
3311.000000	0.002138  
3310.000000	0.002208  
3309.000000	0.002275  
3308.000000	0.002202  
3307.000000	0.001953  
3306.000000	0.001664  
3305.000000	0.001548  
3304.000000	0.001725  
3303.000000	0.002107  
3302.000000	0.002484  
3301.000000	0.002711  
3300.000000	0.002783  
3299.000000	0.002744  
3298.000000	0.002606  
3297.000000	0.002381  
3296.000000	0.002155  
3295.000000	0.002036  
3294.000000	0.002054  
3293.000000	0.002150  
3292.000000	0.002263  
3291.000000	0.002363  
3290.000000	0.002420  
3289.000000	0.002397  
3288.000000	0.002313  
3287.000000	0.002238  
3286.000000	0.002203  
3285.000000	0.002149  
3284.000000	0.002022  
3283.000000	0.001864  
3282.000000	0.001782  
3281.000000	0.001823  
3280.000000	0.001937  
3279.000000	0.002043  
3278.000000	0.002106  
3277.000000	0.002146  
3276.000000	0.002207  
3275.000000	0.002324  
3274.000000	0.002504  
3273.000000	0.002700  
3272.000000	0.002833  
3271.000000	0.002839  
3270.000000	0.002711  
3269.000000	0.002495  
3268.000000	0.002257  
3267.000000	0.002049  
3266.000000	0.001911  
3265.000000	0.001884  
3264.000000	0.001987  
3263.000000	0.002166  
3262.000000	0.002313  
3261.000000	0.002360  
3260.000000	0.002359  
3259.000000	0.002421  
3258.000000	0.002573  
3257.000000	0.002712  
3256.000000	0.002721  
3255.000000	0.002600  
3254.000000	0.002473  
3253.000000	0.002468  
3252.000000	0.002598  
3251.000000	0.002754  
3250.000000	0.002812  
3249.000000	0.002749  
3248.000000	0.002665  
3247.000000	0.002660  
3246.000000	0.002706  
3245.000000	0.002697  
3244.000000	0.002608  
3243.000000	0.002534  
3242.000000	0.002561  
3241.000000	0.002645  
3240.000000	0.002673  
3239.000000	0.002590  
3238.000000	0.002422  
3237.000000	0.002221  
3236.000000	0.002034  
3235.000000	0.001904  
3234.000000	0.001843  
3233.000000	0.001835  
3232.000000	0.001871  
3231.000000	0.001965  
3230.000000	0.002100  
3229.000000	0.002195  
3228.000000	0.002185  
3227.000000	0.002122  
3226.000000	0.002128  
3225.000000	0.002257  
3224.000000	0.002448  
3223.000000	0.002604  
3222.000000	0.002664  
3221.000000	0.002609  
3220.000000	0.002470  
3219.000000	0.002334  
3218.000000	0.002294  
3217.000000	0.002376  
3216.000000	0.002524  
3215.000000	0.002668  
3214.000000	0.002778  
3213.000000	0.002852  
3212.000000	0.002896  
3211.000000	0.002925  
3210.000000	0.002955  
3209.000000	0.002972  
3208.000000	0.002952  
3207.000000	0.002908  
3206.000000	0.002886  
3205.000000	0.002912  
3204.000000	0.002972  
3203.000000	0.003049  
3202.000000	0.003128  
3201.000000	0.003161  
3200.000000	0.003065  
3199.000000	0.002817  
3198.000000	0.002498  
3197.000000	0.002224  
3196.000000	0.002044  
3195.000000	0.001944  
3194.000000	0.001905  
3193.000000	0.001930  
3192.000000	0.002014  
3191.000000	0.002152  
3190.000000	0.002344  
3189.000000	0.002578  
3188.000000	0.002797  
3187.000000	0.002933  
3186.000000	0.002974  
3185.000000	0.002971  
3184.000000	0.002962  
3183.000000	0.002919  
3182.000000	0.002803  
3181.000000	0.002636  
3180.000000	0.002494  
3179.000000	0.002424  
3178.000000	0.002414  
3177.000000	0.002447  
3176.000000	0.002535  
3175.000000	0.002685  
3174.000000	0.002838  
3173.000000	0.002898  
3172.000000	0.002824  
3171.000000	0.002673  
3170.000000	0.002542  
3169.000000	0.002493  
3168.000000	0.002524  
3167.000000	0.002591  
3166.000000	0.002651  
3165.000000	0.002685  
3164.000000	0.002698  
3163.000000	0.002703  
3162.000000	0.002696  
3161.000000	0.002668  
3160.000000	0.002636  
3159.000000	0.002637  
3158.000000	0.002682  
3157.000000	0.002736  
3156.000000	0.002758  
3155.000000	0.002742  
3154.000000	0.002718  
3153.000000	0.002718  
3152.000000	0.002744  
3151.000000	0.002752  
3150.000000	0.002676  
3149.000000	0.002492  
3148.000000	0.002278  
3147.000000	0.002155  
3146.000000	0.002168  
3145.000000	0.002258  
3144.000000	0.002349  
3143.000000	0.002429  
3142.000000	0.002506  
3141.000000	0.002554  
3140.000000	0.002546  
3139.000000	0.002523  
3138.000000	0.002566  
3137.000000	0.002685  
3136.000000	0.002799  
3135.000000	0.002809  
3134.000000	0.002691  
3133.000000	0.002514  
3132.000000	0.002399  
3131.000000	0.002440  
3130.000000	0.002613  
3129.000000	0.002781  
3128.000000	0.002818  
3127.000000	0.002725  
3126.000000	0.002603  
3125.000000	0.002534  
3124.000000	0.002534  
3123.000000	0.002594  
3122.000000	0.002703  
3121.000000	0.002818  
3120.000000	0.002870  
3119.000000	0.002816  
3118.000000	0.002678  
3117.000000	0.002516  
3116.000000	0.002400  
3115.000000	0.002384  
3114.000000	0.002472  
3113.000000	0.002599  
3112.000000	0.002689  
3111.000000	0.002730  
3110.000000	0.002756  
3109.000000	0.002765  
3108.000000	0.002708  
3107.000000	0.002573  
3106.000000	0.002429  
3105.000000	0.002368  
3104.000000	0.002425  
3103.000000	0.002580  
3102.000000	0.002785  
3101.000000	0.002958  
3100.000000	0.003002  
3099.000000	0.002878  
3098.000000	0.002652  
3097.000000	0.002450  
3096.000000	0.002371  
3095.000000	0.002443  
3094.000000	0.002623  
3093.000000	0.002820  
3092.000000	0.002948  
3091.000000	0.002985  
3090.000000	0.002973  
3089.000000	0.002956  
3088.000000	0.002945  
3087.000000	0.002955  
3086.000000	0.003021  
3085.000000	0.003137  
3084.000000	0.003226  
3083.000000	0.003213  
3082.000000	0.003121  
3081.000000	0.003050  
3080.000000	0.003072  
3079.000000	0.003176  
3078.000000	0.003315  
3077.000000	0.003450  
3076.000000	0.003545  
3075.000000	0.003566  
3074.000000	0.003505  
3073.000000	0.003404  
3072.000000	0.003340  
3071.000000	0.003365  
3070.000000	0.003473  
3069.000000	0.003595  
3068.000000	0.003654  
3067.000000	0.003634  
3066.000000	0.003600  
3065.000000	0.003650  
3064.000000	0.003819  
3063.000000	0.004047  
3062.000000	0.004220  
3061.000000	0.004262  
3060.000000	0.004184  
3059.000000	0.004069  
3058.000000	0.003981  
3057.000000	0.003924  
3056.000000	0.003877  
3055.000000	0.003859  
3054.000000	0.003904  
3053.000000	0.003982  
3052.000000	0.003998  
3051.000000	0.003908  
3050.000000	0.003801  
3049.000000	0.003818  
3048.000000	0.004009  
3047.000000	0.004289  
3046.000000	0.004534  
3045.000000	0.004665  
3044.000000	0.004663  
3043.000000	0.004555  
3042.000000	0.004417  
3041.000000	0.004344  
3040.000000	0.004394  
3039.000000	0.004549  
3038.000000	0.004736  
3037.000000	0.004884  
3036.000000	0.004955  
3035.000000	0.004949  
3034.000000	0.004890  
3033.000000	0.004816  
3032.000000	0.004784  
3031.000000	0.004849  
3030.000000	0.005018  
3029.000000	0.005230  
3028.000000	0.005400  
3027.000000	0.005498  
3026.000000	0.005576  
3025.000000	0.005709  
3024.000000	0.005933  
3023.000000	0.006228  
3022.000000	0.006532  
3021.000000	0.006748  
3020.000000	0.006802  
3019.000000	0.006728  
3018.000000	0.006681  
3017.000000	0.006800  
3016.000000	0.007087  
3015.000000	0.007429  
3014.000000	0.007729  
3013.000000	0.007966  
3012.000000	0.008153  
3011.000000	0.008295  
3010.000000	0.008414  
3009.000000	0.008553  
3008.000000	0.008731  
3007.000000	0.008920  
3006.000000	0.009064  
3005.000000	0.009115  
3004.000000	0.009048  
3003.000000	0.008881  
3002.000000	0.008704  
3001.000000	0.008647  
3000.000000	0.008779  
2999.000000	0.009047  
2998.000000	0.009318  
2997.000000	0.009489  
2996.000000	0.009558  
2995.000000	0.009610  
2994.000000	0.009758  
2993.000000	0.010071  
2992.000000	0.010542  
2991.000000	0.011101  
2990.000000	0.011676  
2989.000000	0.012240  
2988.000000	0.012810  
2987.000000	0.013437  
2986.000000	0.014182  
2985.000000	0.015083  
2984.000000	0.016125  
2983.000000	0.017258  
2982.000000	0.018466  
2981.000000	0.019798  
2980.000000	0.021310  
2979.000000	0.023013  
2978.000000	0.024896  
2977.000000	0.026996  
2976.000000	0.029407  
2975.000000	0.032220  
2974.000000	0.035460  
2973.000000	0.039092  
2972.000000	0.043044  
2971.000000	0.047244  
2970.000000	0.051674  
2969.000000	0.056403  
2968.000000	0.061523  
2967.000000	0.067010  
2966.000000	0.072673  
2965.000000	0.078275  
2964.000000	0.083690  
2963.000000	0.088917  
2962.000000	0.093969  
2961.000000	0.098801  
2960.000000	0.103336  
2959.000000	0.107482  
2958.000000	0.111098  
2957.000000	0.114003  
2956.000000	0.116060  
2955.000000	0.117215  
2954.000000	0.117452  
2953.000000	0.116767  
2952.000000	0.115249  
2951.000000	0.113127  
2950.000000	0.110708  
2949.000000	0.108252  
2948.000000	0.105925  
2947.000000	0.103861  
2946.000000	0.102230  
2945.000000	0.101235  
2944.000000	0.101057  
2943.000000	0.101806  
2942.000000	0.103515  
2941.000000	0.106153  
2940.000000	0.109656  
2939.000000	0.113945  
2938.000000	0.118958  
2937.000000	0.124641  
2936.000000	0.130914  
2935.000000	0.137630  
2934.000000	0.144612  
2933.000000	0.151762  
2932.000000	0.159128  
2931.000000	0.166796  
2930.000000	0.174725  
2929.000000	0.182685  
2928.000000	0.190350  
2927.000000	0.197402  
2926.000000	0.203567  
2925.000000	0.208643  
2924.000000	0.212504  
2923.000000	0.215025  
2922.000000	0.216028  
2921.000000	0.215419  
2920.000000	0.213352  
2919.000000	0.210174  
2918.000000	0.206166  
2917.000000	0.201457  
2916.000000	0.196182  
2915.000000	0.190594  
2914.000000	0.184949  
2913.000000	0.179378  
2912.000000	0.173938  
2911.000000	0.168740  
2910.000000	0.163910  
2909.000000	0.159442  
2908.000000	0.155154  
2907.000000	0.150845  
2906.000000	0.146455  
2905.000000	0.142074  
2904.000000	0.137833  
2903.000000	0.133809  
2902.000000	0.130002  
2901.000000	0.126346  
2900.000000	0.122742  
2899.000000	0.119108  
2898.000000	0.115430  
2897.000000	0.111763  
2896.000000	0.108186  
2895.000000	0.104748  
2894.000000	0.101441  
2893.000000	0.098202  
2892.000000	0.094960  
2891.000000	0.091694  
2890.000000	0.088479  
2889.000000	0.085451  
2888.000000	0.082722  
2887.000000	0.080331  
2886.000000	0.078282  
2885.000000	0.076609  
2884.000000	0.075378  
2883.000000	0.074650  
2882.000000	0.074455  
2881.000000	0.074817  
2880.000000	0.075785  
2879.000000	0.077431  
2878.000000	0.079803  
2877.000000	0.082836  
2876.000000	0.086296  
2875.000000	0.089807  
2874.000000	0.092980  
2873.000000	0.095543  
2872.000000	0.097375  
2871.000000	0.098481  
2870.000000	0.098970  
2869.000000	0.099058  
2868.000000	0.099038  
2867.000000	0.099195  
2866.000000	0.099761  
2865.000000	0.100930  
2864.000000	0.102851  
2863.000000	0.105553  
2862.000000	0.108916  
2861.000000	0.112770  
2860.000000	0.117018  
2859.000000	0.121597  
2858.000000	0.126325  
2857.000000	0.130832  
2856.000000	0.134661  
2855.000000	0.137371  
2854.000000	0.138572  
2853.000000	0.137983  
2852.000000	0.135551  
2851.000000	0.131493  
2850.000000	0.126179  
2849.000000	0.119979  
2848.000000	0.113200  
2847.000000	0.106119  
2846.000000	0.099000  
2845.000000	0.092035  
2844.000000	0.085283  
2843.000000	0.078712  
2842.000000	0.072310  
2841.000000	0.066148  
2840.000000	0.060347  
2839.000000	0.054997  
2838.000000	0.050144  
2837.000000	0.045800  
2836.000000	0.041933  
2835.000000	0.038444  
2834.000000	0.035217  
2833.000000	0.032217  
2832.000000	0.029529  
2831.000000	0.027265  
2830.000000	0.025450  
2829.000000	0.023988  
2828.000000	0.022732  
2827.000000	0.021568  
2826.000000	0.020444  
2825.000000	0.019361  
2824.000000	0.018351  
2823.000000	0.017456  
2822.000000	0.016703  
2821.000000	0.016082  
2820.000000	0.015543  
2819.000000	0.015030  
2818.000000	0.014509  
2817.000000	0.013973  
2816.000000	0.013426  
2815.000000	0.012882  
2814.000000	0.012365  
2813.000000	0.011895  
2812.000000	0.011472  
2811.000000	0.011093  
2810.000000	0.010774  
2809.000000	0.010544  
2808.000000	0.010406  
2807.000000	0.010319  
2806.000000	0.010223  
2805.000000	0.010075  
2804.000000	0.009854  
2803.000000	0.009557  
2802.000000	0.009216  
2801.000000	0.008900  
2800.000000	0.008676  
2799.000000	0.008549  
2798.000000	0.008467  
2797.000000	0.008382  
2796.000000	0.008293  
2795.000000	0.008210  
2794.000000	0.008098  
2793.000000	0.007885  
2792.000000	0.007544  
2791.000000	0.007150  
2790.000000	0.006840  
2789.000000	0.006703  
2788.000000	0.006709  
2787.000000	0.006752  
2786.000000	0.006733  
2785.000000	0.006621  
2784.000000	0.006442  
2783.000000	0.006248  
2782.000000	0.006099  
2781.000000	0.006042  
2780.000000	0.006083  
2779.000000	0.006162  
2778.000000	0.006179  
2777.000000	0.006052  
2776.000000	0.005776  
2775.000000	0.005447  
2774.000000	0.005208  
2773.000000	0.005159  
2772.000000	0.005275  
2771.000000	0.005425  
2770.000000	0.005473  
2769.000000	0.005378  
2768.000000	0.005193  
2767.000000	0.004999  
2766.000000	0.004858  
2765.000000	0.004810  
2764.000000	0.004870  
2763.000000	0.004995  
2762.000000	0.005088  
2761.000000	0.005069  
2760.000000	0.004939  
2759.000000	0.004772  
2758.000000	0.004647  
2757.000000	0.004600  
2756.000000	0.004622  
2755.000000	0.004681  
2754.000000	0.004735  
2753.000000	0.004754  
2752.000000	0.004736  
2751.000000	0.004705  
2750.000000	0.004690  
2749.000000	0.004691  
2748.000000	0.004686  
2747.000000	0.004636  
2746.000000	0.004535  
2745.000000	0.004426  
2744.000000	0.004386  
2743.000000	0.004452  
2742.000000	0.004584  
2741.000000	0.004705  
2740.000000	0.004778  
2739.000000	0.004823  
2738.000000	0.004872  
2737.000000	0.004938  
2736.000000	0.005021  
2735.000000	0.005132  
2734.000000	0.005262  
2733.000000	0.005368  
2732.000000	0.005396  
2731.000000	0.005334  
2730.000000	0.005238  
2729.000000	0.005188  
2728.000000	0.005232  
2727.000000	0.005338  
2726.000000	0.005416  
2725.000000	0.005395  
2724.000000	0.005284  
2723.000000	0.005149  
2722.000000	0.005049  
2721.000000	0.005001  
2720.000000	0.005005  
2719.000000	0.005060  
2718.000000	0.005142  
2717.000000	0.005193  
2716.000000	0.005173  
2715.000000	0.005088  
2714.000000	0.004969  
2713.000000	0.004822  
2712.000000	0.004639  
2711.000000	0.004447  
2710.000000	0.004303  
2709.000000	0.004237  
2708.000000	0.004234  
2707.000000	0.004258  
2706.000000	0.004280  
2705.000000	0.004271  
2704.000000	0.004208  
2703.000000	0.004095  
2702.000000	0.003965  
2701.000000	0.003845  
2700.000000	0.003737  
2699.000000	0.003642  
2698.000000	0.003588  
2697.000000	0.003613  
2696.000000	0.003723  
2695.000000	0.003879  
2694.000000	0.004020  
2693.000000	0.004095  
2692.000000	0.004085  
2691.000000	0.004021  
2690.000000	0.003981  
2689.000000	0.004042  
2688.000000	0.004217  
2687.000000	0.004434  
2686.000000	0.004595  
2685.000000	0.004651  
2684.000000	0.004634  
2683.000000	0.004610  
2682.000000	0.004609  
2681.000000	0.004615  
2680.000000	0.004594  
2679.000000	0.004536  
2678.000000	0.004469  
2677.000000	0.004443  
2676.000000	0.004506  
2675.000000	0.004663  
2674.000000	0.004854  
2673.000000	0.004984  
2672.000000	0.004998  
2671.000000	0.004927  
2670.000000	0.004844  
2669.000000	0.004804  
2668.000000	0.004808  
2667.000000	0.004833  
2666.000000	0.004854  
2665.000000	0.004860  
2664.000000	0.004851  
2663.000000	0.004823  
2662.000000	0.004752  
2661.000000	0.004614  
2660.000000	0.004428  
2659.000000	0.004255  
2658.000000	0.004134  
2657.000000	0.004055  
2656.000000	0.003998  
2655.000000	0.003983  
2654.000000	0.004019  
2653.000000	0.004057  
2652.000000	0.004035  
2651.000000	0.003978  
2650.000000	0.003977  
2649.000000	0.004074  
2648.000000	0.004200  
2647.000000	0.004257  
2646.000000	0.004209  
2645.000000	0.004086  
2644.000000	0.003939  
2643.000000	0.003829  
2642.000000	0.003818  
2641.000000	0.003911  
2640.000000	0.004028  
2639.000000	0.004057  
2638.000000	0.003948  
2637.000000	0.003743  
2636.000000	0.003556  
2635.000000	0.003509  
2634.000000	0.003666  
2633.000000	0.003958  
2632.000000	0.004217  
2631.000000	0.004306  
2630.000000	0.004217  
2629.000000	0.004051  
2628.000000	0.003911  
2627.000000	0.003858  
2626.000000	0.003901  
2625.000000	0.003977  
2624.000000	0.003982  
2623.000000	0.003862  
2622.000000	0.003678  
2621.000000	0.003519  
2620.000000	0.003396  
2619.000000	0.003260  
2618.000000	0.003125  
2617.000000	0.003074  
2616.000000	0.003149  
2615.000000	0.003288  
2614.000000	0.003406  
2613.000000	0.003481  
2612.000000	0.003532  
2611.000000	0.003572  
2610.000000	0.003613  
2609.000000	0.003682  
2608.000000	0.003792  
2607.000000	0.003918  
2606.000000	0.004017  
2605.000000	0.004056  
2604.000000	0.004016  
2603.000000	0.003903  
2602.000000	0.003773  
2601.000000	0.003714  
2600.000000	0.003745  
2599.000000	0.003776  
2598.000000	0.003696  
2597.000000	0.003503  
2596.000000	0.003298  
2595.000000	0.003167  
2594.000000	0.003097  
2593.000000	0.003022  
2592.000000	0.002916  
2591.000000	0.002815  
2590.000000	0.002762  
2589.000000	0.002756  
2588.000000	0.002773  
2587.000000	0.002816  
2586.000000	0.002901  
2585.000000	0.003001  
2584.000000	0.003034  
2583.000000	0.002939  
2582.000000	0.002754  
2581.000000	0.002593  
2580.000000	0.002545  
2579.000000	0.002625  
2578.000000	0.002804  
2577.000000	0.003030  
2576.000000	0.003206  
2575.000000	0.003226  
2574.000000	0.003069  
2573.000000	0.002846  
2572.000000	0.002709  
2571.000000	0.002698  
2570.000000	0.002730  
2569.000000	0.002706  
2568.000000	0.002610  
2567.000000	0.002498  
2566.000000	0.002424  
2565.000000	0.002402  
2564.000000	0.002406  
2563.000000	0.002405  
2562.000000	0.002385  
2561.000000	0.002361  
2560.000000	0.002352  
2559.000000	0.002353  
2558.000000	0.002354  
2557.000000	0.002367  
2556.000000	0.002423  
2555.000000	0.002512  
2554.000000	0.002570  
2553.000000	0.002559  
2552.000000	0.002533  
2551.000000	0.002596  
2550.000000	0.002775  
2549.000000	0.002973  
2548.000000	0.003067  
2547.000000	0.003001  
2546.000000	0.002791  
2545.000000	0.002489  
2544.000000	0.002182  
2543.000000	0.001984  
2542.000000	0.001956  
2541.000000	0.002031  
2540.000000	0.002085  
2539.000000	0.002093  
2538.000000	0.002154  
2537.000000	0.002335  
2536.000000	0.002545  
2535.000000	0.002618  
2534.000000	0.002493  
2533.000000	0.002275  
2532.000000	0.002107  
2531.000000	0.002025  
2530.000000	0.001945  
2529.000000	0.001776  
2528.000000	0.001538  
2527.000000	0.001367  
2526.000000	0.001405  
2525.000000	0.001668  
2524.000000	0.002031  
2523.000000	0.002340  
2522.000000	0.002506  
2521.000000	0.002513  
2520.000000	0.002393  
2519.000000	0.002238  
2518.000000	0.002179  
2517.000000	0.002286  
2516.000000	0.002489  
2515.000000	0.002644  
2514.000000	0.002676  
2513.000000	0.002614  
2512.000000	0.002512  
2511.000000	0.002398  
2510.000000	0.002289  
2509.000000	0.002213  
2508.000000	0.002190  
2507.000000	0.002218  
2506.000000	0.002292  
2505.000000	0.002387  
2504.000000	0.002438  
2503.000000	0.002375  
2502.000000	0.002223  
2501.000000	0.002110  
2500.000000	0.002137  
2499.000000	0.002245  
2498.000000	0.002248  
2497.000000	0.002005  
2496.000000	0.001565  
2495.000000	0.001142  
2494.000000	0.000970  
2493.000000	0.001137  
2492.000000	0.001537  
2491.000000	0.001968  
2490.000000	0.002281  
2489.000000	0.002451  
2488.000000	0.002526  
2487.000000	0.002529  
2486.000000	0.002425  
2485.000000	0.002178  
2484.000000	0.001825  
2483.000000	0.001508  
2482.000000	0.001409  
2481.000000	0.001630  
2480.000000	0.002098  
2479.000000	0.002601  
2478.000000	0.002917  
2477.000000	0.002939  
2476.000000	0.002714  
2475.000000	0.002391  
2474.000000	0.002132  
2473.000000	0.002021  
2472.000000	0.002030  
2471.000000	0.002051  
2470.000000	0.001975  
2469.000000	0.001774  
2468.000000	0.001552  
2467.000000	0.001488  
2466.000000	0.001682  
2465.000000	0.002024  
2464.000000	0.002266  
2463.000000	0.002266  
2462.000000	0.002112  
2461.000000	0.001992  
2460.000000	0.001984  
2459.000000	0.002046  
2458.000000	0.002138  
2457.000000	0.002247  
2456.000000	0.002296  
2455.000000	0.002173  
2454.000000	0.001897  
2453.000000	0.001645  
2452.000000	0.001547  
2451.000000	0.001537  
2450.000000	0.001480  
2449.000000	0.001386  
2448.000000	0.001391  
2447.000000	0.001556  
2446.000000	0.001787  
2445.000000	0.001961  
2444.000000	0.002045  
2443.000000	0.002072  
2442.000000	0.002072  
2441.000000	0.002053  
2440.000000	0.002012  
2439.000000	0.001935  
2438.000000	0.001825  
2437.000000	0.001726  
2436.000000	0.001688  
2435.000000	0.001692  
2434.000000	0.001667  
2433.000000	0.001579  
2432.000000	0.001478  
2431.000000	0.001423  
2430.000000	0.001408  
2429.000000	0.001406  
2428.000000	0.001442  
2427.000000	0.001576  
2426.000000	0.001809  
2425.000000	0.002055  
2424.000000	0.002200  
2423.000000	0.002192  
2422.000000	0.002069  
2421.000000	0.001913  
2420.000000	0.001798  
2419.000000	0.001752  
2418.000000	0.001760  
2417.000000	0.001795  
2416.000000	0.001840  
2415.000000	0.001895  
2414.000000	0.001963  
2413.000000	0.002046  
2412.000000	0.002142  
2411.000000	0.002235  
2410.000000	0.002316  
2409.000000	0.002395  
2408.000000	0.002484  
2407.000000	0.002549  
2406.000000	0.002506  
2405.000000	0.002311  
2404.000000	0.002033  
2403.000000	0.001803  
2402.000000	0.001689  
2401.000000	0.001651  
2400.000000	0.001632  
2399.000000	0.001640  
2398.000000	0.001720  
2397.000000	0.001861  
2396.000000	0.001987  
2395.000000	0.002045  
2394.000000	0.002058  
2393.000000	0.002104  
2392.000000	0.002229  
2391.000000	0.002413  
2390.000000	0.002588  
2389.000000	0.002710  
2388.000000	0.002816  
2387.000000	0.003023  
2386.000000	0.003427  
2385.000000	0.003998  
2384.000000	0.004550  
2383.000000	0.004849  
2382.000000	0.004750  
2381.000000	0.004283  
2380.000000	0.003628  
2379.000000	0.002999  
2378.000000	0.002503  
2377.000000	0.002110  
2376.000000	0.001785  
2375.000000	0.001657  
2374.000000	0.001941  
2373.000000	0.002688  
2372.000000	0.003673  
2371.000000	0.004585  
2370.000000	0.005210  
2369.000000	0.005403  
2368.000000	0.005098  
2367.000000	0.004504  
2366.000000	0.004074  
2365.000000	0.004044  
2364.000000	0.004155  
2363.000000	0.004109  
2362.000000	0.003948  
2361.000000	0.003917  
2360.000000	0.004251  
2359.000000	0.004850  
2358.000000	0.005315  
2357.000000	0.005268  
2356.000000	0.004676  
2355.000000	0.003986  
2354.000000	0.003486  
2353.000000	0.003287  
2352.000000	0.003367  
2351.000000	0.003636  
2350.000000	0.004000  
2349.000000	0.004230  
2348.000000	0.004248  
2347.000000	0.004148  
2346.000000	0.004317  
2345.000000	0.005118  
2344.000000	0.006118  
2343.000000	0.006631  
2342.000000	0.006138  
2341.000000	0.005049  
2340.000000	0.004159  
2339.000000	0.003711  
2338.000000	0.003322  
2337.000000	0.002638  
2336.000000	0.001954  
2335.000000	0.001630  
2334.000000	0.001714  
2333.000000	0.001909  
2332.000000	0.002242  
2331.000000	0.002778  
2330.000000	0.003708  
2329.000000	0.004663  
2328.000000	0.005497  
2327.000000	0.005988  
2326.000000	0.006159  
2325.000000	0.006027  
2324.000000	0.005618  
2323.000000	0.005046  
2322.000000	0.004406  
2321.000000	0.003939  
2320.000000	0.003873  
2319.000000	0.004191  
2318.000000	0.004667  
2317.000000	0.004877  
2316.000000	0.004736  
2315.000000	0.004318  
2314.000000	0.004045  
2313.000000	0.004081  
2312.000000	0.004481  
2311.000000	0.004931  
2310.000000	0.005307  
2309.000000	0.005528  
2308.000000	0.005710  
2307.000000	0.005767  
2306.000000	0.005638  
2305.000000	0.005290  
2304.000000	0.004929  
2303.000000	0.004706  
2302.000000	0.004680  
2301.000000	0.004675  
2300.000000	0.004598  
2299.000000	0.004431  
2298.000000	0.004349  
2297.000000	0.004410  
2296.000000	0.004563  
2295.000000	0.004620  
2294.000000	0.004515  
2293.000000	0.004296  
2292.000000	0.004054  
2291.000000	0.003784  
2290.000000	0.003460  
2289.000000	0.003134  
2288.000000	0.002886  
2287.000000	0.002694  
2286.000000	0.002440  
2285.000000	0.002102  
2284.000000	0.001803  
2283.000000	0.001671  
2282.000000	0.001689  
2281.000000	0.001776  
2280.000000	0.001931  
2279.000000	0.002199  
2278.000000	0.002505  
2277.000000	0.002661  
2276.000000	0.002599  
2275.000000	0.002513  
2274.000000	0.002686  
2273.000000	0.003155  
2272.000000	0.003653  
2271.000000	0.003873  
2270.000000	0.003761  
2269.000000	0.003486  
2268.000000	0.003188  
2267.000000	0.002854  
2266.000000	0.002452  
2265.000000	0.002075  
2264.000000	0.001875  
2263.000000	0.001875  
2262.000000	0.001965  
2261.000000	0.002072  
2260.000000	0.002211  
2259.000000	0.002386  
2258.000000	0.002528  
2257.000000	0.002600  
2256.000000	0.002679  
2255.000000	0.002840  
2254.000000	0.003020  
2253.000000	0.003079  
2252.000000	0.002990  
2251.000000	0.002841  
2250.000000	0.002694  
2249.000000	0.002482  
2248.000000	0.002123  
2247.000000	0.001642  
2246.000000	0.001180  
2245.000000	0.000882  
2244.000000	0.000807  
2243.000000	0.000908  
2242.000000	0.001086  
2241.000000	0.001258  
2240.000000	0.001397  
2239.000000	0.001512  
2238.000000	0.001599  
2237.000000	0.001633  
2236.000000	0.001603  
2235.000000	0.001536  
2234.000000	0.001492  
2233.000000	0.001526  
2232.000000	0.001644  
2231.000000	0.001774  
2230.000000	0.001811  
2229.000000	0.001728  
2228.000000	0.001609  
2227.000000	0.001567  
2226.000000	0.001615  
2225.000000	0.001642  
2224.000000	0.001511  
2223.000000	0.001175  
2222.000000	0.000754  
2221.000000	0.000496  
2220.000000	0.000604  
2219.000000	0.001029  
2218.000000	0.001484  
2217.000000	0.001740  
2216.000000	0.001857  
2215.000000	0.002050  
2214.000000	0.002350  
2213.000000	0.002557  
2212.000000	0.002539  
2211.000000	0.002405  
2210.000000	0.002309  
2209.000000	0.002188  
2208.000000	0.001857  
2207.000000	0.001321  
2206.000000	0.000862  
2205.000000	0.000786  
2204.000000	0.001153  
2203.000000	0.001773  
2202.000000	0.002399  
2201.000000	0.002871  
2200.000000	0.003162  
2199.000000	0.003336  
2198.000000	0.003472  
2197.000000	0.003573  
2196.000000	0.003537  
2195.000000	0.003265  
2194.000000	0.002813  
2193.000000	0.002383  
2192.000000	0.002132  
2191.000000	0.001988  
2190.000000	0.001756  
2189.000000	0.001404  
2188.000000	0.001121  
2187.000000	0.001045  
2186.000000	0.001047  
2185.000000	0.000896  
2184.000000	0.000604  
2183.000000	0.000460  
2182.000000	0.000736  
2181.000000	0.001438  
2180.000000	0.002342  
2179.000000	0.003139  
2178.000000	0.003563  
2177.000000	0.003524  
2176.000000	0.003181  
2175.000000	0.002758  
2174.000000	0.002277  
2173.000000	0.001635  
2172.000000	0.000946  
2171.000000	0.000597  
2170.000000	0.000813  
2169.000000	0.001329  
2168.000000	0.001660  
2167.000000	0.001654  
2166.000000	0.001607  
2165.000000	0.001839  
2164.000000	0.002322  
2163.000000	0.002756  
2162.000000	0.002891  
2161.000000	0.002721  
2160.000000	0.002447  
2159.000000	0.002294  
2158.000000	0.002302  
2157.000000	0.002364  
2156.000000	0.002417  
2155.000000	0.002513  
2154.000000	0.002687  
2153.000000	0.002874  
2152.000000	0.002996  
2151.000000	0.003029  
2150.000000	0.002915  
2149.000000	0.002559  
2148.000000	0.002010  
2147.000000	0.001563  
2146.000000	0.001516  
2145.000000	0.001857  
2144.000000	0.002279  
2143.000000	0.002488  
2142.000000	0.002385  
2141.000000	0.002010  
2140.000000	0.001478  
2139.000000	0.000984  
2138.000000	0.000753  
2137.000000	0.000874  
2136.000000	0.001210  
2135.000000	0.001500  
2134.000000	0.001579  
2133.000000	0.001493  
2132.000000	0.001447  
2131.000000	0.001615  
2130.000000	0.001974  
2129.000000	0.002344  
2128.000000	0.002568  
2127.000000	0.002620  
2126.000000	0.002524  
2125.000000	0.002271  
2124.000000	0.001911  
2123.000000	0.001645  
2122.000000	0.001691  
2121.000000	0.002042  
2120.000000	0.002436  
2119.000000	0.002594  
2118.000000	0.002440  
2117.000000	0.002138  
2116.000000	0.001970  
2115.000000	0.002132  
2114.000000	0.002522  
2113.000000	0.002756  
2112.000000	0.002542  
2111.000000	0.002039  
2110.000000	0.001727  
2109.000000	0.001869  
2108.000000	0.002245  
2107.000000	0.002462  
2106.000000	0.002377  
2105.000000	0.002106  
2104.000000	0.001771  
2103.000000	0.001417  
2102.000000	0.001112  
2101.000000	0.000962  
2100.000000	0.000978  
2099.000000	0.001049  
2098.000000	0.001075  
2097.000000	0.001063  
2096.000000	0.001087  
2095.000000	0.001189  
2094.000000	0.001319  
2093.000000	0.001373  
2092.000000	0.001273  
2091.000000	0.001055  
2090.000000	0.000840  
2089.000000	0.000743  
2088.000000	0.000831  
2087.000000	0.001147  
2086.000000	0.001673  
2085.000000	0.002205  
2084.000000	0.002406  
2083.000000	0.002114  
2082.000000	0.001564  
2081.000000	0.001218  
2080.000000	0.001340  
2079.000000	0.001781  
2078.000000	0.002155  
2077.000000	0.002169  
2076.000000	0.001836  
2075.000000	0.001459  
2074.000000	0.001377  
2073.000000	0.001663  
2072.000000	0.002065  
2071.000000	0.002310  
2070.000000	0.002369  
2069.000000	0.002364  
2068.000000	0.002317  
2067.000000	0.002159  
2066.000000	0.001953  
2065.000000	0.001904  
2064.000000	0.002090  
2063.000000	0.002353  
2062.000000	0.002500  
2061.000000	0.002471  
2060.000000	0.002292  
2059.000000	0.002012  
2058.000000	0.001756  
2057.000000	0.001665  
2056.000000	0.001681  
2055.000000	0.001528  
2054.000000	0.001067  
2053.000000	0.000542  
2052.000000	0.000328  
2051.000000	0.000518  
2050.000000	0.000930  
2049.000000	0.001437  
2048.000000	0.002058  
2047.000000	0.002657  
2046.000000	0.002837  
2045.000000	0.002351  
2044.000000	0.001490  
2043.000000	0.000841  
2042.000000	0.000699  
2041.000000	0.000885  
2040.000000	0.001136  
2039.000000	0.001429  
2038.000000	0.001812  
2037.000000	0.002117  
2036.000000	0.002090  
2035.000000	0.001808  
2034.000000	0.001699  
2033.000000	0.002057  
2032.000000	0.002653  
2031.000000	0.002958  
2030.000000	0.002646  
2029.000000	0.001815  
2028.000000	0.000845  
2027.000000	0.000132  
2026.000000	-0.000133 
2025.000000	-0.000051 
2024.000000	0.000121  
2023.000000	0.000311  
2022.000000	0.000725  
2021.000000	0.001499  
2020.000000	0.002350  
2019.000000	0.002774  
2018.000000	0.002551  
2017.000000	0.001896  
2016.000000	0.001142  
2015.000000	0.000498  
2014.000000	0.000175  
2013.000000	0.000402  
2012.000000	0.001076  
2011.000000	0.001597  
2010.000000	0.001358  
2009.000000	0.000401  
2008.000000	-0.000592 
2007.000000	-0.000989 
2006.000000	-0.000721 
2005.000000	-0.000121 
2004.000000	0.000503  
2003.000000	0.001069  
2002.000000	0.001635  
2001.000000	0.002239  
2000.000000	0.002753  
1999.000000	0.002878  
1998.000000	0.002400  
1997.000000	0.001508  
1996.000000	0.000725  
1995.000000	0.000435  
1994.000000	0.000577  
1993.000000	0.000829  
1992.000000	0.001006  
1991.000000	0.001153  
1990.000000	0.001329  
1989.000000	0.001505  
1988.000000	0.001689  
1987.000000	0.001931  
1986.000000	0.002187  
1985.000000	0.002332  
1984.000000	0.002354  
1983.000000	0.002390  
1982.000000	0.002461  
1981.000000	0.002360  
1980.000000	0.001941  
1979.000000	0.001400  
1978.000000	0.001052  
1977.000000	0.000901  
1976.000000	0.000703  
1975.000000	0.000415  
1974.000000	0.000238  
1973.000000	0.000226  
1972.000000	0.000192  
1971.000000	0.000076  
1970.000000	0.000096  
1969.000000	0.000399  
1968.000000	0.000766  
1967.000000	0.000882  
1966.000000	0.000771  
1965.000000	0.000713  
1964.000000	0.000857  
1963.000000	0.001124  
1962.000000	0.001380  
1961.000000	0.001535  
1960.000000	0.001541  
1959.000000	0.001447  
1958.000000	0.001387  
1957.000000	0.001396  
1956.000000	0.001294  
1955.000000	0.000932  
1954.000000	0.000474  
1953.000000	0.000287  
1952.000000	0.000552  
1951.000000	0.001111  
1950.000000	0.001675  
1949.000000	0.002021  
1948.000000	0.002036  
1947.000000	0.001744  
1946.000000	0.001361  
1945.000000	0.001178  
1944.000000	0.001286  
1943.000000	0.001492  
1942.000000	0.001574  
1941.000000	0.001530  
1940.000000	0.001469  
1939.000000	0.001426  
1938.000000	0.001406  
1937.000000	0.001495  
1936.000000	0.001778  
1935.000000	0.002192  
1934.000000	0.002563  
1933.000000	0.002771  
1932.000000	0.002827  
1931.000000	0.002786  
1930.000000	0.002673  
1929.000000	0.002497  
1928.000000	0.002275  
1927.000000	0.002022  
1926.000000	0.001763  
1925.000000	0.001555  
1924.000000	0.001455  
1923.000000	0.001455  
1922.000000	0.001517  
1921.000000	0.001648  
1920.000000	0.001883  
1919.000000	0.002176  
1918.000000	0.002385  
1917.000000	0.002434  
1916.000000	0.002383  
1915.000000	0.002266  
1914.000000	0.002019  
1913.000000	0.001633  
1912.000000	0.001271  
1911.000000	0.001131  
1910.000000	0.001225  
1909.000000	0.001391  
1908.000000	0.001513  
1907.000000	0.001616  
1906.000000	0.001736  
1905.000000	0.001823  
1904.000000	0.001819  
1903.000000	0.001761  
1902.000000	0.001742  
1901.000000	0.001810  
1900.000000	0.001926  
1899.000000	0.002008  
1898.000000	0.002000  
1897.000000	0.001923  
1896.000000	0.001867  
1895.000000	0.001922  
1894.000000	0.002087  
1893.000000	0.002276  
1892.000000	0.002407  
1891.000000	0.002453  
1890.000000	0.002427  
1889.000000	0.002359  
1888.000000	0.002279  
1887.000000	0.002191  
1886.000000	0.002083  
1885.000000	0.001972  
1884.000000	0.001895  
1883.000000	0.001860  
1882.000000	0.001824  
1881.000000	0.001757  
1880.000000	0.001684  
1879.000000	0.001633  
1878.000000	0.001597  
1877.000000	0.001577  
1876.000000	0.001637  
1875.000000	0.001834  
1874.000000	0.002108  
1873.000000	0.002316  
1872.000000	0.002368  
1871.000000	0.002285  
1870.000000	0.002107  
1869.000000	0.001852  
1868.000000	0.001614  
1867.000000	0.001533  
1866.000000	0.001629  
1865.000000	0.001795  
1864.000000	0.001929  
1863.000000	0.002016  
1862.000000	0.002070  
1861.000000	0.002074  
1860.000000	0.002012  
1859.000000	0.001942  
1858.000000	0.001952  
1857.000000	0.002053  
1856.000000	0.002159  
1855.000000	0.002159  
1854.000000	0.002025  
1853.000000	0.001848  
1852.000000	0.001772  
1851.000000	0.001855  
1850.000000	0.001984  
1849.000000	0.001974  
1848.000000	0.001771  
1847.000000	0.001532  
1846.000000	0.001470  
1845.000000	0.001643  
1844.000000	0.001892  
1843.000000	0.002034  
1842.000000	0.002036  
1841.000000	0.001957  
1840.000000	0.001854  
1839.000000	0.001786  
1838.000000	0.001805  
1837.000000	0.001895  
1836.000000	0.001975  
1835.000000	0.001992  
1834.000000	0.001947  
1833.000000	0.001840  
1832.000000	0.001655  
1831.000000	0.001459  
1830.000000	0.001420  
1829.000000	0.001607  
1828.000000	0.001870  
1827.000000	0.002032  
1826.000000	0.002050  
1825.000000	0.001979  
1824.000000	0.001919  
1823.000000	0.001955  
1822.000000	0.002095  
1821.000000	0.002226  
1820.000000	0.002186  
1819.000000	0.001958  
1818.000000	0.001741  
1817.000000	0.001736  
1816.000000	0.001922  
1815.000000	0.002105  
1814.000000	0.002149  
1813.000000	0.002063  
1812.000000	0.001947  
1811.000000	0.001905  
1810.000000	0.001978  
1809.000000	0.002115  
1808.000000	0.002231  
1807.000000	0.002277  
1806.000000	0.002253  
1805.000000	0.002204  
1804.000000	0.002185  
1803.000000	0.002232  
1802.000000	0.002339  
1801.000000	0.002449  
1800.000000	0.002518  
1799.000000	0.002553  
1798.000000	0.002567  
1797.000000	0.002567  
1796.000000	0.002566  
1795.000000	0.002577  
1794.000000	0.002578  
1793.000000	0.002522  
1792.000000	0.002391  
1791.000000	0.002265  
1790.000000	0.002216  
1789.000000	0.002218  
1788.000000	0.002216  
1787.000000	0.002194  
1786.000000	0.002182  
1785.000000	0.002201  
1784.000000	0.002214  
1783.000000	0.002171  
1782.000000	0.002093  
1781.000000	0.002083  
1780.000000	0.002215  
1779.000000	0.002441  
1778.000000	0.002643  
1777.000000	0.002749  
1776.000000	0.002771  
1775.000000	0.002749  
1774.000000	0.002711  
1773.000000	0.002656  
1772.000000	0.002551  
1771.000000	0.002405  
1770.000000	0.002298  
1769.000000	0.002304  
1768.000000	0.002407  
1767.000000	0.002529  
1766.000000	0.002619  
1765.000000	0.002696  
1764.000000	0.002797  
1763.000000	0.002922  
1762.000000	0.003056  
1761.000000	0.003199  
1760.000000	0.003349  
1759.000000	0.003494  
1758.000000	0.003644  
1757.000000	0.003828  
1756.000000	0.004048  
1755.000000	0.004277  
1754.000000	0.004549  
1753.000000	0.004990  
1752.000000	0.005714  
1751.000000	0.006693  
1750.000000	0.007845  
1749.000000	0.009239  
1748.000000	0.010946  
1747.000000	0.012881  
1746.000000	0.014896  
1745.000000	0.016857  
1744.000000	0.018533  
1743.000000	0.019632  
1742.000000	0.020009  
1741.000000	0.019648  
1740.000000	0.018554  
1739.000000	0.016959  
1738.000000	0.015305  
1737.000000	0.013802  
1736.000000	0.012292  
1735.000000	0.010565  
1734.000000	0.008826  
1733.000000	0.007546  
1732.000000	0.006710  
1731.000000	0.006073  
1730.000000	0.005570  
1729.000000	0.005233  
1728.000000	0.005012  
1727.000000	0.004802  
1726.000000	0.004556  
1725.000000	0.004306  
1724.000000	0.004088  
1723.000000	0.003908  
1722.000000	0.003762  
1721.000000	0.003638  
1720.000000	0.003516  
1719.000000	0.003390  
1718.000000	0.003269  
1717.000000	0.003114  
1716.000000	0.002974  
1715.000000	0.002958  
1714.000000	0.003052  
1713.000000	0.003145  
1712.000000	0.003147  
1711.000000	0.003052  
1710.000000	0.002925  
1709.000000	0.002824  
1708.000000	0.002767  
1707.000000	0.002762  
1706.000000	0.002811  
1705.000000	0.002896  
1704.000000	0.003023  
1703.000000	0.003232  
1702.000000	0.003488  
1701.000000	0.003609  
1700.000000	0.003449  
1699.000000	0.003246  
1698.000000	0.003172  
1697.000000	0.003152  
1696.000000	0.003082  
1695.000000	0.003022  
1694.000000	0.003011  
1693.000000	0.003003  
1692.000000	0.002979  
1691.000000	0.002951  
1690.000000	0.002945  
1689.000000	0.002967  
1688.000000	0.002994  
1687.000000	0.003019  
1686.000000	0.003027  
1685.000000	0.003023  
1684.000000	0.002997  
1683.000000	0.003007  
1682.000000	0.003037  
1681.000000	0.003060  
1680.000000	0.003052  
1679.000000	0.003022  
1678.000000	0.002971  
1677.000000	0.002891  
1676.000000	0.002803  
1675.000000	0.002774  
1674.000000	0.002863  
1673.000000	0.003027  
1672.000000	0.003194  
1671.000000	0.003307  
1670.000000	0.003340  
1669.000000	0.003316  
1668.000000	0.003282  
1667.000000	0.003251  
1666.000000	0.003248  
1665.000000	0.003292  
1664.000000	0.003363  
1663.000000	0.003408  
1662.000000	0.003404  
1661.000000	0.003397  
1660.000000	0.003433  
1659.000000	0.003493  
1658.000000	0.003529  
1657.000000	0.003507  
1656.000000	0.003463  
1655.000000	0.003415  
1654.000000	0.003454  
1653.000000	0.003588  
1652.000000	0.003775  
1651.000000	0.003802  
1650.000000	0.003788  
1649.000000	0.003848  
1648.000000	0.004018  
1647.000000	0.004130  
1646.000000	0.004041  
1645.000000	0.003820  
1644.000000	0.003567  
1643.000000	0.003363  
1642.000000	0.003256  
1641.000000	0.003230  
1640.000000	0.003237  
1639.000000	0.003257  
1638.000000	0.003322  
1637.000000	0.003454  
1636.000000	0.003586  
1635.000000	0.003600  
1634.000000	0.003533  
1633.000000	0.003472  
1632.000000	0.003460  
1631.000000	0.003474  
1630.000000	0.003472  
1629.000000	0.003451  
1628.000000	0.003452  
1627.000000	0.003502  
1626.000000	0.003594  
1625.000000	0.003697  
1624.000000	0.003763  
1623.000000	0.003748  
1622.000000	0.003698  
1621.000000	0.003708  
1620.000000	0.003804  
1619.000000	0.003944  
1618.000000	0.004057  
1617.000000	0.004118  
1616.000000	0.004167  
1615.000000	0.004221  
1614.000000	0.004260  
1613.000000	0.004304  
1612.000000	0.004369  
1611.000000	0.004459  
1610.000000	0.004558  
1609.000000	0.004654  
1608.000000	0.004714  
1607.000000	0.004698  
1606.000000	0.004609  
1605.000000	0.004504  
1604.000000	0.004423  
1603.000000	0.004357  
1602.000000	0.004287  
1601.000000	0.004212  
1600.000000	0.004114  
1599.000000	0.003962  
1598.000000	0.003775  
1597.000000	0.003634  
1596.000000	0.003604  
1595.000000	0.003666  
1594.000000	0.003754  
1593.000000	0.003837  
1592.000000	0.003930  
1591.000000	0.004033  
1590.000000	0.004109  
1589.000000	0.004122  
1588.000000	0.004065  
1587.000000	0.003961  
1586.000000	0.003854  
1585.000000	0.003787  
1584.000000	0.003772  
1583.000000	0.003782  
1582.000000	0.003796  
1581.000000	0.003820  
1580.000000	0.003872  
1579.000000	0.003943  
1578.000000	0.003991  
1577.000000	0.003951  
1576.000000	0.003815  
1575.000000	0.003699  
1574.000000	0.003717  
1573.000000	0.003881  
1572.000000	0.004093  
1571.000000	0.004204  
1570.000000	0.004136  
1569.000000	0.004007  
1568.000000	0.003949  
1567.000000	0.003916  
1566.000000	0.003843  
1565.000000	0.003735  
1564.000000	0.003622  
1563.000000	0.003515  
1562.000000	0.003402  
1561.000000	0.003311  
1560.000000	0.003313  
1559.000000	0.003349  
1558.000000	0.003318  
1557.000000	0.003453  
1556.000000	0.003696  
1555.000000	0.003937  
1554.000000	0.004088  
1553.000000	0.004072  
1552.000000	0.003888  
1551.000000	0.003631  
1550.000000	0.003448  
1549.000000	0.003429  
1548.000000	0.003516  
1547.000000	0.003611  
1546.000000	0.003687  
1545.000000	0.003752  
1544.000000	0.003766  
1543.000000	0.003729  
1542.000000	0.003723  
1541.000000	0.003776  
1540.000000	0.003791  
1539.000000	0.003803  
1538.000000	0.003900  
1537.000000	0.004037  
1536.000000	0.004153  
1535.000000	0.004191  
1534.000000	0.004134  
1533.000000	0.004025  
1532.000000	0.003951  
1531.000000	0.003915  
1530.000000	0.003871  
1529.000000	0.003804  
1528.000000	0.003759  
1527.000000	0.003823  
1526.000000	0.004048  
1525.000000	0.004341  
1524.000000	0.004548  
1523.000000	0.004621  
1522.000000	0.004644  
1521.000000	0.004700  
1520.000000	0.004774  
1519.000000	0.004809  
1518.000000	0.004834  
1517.000000	0.004898  
1516.000000	0.004995  
1515.000000	0.005135  
1514.000000	0.005355  
1513.000000	0.005634  
1512.000000	0.005845  
1511.000000	0.005891  
1510.000000	0.005847  
1509.000000	0.005920  
1508.000000	0.006258  
1507.000000	0.006800  
1506.000000	0.007358  
1505.000000	0.007765  
1504.000000	0.007879  
1503.000000	0.007827  
1502.000000	0.007778  
1501.000000	0.007799  
1500.000000	0.007837  
1499.000000	0.007891  
1498.000000	0.008137  
1497.000000	0.008650  
1496.000000	0.009137  
1495.000000	0.009374  
1494.000000	0.009499  
1493.000000	0.009650  
1492.000000	0.009749  
1491.000000	0.009720  
1490.000000	0.009752  
1489.000000	0.010043  
1488.000000	0.010467  
1487.000000	0.010843  
1486.000000	0.011193  
1485.000000	0.011623  
1484.000000	0.012160  
1483.000000	0.012818  
1482.000000	0.013684  
1481.000000	0.014755  
1480.000000	0.015865  
1479.000000	0.016964  
1478.000000	0.018271  
1477.000000	0.019987  
1476.000000	0.022035  
1475.000000	0.024464  
1474.000000	0.027995  
1473.000000	0.033463  
1472.000000	0.040347  
1471.000000	0.047261  
1470.000000	0.053684  
1469.000000	0.059631  
1468.000000	0.064910  
1467.000000	0.069347  
1466.000000	0.073096  
1465.000000	0.076286  
1464.000000	0.078713  
1463.000000	0.080338  
1462.000000	0.081505  
1461.000000	0.082491  
1460.000000	0.083386  
1459.000000	0.084294  
1458.000000	0.085253  
1457.000000	0.085532  
1456.000000	0.084337  
1455.000000	0.082185  
1454.000000	0.079734  
1453.000000	0.077059  
1452.000000	0.074175  
1451.000000	0.071359  
1450.000000	0.068802  
1449.000000	0.066265  
1448.000000	0.063435  
1447.000000	0.060409  
1446.000000	0.057410  
1445.000000	0.054353  
1444.000000	0.051076  
1443.000000	0.047629  
1442.000000	0.044228  
1441.000000	0.041082  
1440.000000	0.038280  
1439.000000	0.035721  
1438.000000	0.033113  
1437.000000	0.030294  
1436.000000	0.027650  
1435.000000	0.025618  
1434.000000	0.023974  
1433.000000	0.022294  
1432.000000	0.020465  
1431.000000	0.018662  
1430.000000	0.017069  
1429.000000	0.015760  
1428.000000	0.014768  
1427.000000	0.014067  
1426.000000	0.013505  
1425.000000	0.012942  
1424.000000	0.012395  
1423.000000	0.011961  
1422.000000	0.011618  
1421.000000	0.011254  
1420.000000	0.010853  
1419.000000	0.010519  
1418.000000	0.010302  
1417.000000	0.010137  
1416.000000	0.009986  
1415.000000	0.009863  
1414.000000	0.009741  
1413.000000	0.009568  
1412.000000	0.009341  
1411.000000	0.009104  
1410.000000	0.008902  
1409.000000	0.008764  
1408.000000	0.008717  
1407.000000	0.008756  
1406.000000	0.008813  
1405.000000	0.008829  
1404.000000	0.008847  
1403.000000	0.008939  
1402.000000	0.009076  
1401.000000	0.009195  
1400.000000	0.009313  
1399.000000	0.009471  
1398.000000	0.009645  
1397.000000	0.009802  
1396.000000	0.009979  
1395.000000	0.010241  
1394.000000	0.010602  
1393.000000	0.011045  
1392.000000	0.011580  
1391.000000	0.012253  
1390.000000	0.013143  
1389.000000	0.014419  
1388.000000	0.016314  
1387.000000	0.018830  
1386.000000	0.021624  
1385.000000	0.024421  
1384.000000	0.027308  
1383.000000	0.030535  
1382.000000	0.034257  
1381.000000	0.038407  
1380.000000	0.042609  
1379.000000	0.046114  
1378.000000	0.048109  
1377.000000	0.048214  
1376.000000	0.046514  
1375.000000	0.043326  
1374.000000	0.039290  
1373.000000	0.035329  
1372.000000	0.032080  
1371.000000	0.029662  
1370.000000	0.028004  
1369.000000	0.027050  
1368.000000	0.026617  
1367.000000	0.026307  
1366.000000	0.025688  
1365.000000	0.024515  
1364.000000	0.022804  
1363.000000	0.020837  
1362.000000	0.019043  
1361.000000	0.017719  
1360.000000	0.016859  
1359.000000	0.016285  
1358.000000	0.015832  
1357.000000	0.015435  
1356.000000	0.015132  
1355.000000	0.014975  
1354.000000	0.014944  
1353.000000	0.014947  
1352.000000	0.014914  
1351.000000	0.014835  
1350.000000	0.014720  
1349.000000	0.014581  
1348.000000	0.014421  
1347.000000	0.014236  
1346.000000	0.014030  
1345.000000	0.013846  
1344.000000	0.013742  
1343.000000	0.013723  
1342.000000	0.013719  
1341.000000	0.013647  
1340.000000	0.013474  
1339.000000	0.013221  
1338.000000	0.012929  
1337.000000	0.012622  
1336.000000	0.012319  
1335.000000	0.012031  
1334.000000	0.011758  
1333.000000	0.011504  
1332.000000	0.011294  
1331.000000	0.011143  
1330.000000	0.011022  
1329.000000	0.010884  
1328.000000	0.010730  
1327.000000	0.010598  
1326.000000	0.010503  
1325.000000	0.010445  
1324.000000	0.010419  
1323.000000	0.010424  
1322.000000	0.010447  
1321.000000	0.010467  
1320.000000	0.010481  
1319.000000	0.010502  
1318.000000	0.010539  
1317.000000	0.010591  
1316.000000	0.010658  
1315.000000	0.010740  
1314.000000	0.010839  
1313.000000	0.010954  
1312.000000	0.011083  
1311.000000	0.011221  
1310.000000	0.011360  
1309.000000	0.011501  
1308.000000	0.011654  
1307.000000	0.011809  
1306.000000	0.011934  
1305.000000	0.012008  
1304.000000	0.012026  
1303.000000	0.011991  
1302.000000	0.011902  
1301.000000	0.011778  
1300.000000	0.011655  
1299.000000	0.011554  
1298.000000	0.011465  
1297.000000	0.011366  
1296.000000	0.011255  
1295.000000	0.011132  
1294.000000	0.010980  
1293.000000	0.010783  
1292.000000	0.010568  
1291.000000	0.010392  
1290.000000	0.010288  
1289.000000	0.010248  
1288.000000	0.010253  
1287.000000	0.010293  
1286.000000	0.010353  
1285.000000	0.010408  
1284.000000	0.010434  
1283.000000	0.010435  
1282.000000	0.010434  
1281.000000	0.010452  
1280.000000	0.010477  
1279.000000	0.010486  
1278.000000	0.010476  
1277.000000	0.010476  
1276.000000	0.010517  
1275.000000	0.010591  
1274.000000	0.010664  
1273.000000	0.010717  
1272.000000	0.010759  
1271.000000	0.010792  
1270.000000	0.010806  
1269.000000	0.010805  
1268.000000	0.010817  
1267.000000	0.010846  
1266.000000	0.010853  
1265.000000	0.010800  
1264.000000	0.010704  
1263.000000	0.010625  
1262.000000	0.010612  
1261.000000	0.010670  
1260.000000	0.010758  
1259.000000	0.010817  
1258.000000	0.010810  
1257.000000	0.010743  
1256.000000	0.010650  
1255.000000	0.010560  
1254.000000	0.010506  
1253.000000	0.010539  
1252.000000	0.010688  
1251.000000	0.010893  
1250.000000	0.011036  
1249.000000	0.011066  
1248.000000	0.011056  
1247.000000	0.011111  
1246.000000	0.011233  
1245.000000	0.011338  
1244.000000	0.011363  
1243.000000	0.011314  
1242.000000	0.011228  
1241.000000	0.011122  
1240.000000	0.011009  
1239.000000	0.010901  
1238.000000	0.010796  
1237.000000	0.010680  
1236.000000	0.010554  
1235.000000	0.010432  
1234.000000	0.010314  
1233.000000	0.010176  
1232.000000	0.010009  
1231.000000	0.009830  
1230.000000	0.009658  
1229.000000	0.009496  
1228.000000	0.009356  
1227.000000	0.009262  
1226.000000	0.009220  
1225.000000	0.009195  
1224.000000	0.009156  
1223.000000	0.009115  
1222.000000	0.009095  
1221.000000	0.009081  
1220.000000	0.009030  
1219.000000	0.008937  
1218.000000	0.008858  
1217.000000	0.008865  
1216.000000	0.008977  
1215.000000	0.009142  
1214.000000	0.009269  
1213.000000	0.009295  
1212.000000	0.009245  
1211.000000	0.009215  
1210.000000	0.009287  
1209.000000	0.009433  
1208.000000	0.009544  
1207.000000	0.009551  
1206.000000	0.009501  
1205.000000	0.009487  
1204.000000	0.009539  
1203.000000	0.009608  
1202.000000	0.009649  
1201.000000	0.009681  
1200.000000	0.009756  
1199.000000	0.009901  
1198.000000	0.010113  
1197.000000	0.010360  
1196.000000	0.010596  
1195.000000	0.010788  
1194.000000	0.010954  
1193.000000	0.011151  
1192.000000	0.011399  
1191.000000	0.011651  
1190.000000	0.011852  
1189.000000	0.012019  
1188.000000	0.012205  
1187.000000	0.012431  
1186.000000	0.012671  
1185.000000	0.012912  
1184.000000	0.013161  
1183.000000	0.013424  
1182.000000	0.013699  
1181.000000	0.013995  
1180.000000	0.014314  
1179.000000	0.014622  
1178.000000	0.014861  
1177.000000	0.015020  
1176.000000	0.015137  
1175.000000	0.015250  
1174.000000	0.015368  
1173.000000	0.015496  
1172.000000	0.015640  
1171.000000	0.015770  
1170.000000	0.015815  
1169.000000	0.015722  
1168.000000	0.015514  
1167.000000	0.015272  
1166.000000	0.015058  
1165.000000	0.014868  
1164.000000	0.014642  
1163.000000	0.014331  
1162.000000	0.013967  
1161.000000	0.013657  
1160.000000	0.013491  
1159.000000	0.013439  
1158.000000	0.013386  
1157.000000	0.013249  
1156.000000	0.013030  
1155.000000	0.012760  
1154.000000	0.012446  
1153.000000	0.012092  
1152.000000	0.011736  
1151.000000	0.011439  
1150.000000	0.011246  
1149.000000	0.011173  
1148.000000	0.011198  
1147.000000	0.011245  
1146.000000	0.011210  
1145.000000	0.011036  
1144.000000	0.010744  
1143.000000	0.010409  
1142.000000	0.010103  
1141.000000	0.009871  
1140.000000	0.009707  
1139.000000	0.009564  
1138.000000	0.009414  
1137.000000	0.009292  
1136.000000	0.009244  
1135.000000	0.009216  
1134.000000	0.009097  
1133.000000	0.008867  
1132.000000	0.008642  
1131.000000	0.008536  
1130.000000	0.008538  
1129.000000	0.008581  
1128.000000	0.008648  
1127.000000	0.008745  
1126.000000	0.008828  
1125.000000	0.008844  
1124.000000	0.008826  
1123.000000	0.008846  
1122.000000	0.008905  
1121.000000	0.008937  
1120.000000	0.008927  
1119.000000	0.008930  
1118.000000	0.008979  
1117.000000	0.009036  
1116.000000	0.009056  
1115.000000	0.009036  
1114.000000	0.008975  
1113.000000	0.008855  
1112.000000	0.008679  
1111.000000	0.008486  
1110.000000	0.008300  
1109.000000	0.008114  
1108.000000	0.007947  
1107.000000	0.007874  
1106.000000	0.007948  
1105.000000	0.008114  
1104.000000	0.008254  
1103.000000	0.008298  
1102.000000	0.008286  
1101.000000	0.008316  
1100.000000	0.008433  
1099.000000	0.008589  
1098.000000	0.008694  
1097.000000	0.008713  
1096.000000	0.008704  
1095.000000	0.008726  
1094.000000	0.008761  
1093.000000	0.008752  
1092.000000	0.008700  
1091.000000	0.008663  
1090.000000	0.008661  
1089.000000	0.008628  
1088.000000	0.008503  
1087.000000	0.008320  
1086.000000	0.008179  
1085.000000	0.008140  
1084.000000	0.008175  
1083.000000	0.008202  
1082.000000	0.008156  
1081.000000	0.008046  
1080.000000	0.007949  
1079.000000	0.007956  
1078.000000	0.008094  
1077.000000	0.008319  
1076.000000	0.008578  
1075.000000	0.008847  
1074.000000	0.009107  
1073.000000	0.009314  
1072.000000	0.009419  
1071.000000	0.009426  
1070.000000	0.009402  
1069.000000	0.009418  
1068.000000	0.009477  
1067.000000	0.009515  
1066.000000	0.009475  
1065.000000	0.009386  
1064.000000	0.009338  
1063.000000	0.009367  
1062.000000	0.009402  
1061.000000	0.009340  
1060.000000	0.009176  
1059.000000	0.009005  
1058.000000	0.008917  
1057.000000	0.008929  
1056.000000	0.009026  
1055.000000	0.009184  
1054.000000	0.009318  
1053.000000	0.009263  
1052.000000	0.008914  
1051.000000	0.008414  
1050.000000	0.008084  
1049.000000	0.008114  
1048.000000	0.008387  
1047.000000	0.008633  
1046.000000	0.008705  
1045.000000	0.008644  
1044.000000	0.008570  
1043.000000	0.008576  
1042.000000	0.008701  
1041.000000	0.008920  
1040.000000	0.009141  
1039.000000	0.009251  
1038.000000	0.009208  
1037.000000	0.009080  
1036.000000	0.008977  
1035.000000	0.008973  
1034.000000	0.009079  
1033.000000	0.009258  
1032.000000	0.009436  
1031.000000	0.009526  
1030.000000	0.009494  
1029.000000	0.009397  
1028.000000	0.009333  
1027.000000	0.009339  
1026.000000	0.009379  
1025.000000	0.009406  
1024.000000	0.009397  
1023.000000	0.009350  
1022.000000	0.009270  
1021.000000	0.009175  
1020.000000	0.009080  
1019.000000	0.008967  
1018.000000	0.008822  
1017.000000	0.008696  
1016.000000	0.008680  
1015.000000	0.008789  
1014.000000	0.008921  
1013.000000	0.008952  
1012.000000	0.008853  
1011.000000	0.008689  
1010.000000	0.008538  
1009.000000	0.008457  
1008.000000	0.008468  
1007.000000	0.008553  
1006.000000	0.008655  
1005.000000	0.008715  
1004.000000	0.008726  
1003.000000	0.008720  
1002.000000	0.008728  
1001.000000	0.008748  
1000.000000	0.008733  
999.000000	 0.008614  
998.000000	 0.008361  
997.000000	 0.008059  
996.000000	 0.007869  
995.000000	 0.007896  
994.000000	 0.008074  
993.000000	 0.008236  
992.000000	 0.008274  
991.000000	 0.008217  
990.000000	 0.008177  
989.000000	 0.008238  
988.000000	 0.008391  
987.000000	 0.008536  
986.000000	 0.008570  
985.000000	 0.008502  
984.000000	 0.008446  
983.000000	 0.008501  
982.000000	 0.008643  
981.000000	 0.008778  
980.000000	 0.008870  
979.000000	 0.008968  
978.000000	 0.009118  
977.000000	 0.009294  
976.000000	 0.009439  
975.000000	 0.009526  
974.000000	 0.009577  
973.000000	 0.009635  
972.000000	 0.009735  
971.000000	 0.009878  
970.000000	 0.010036  
969.000000	 0.010186  
968.000000	 0.010324  
967.000000	 0.010426  
966.000000	 0.010430  
965.000000	 0.010295  
964.000000	 0.010072  
963.000000	 0.009874  
962.000000	 0.009781  
961.000000	 0.009785  
960.000000	 0.009826  
959.000000	 0.009839  
958.000000	 0.009787  
957.000000	 0.009680  
956.000000	 0.009585  
955.000000	 0.009561  
954.000000	 0.009596  
953.000000	 0.009625  
952.000000	 0.009623  
951.000000	 0.009623  
950.000000	 0.009645  
949.000000	 0.009660  
948.000000	 0.009639  
947.000000	 0.009608  
946.000000	 0.009621  
945.000000	 0.009691  
944.000000	 0.009783  
943.000000	 0.009852  
942.000000	 0.009873  
941.000000	 0.009824  
940.000000	 0.009695  
939.000000	 0.009495  
938.000000	 0.009270  
937.000000	 0.009083  
936.000000	 0.008964  
935.000000	 0.008888  
934.000000	 0.008809  
933.000000	 0.008732  
932.000000	 0.008721  
931.000000	 0.008803  
930.000000	 0.008892  
929.000000	 0.008871  
928.000000	 0.008743  
927.000000	 0.008657  
926.000000	 0.008732  
925.000000	 0.008919  
924.000000	 0.009070  
923.000000	 0.009105  
922.000000	 0.009064  
921.000000	 0.009012  
920.000000	 0.008948  
919.000000	 0.008840  
918.000000	 0.008701  
917.000000	 0.008603  
916.000000	 0.008614  
915.000000	 0.008719  
914.000000	 0.008833  
913.000000	 0.008861  
912.000000	 0.008776  
911.000000	 0.008641  
910.000000	 0.008563  
909.000000	 0.008624  
908.000000	 0.008803  
907.000000	 0.008969  
906.000000	 0.008979  
905.000000	 0.008806  
904.000000	 0.008582  
903.000000	 0.008481  
902.000000	 0.008559  
901.000000	 0.008738  
900.000000	 0.008919  
899.000000	 0.009074  
898.000000	 0.009217  
897.000000	 0.009332  
896.000000	 0.009376  
895.000000	 0.009331  
894.000000	 0.009237  
893.000000	 0.009161  
892.000000	 0.009158  
891.000000	 0.009246  
890.000000	 0.009403  
889.000000	 0.009568  
888.000000	 0.009677  
887.000000	 0.009686  
886.000000	 0.009592  
885.000000	 0.009418  
884.000000	 0.009208  
883.000000	 0.009026  
882.000000	 0.008945  
881.000000	 0.009010  
880.000000	 0.009187  
879.000000	 0.009374  
878.000000	 0.009468  
877.000000	 0.009436  
876.000000	 0.009313  
875.000000	 0.009140  
874.000000	 0.008928  
873.000000	 0.008673  
872.000000	 0.008386  
871.000000	 0.008132  
870.000000	 0.008022  
869.000000	 0.008152  
868.000000	 0.008489  
867.000000	 0.008838  
866.000000	 0.008987  
865.000000	 0.008899  
864.000000	 0.008718  
863.000000	 0.008585  
862.000000	 0.008513  
861.000000	 0.008470  
860.000000	 0.008492  
859.000000	 0.008636  
858.000000	 0.008846  
857.000000	 0.008985  
856.000000	 0.009003  
855.000000	 0.009016  
854.000000	 0.009167  
853.000000	 0.009473  
852.000000	 0.009831  
851.000000	 0.010140  
850.000000	 0.010364  
849.000000	 0.010498  
848.000000	 0.010523  
847.000000	 0.010430  
846.000000	 0.010256  
845.000000	 0.010076  
844.000000	 0.009943  
843.000000	 0.009855  
842.000000	 0.009777  
841.000000	 0.009684  
840.000000	 0.009579  
839.000000	 0.009488  
838.000000	 0.009447  
837.000000	 0.009468  
836.000000	 0.009480  
835.000000	 0.009347  
834.000000	 0.008998  
833.000000	 0.008565  
832.000000	 0.008312  
831.000000	 0.008368  
830.000000	 0.008595  
829.000000	 0.008758  
828.000000	 0.008799  
827.000000	 0.008853  
826.000000	 0.009019  
825.000000	 0.009235  
824.000000	 0.009399  
823.000000	 0.009497  
822.000000	 0.009571  
821.000000	 0.009646  
820.000000	 0.009745  
819.000000	 0.009911  
818.000000	 0.010165  
817.000000	 0.010479  
816.000000	 0.010775  
815.000000	 0.010957  
814.000000	 0.010944  
813.000000	 0.010746  
812.000000	 0.010506  
811.000000	 0.010419  
810.000000	 0.010589  
809.000000	 0.010958  
808.000000	 0.011380  
807.000000	 0.011718  
806.000000	 0.011890  
805.000000	 0.011859  
804.000000	 0.011636  
803.000000	 0.011275  
802.000000	 0.010860  
801.000000	 0.010469  
800.000000	 0.010143  
799.000000	 0.009861  
798.000000	 0.009574  
797.000000	 0.009268  
796.000000	 0.008993  
795.000000	 0.008800  
794.000000	 0.008692  
793.000000	 0.008664  
792.000000	 0.008760  
791.000000	 0.009011  
790.000000	 0.009315  
789.000000	 0.009477  
788.000000	 0.009411  
787.000000	 0.009256  
786.000000	 0.009253  
785.000000	 0.009510  
784.000000	 0.009916  
783.000000	 0.010274  
782.000000	 0.010486  
781.000000	 0.010627  
780.000000	 0.010848  
779.000000	 0.011215  
778.000000	 0.011655  
777.000000	 0.012063  
776.000000	 0.012424  
775.000000	 0.012792  
774.000000	 0.013188  
773.000000	 0.013564  
772.000000	 0.013885  
771.000000	 0.014170  
770.000000	 0.014434  
769.000000	 0.014632  
768.000000	 0.014698  
767.000000	 0.014613  
766.000000	 0.014399  
765.000000	 0.014094  
764.000000	 0.013757  
763.000000	 0.013485  
762.000000	 0.013370  
761.000000	 0.013413  
760.000000	 0.013510  
759.000000	 0.013546  
758.000000	 0.013515  
757.000000	 0.013529  
756.000000	 0.013706  
755.000000	 0.014036  
754.000000	 0.014383  
753.000000	 0.014603  
752.000000	 0.014654  
751.000000	 0.014593  
750.000000	 0.014520  
749.000000	 0.014544  
748.000000	 0.014775  
747.000000	 0.015294  
746.000000	 0.016142  
745.000000	 0.017329  
744.000000	 0.018807  
743.000000	 0.020377  
742.000000	 0.021670  
741.000000	 0.022347  
740.000000	 0.022359  
739.000000	 0.021978  
738.000000	 0.021528  
737.000000	 0.021151  
736.000000	 0.020830  
735.000000	 0.020554  
734.000000	 0.020397  
733.000000	 0.020443  
732.000000	 0.020688  
731.000000	 0.021023  
730.000000	 0.021338  
729.000000	 0.021674  
728.000000	 0.022228  
727.000000	 0.023156  
726.000000	 0.024397  
725.000000	 0.025699  
724.000000	 0.026812  
723.000000	 0.027611  
722.000000	 0.027993  
721.000000	 0.027728  
720.000000	 0.026578  
719.000000	 0.024642  
718.000000	 0.022417  
717.000000	 0.020437  
716.000000	 0.018980  
715.000000	 0.018004  
714.000000	 0.017259  
713.000000	 0.016501  
712.000000	 0.015662  
711.000000	 0.014856  
710.000000	 0.014247  
709.000000	 0.013918  
708.000000	 0.013828  
707.000000	 0.013877  
706.000000	 0.014031  
705.000000	 0.014335  
704.000000	 0.014756  
703.000000	 0.015121  
702.000000	 0.015267  
701.000000	 0.015247  
700.000000	 0.015293  
699.000000	 0.015480  
698.000000	 0.015543  
697.000000	 0.015116  
696.000000	 0.014179  
695.000000	 0.013180  
694.000000	 0.012597  
693.000000	 0.012406  
692.000000	 0.012121  
691.000000	 0.011344  
690.000000	 0.010244  
689.000000	 0.009351  
688.000000	 0.008874  
687.000000	 0.008482  
686.000000	 0.007836  
685.000000	 0.007099  
684.000000	 0.006702  
683.000000	 0.006757  
682.000000	 0.006987  
681.000000	 0.007129  
680.000000	 0.007159  
679.000000	 0.007135  
678.000000	 0.007079  
677.000000	 0.007131  
676.000000	 0.007292  
675.000000	 0.007391  
674.000000	 0.007288  
673.000000	 0.006989  
672.000000	 0.006189  
671.000000	 0.004022  
670.000000	 -0.000406 
669.000000	 -0.007030 
668.000000	 -0.012344 
667.000000	 -0.009976 
666.000000	 -0.003176 
665.000000	 0.002097  
664.000000	 0.004932  
663.000000	 0.006312  
662.000000	 0.006952  
661.000000	 0.006973  
660.000000	 0.006556  
659.000000	 0.006245  
658.000000	 0.006336  
657.000000	 0.006455  
656.000000	 0.005927  
655.000000	 0.004712  
654.000000	 0.003549  
653.000000	 0.003150  
652.000000	 0.003518  
651.000000	 0.004161  
650.000000	 0.004668  

