PE IR                   SPECTRUM    ASCII       PEDS        1.60        
  -1
NB4-01~3.ASC
17/04/10
13:10:39.00
17/04/10
13:10:39.00
Admin

650.000000
6









SPECTRUM ONE,CPU32 MAIN 00.02.5000 17-APRIL-2002 13:00:00
MIR TGS
MIR
OPTKBR
68128
0.200000

4.000000
STRONG
RATIO
SPECTRUM
MAGNITUDE

DOUBLE

COMBINED


0


#HDR
-1
-1
#GR
CM-1
A
0.00000011920928955078
0.0
4000.000000
-1.000000
3351
8
0.219365
-0.001031
#DATA
4000.000000	0.001112  
3999.000000	0.001104  
3998.000000	0.001183  
3997.000000	0.001340  
3996.000000	0.001538  
3995.000000	0.001724  
3994.000000	0.001850  
3993.000000	0.001888  
3992.000000	0.001837  
3991.000000	0.001725  
3990.000000	0.001599  
3989.000000	0.001490  
3988.000000	0.001400  
3987.000000	0.001324  
3986.000000	0.001287  
3985.000000	0.001321  
3984.000000	0.001414  
3983.000000	0.001480  
3982.000000	0.001430  
3981.000000	0.001262  
3980.000000	0.001073  
3979.000000	0.000973  
3978.000000	0.001001  
3977.000000	0.001118  
3976.000000	0.001265  
3975.000000	0.001405  
3974.000000	0.001518  
3973.000000	0.001577  
3972.000000	0.001559  
3971.000000	0.001479  
3970.000000	0.001393  
3969.000000	0.001339  
3968.000000	0.001299  
3967.000000	0.001232  
3966.000000	0.001144  
3965.000000	0.001106  
3964.000000	0.001193  
3963.000000	0.001393  
3962.000000	0.001608  
3961.000000	0.001732  
3960.000000	0.001729  
3959.000000	0.001636  
3958.000000	0.001515  
3957.000000	0.001409  
3956.000000	0.001331  
3955.000000	0.001287  
3954.000000	0.001289  
3953.000000	0.001344  
3952.000000	0.001433  
3951.000000	0.001512  
3950.000000	0.001536  
3949.000000	0.001506  
3948.000000	0.001477  
3947.000000	0.001497  
3946.000000	0.001558  
3945.000000	0.001598  
3944.000000	0.001556  
3943.000000	0.001431  
3942.000000	0.001280  
3941.000000	0.001164  
3940.000000	0.001114  
3939.000000	0.001141  
3938.000000	0.001240  
3937.000000	0.001378  
3936.000000	0.001492  
3935.000000	0.001523  
3934.000000	0.001464  
3933.000000	0.001370  
3932.000000	0.001313  
3931.000000	0.001332  
3930.000000	0.001420  
3929.000000	0.001545  
3928.000000	0.001680  
3927.000000	0.001794  
3926.000000	0.001868  
3925.000000	0.001913  
3924.000000	0.001964  
3923.000000	0.002031  
3922.000000	0.002083  
3921.000000	0.002081  
3920.000000	0.002001  
3919.000000	0.001849  
3918.000000	0.001668  
3917.000000	0.001534  
3916.000000	0.001510  
3915.000000	0.001586  
3914.000000	0.001684  
3913.000000	0.001729  
3912.000000	0.001689  
3911.000000	0.001599  
3910.000000	0.001524  
3909.000000	0.001517  
3908.000000	0.001584  
3907.000000	0.001677  
3906.000000	0.001728  
3905.000000	0.001708  
3904.000000	0.001661  
3903.000000	0.001641  
3902.000000	0.001647  
3901.000000	0.001646  
3900.000000	0.001647  
3899.000000	0.001689  
3898.000000	0.001766  
3897.000000	0.001830  
3896.000000	0.001852  
3895.000000	0.001853  
3894.000000	0.001858  
3893.000000	0.001843  
3892.000000	0.001776  
3891.000000	0.001689  
3890.000000	0.001644  
3889.000000	0.001645  
3888.000000	0.001647  
3887.000000	0.001614  
3886.000000	0.001557  
3885.000000	0.001533  
3884.000000	0.001562  
3883.000000	0.001595  
3882.000000	0.001587  
3881.000000	0.001553  
3880.000000	0.001548  
3879.000000	0.001598  
3878.000000	0.001666  
3877.000000	0.001734  
3876.000000	0.001829  
3875.000000	0.001994  
3874.000000	0.002238  
3873.000000	0.002497  
3872.000000	0.002653  
3871.000000	0.002639  
3870.000000	0.002545  
3869.000000	0.002525  
3868.000000	0.002583  
3867.000000	0.002592  
3866.000000	0.002482  
3865.000000	0.002311  
3864.000000	0.002185  
3863.000000	0.002146  
3862.000000	0.002139  
3861.000000	0.002084  
3860.000000	0.001951  
3859.000000	0.001782  
3858.000000	0.001645  
3857.000000	0.001585  
3856.000000	0.001596  
3855.000000	0.001607  
3854.000000	0.001536  
3853.000000	0.001470  
3852.000000	0.001541  
3851.000000	0.001694  
3850.000000	0.001855  
3849.000000	0.002026  
3848.000000	0.002233  
3847.000000	0.002479  
3846.000000	0.002745  
3845.000000	0.003027  
3844.000000	0.003321  
3843.000000	0.003608  
3842.000000	0.003824  
3841.000000	0.003882  
3840.000000	0.003733  
3839.000000	0.003427  
3838.000000	0.003097  
3837.000000	0.002878  
3836.000000	0.002832  
3835.000000	0.002942  
3834.000000	0.003120  
3833.000000	0.003247  
3832.000000	0.003238  
3831.000000	0.003097  
3830.000000	0.002891  
3829.000000	0.002684  
3828.000000	0.002493  
3827.000000	0.002315  
3826.000000	0.002194  
3825.000000	0.002214  
3824.000000	0.002444  
3823.000000	0.002870  
3822.000000	0.003308  
3821.000000	0.003496  
3820.000000	0.003334  
3819.000000	0.002867  
3818.000000	0.002240  
3817.000000	0.001690  
3816.000000	0.001428  
3815.000000	0.001468  
3814.000000	0.001629  
3813.000000	0.001732  
3812.000000	0.001744  
3811.000000	0.001717  
3810.000000	0.001681  
3809.000000	0.001631  
3808.000000	0.001604  
3807.000000	0.001713  
3806.000000	0.002033  
3805.000000	0.002475  
3804.000000	0.002843  
3803.000000	0.002966  
3802.000000	0.002820  
3801.000000	0.002589  
3800.000000	0.002450  
3799.000000	0.002391  
3798.000000	0.002352  
3797.000000	0.002323  
3796.000000	0.002323  
3795.000000	0.002325  
3794.000000	0.002265  
3793.000000	0.002118  
3792.000000	0.001931  
3791.000000	0.001779  
3790.000000	0.001708  
3789.000000	0.001721  
3788.000000	0.001785  
3787.000000	0.001840  
3786.000000	0.001838  
3785.000000	0.001781  
3784.000000	0.001726  
3783.000000	0.001718  
3782.000000	0.001748  
3781.000000	0.001778  
3780.000000	0.001792  
3779.000000	0.001813  
3778.000000	0.001850  
3777.000000	0.001860  
3776.000000	0.001801  
3775.000000	0.001689  
3774.000000	0.001592  
3773.000000	0.001578  
3772.000000	0.001680  
3771.000000	0.001900  
3770.000000	0.002204  
3769.000000	0.002495  
3768.000000	0.002636  
3767.000000	0.002545  
3766.000000	0.002270  
3765.000000	0.001973  
3764.000000	0.001801  
3763.000000	0.001783  
3762.000000	0.001867  
3761.000000	0.002006  
3760.000000	0.002164  
3759.000000	0.002300  
3758.000000	0.002372  
3757.000000	0.002350  
3756.000000	0.002237  
3755.000000	0.002100  
3754.000000	0.002105  
3753.000000	0.002419  
3752.000000	0.002952  
3751.000000	0.003309  
3750.000000	0.003232  
3749.000000	0.002886  
3748.000000	0.002570  
3747.000000	0.002425  
3746.000000	0.002437  
3745.000000	0.002519  
3744.000000	0.002615  
3743.000000	0.002691  
3742.000000	0.002705  
3741.000000	0.002693  
3740.000000	0.002777  
3739.000000	0.003033  
3738.000000	0.003375  
3737.000000	0.003596  
3736.000000	0.003596  
3735.000000	0.003502  
3734.000000	0.003470  
3733.000000	0.003460  
3732.000000	0.003360  
3731.000000	0.003154  
3730.000000	0.002899  
3729.000000	0.002638  
3728.000000	0.002381  
3727.000000	0.002152  
3726.000000	0.001999  
3725.000000	0.001946  
3724.000000	0.001958  
3723.000000	0.001972  
3722.000000	0.001928  
3721.000000	0.001796  
3720.000000	0.001591  
3719.000000	0.001381  
3718.000000	0.001242  
3717.000000	0.001206  
3716.000000	0.001225  
3715.000000	0.001207  
3714.000000	0.001120  
3713.000000	0.001048  
3712.000000	0.001120  
3711.000000	0.001361  
3710.000000	0.001635  
3709.000000	0.001794  
3708.000000	0.001850  
3707.000000	0.001933  
3706.000000	0.002125  
3705.000000	0.002354  
3704.000000	0.002447  
3703.000000	0.002290  
3702.000000	0.001952  
3701.000000	0.001632  
3700.000000	0.001452  
3699.000000	0.001391  
3698.000000	0.001376  
3697.000000	0.001376  
3696.000000	0.001413  
3695.000000	0.001503  
3694.000000	0.001636  
3693.000000	0.001775  
3692.000000	0.001860  
3691.000000	0.001852  
3690.000000	0.001797  
3689.000000	0.001800  
3688.000000	0.001877  
3687.000000	0.001921  
3686.000000	0.001848  
3685.000000	0.001691  
3684.000000	0.001578  
3683.000000	0.001606  
3682.000000	0.001727  
3681.000000	0.001793  
3680.000000	0.001724  
3679.000000	0.001595  
3678.000000	0.001564  
3677.000000	0.001742  
3676.000000	0.002095  
3675.000000	0.002480  
3674.000000	0.002746  
3673.000000	0.002805  
3672.000000	0.002717  
3671.000000	0.002623  
3670.000000	0.002607  
3669.000000	0.002640  
3668.000000	0.002604  
3667.000000	0.002422  
3666.000000	0.002130  
3665.000000	0.001806  
3664.000000	0.001485  
3663.000000	0.001164  
3662.000000	0.000849  
3661.000000	0.000586  
3660.000000	0.000447  
3659.000000	0.000489  
3658.000000	0.000739  
3657.000000	0.001165  
3656.000000	0.001677  
3655.000000	0.002161  
3654.000000	0.002515  
3653.000000	0.002673  
3652.000000	0.002629  
3651.000000	0.002426  
3650.000000	0.002169  
3649.000000	0.001996  
3648.000000	0.001975  
3647.000000	0.002039  
3646.000000	0.002086  
3645.000000	0.002063  
3644.000000	0.001995  
3643.000000	0.001961  
3642.000000	0.002020  
3641.000000	0.002147  
3640.000000	0.002223  
3639.000000	0.002146  
3638.000000	0.001943  
3637.000000	0.001745  
3636.000000	0.001680  
3635.000000	0.001777  
3634.000000	0.001965  
3633.000000	0.002126  
3632.000000	0.002161  
3631.000000	0.002058  
3630.000000	0.001910  
3629.000000	0.001854  
3628.000000	0.001933  
3627.000000	0.002017  
3626.000000	0.002000  
3625.000000	0.001940  
3624.000000	0.001953  
3623.000000	0.002062  
3622.000000	0.002171  
3621.000000	0.002164  
3620.000000	0.002025  
3619.000000	0.001866  
3618.000000	0.001792  
3617.000000	0.001794  
3616.000000	0.001803  
3615.000000	0.001795  
3614.000000	0.001806  
3613.000000	0.001880  
3612.000000	0.002005  
3611.000000	0.002119  
3610.000000	0.002177  
3609.000000	0.002165  
3608.000000	0.002074  
3607.000000	0.001894  
3606.000000	0.001633  
3605.000000	0.001350  
3604.000000	0.001153  
3603.000000	0.001128  
3602.000000	0.001293  
3601.000000	0.001592  
3600.000000	0.001937  
3599.000000	0.002226  
3598.000000	0.002362  
3597.000000	0.002301  
3596.000000	0.002086  
3595.000000	0.001847  
3594.000000	0.001706  
3593.000000	0.001674  
3592.000000	0.001657  
3591.000000	0.001578  
3590.000000	0.001455  
3589.000000	0.001394  
3588.000000	0.001491  
3587.000000	0.001739  
3586.000000	0.002015  
3585.000000	0.002165  
3584.000000	0.002112  
3583.000000	0.001899  
3582.000000	0.001652  
3581.000000	0.001513  
3580.000000	0.001546  
3579.000000	0.001675  
3578.000000	0.001743  
3577.000000	0.001661  
3576.000000	0.001480  
3575.000000	0.001305  
3574.000000	0.001173  
3573.000000	0.001042  
3572.000000	0.000887  
3571.000000	0.000767  
3570.000000	0.000764  
3569.000000	0.000884  
3568.000000	0.001010  
3567.000000	0.001034  
3566.000000	0.001001  
3565.000000	0.001026  
3564.000000	0.001152  
3563.000000	0.001332  
3562.000000	0.001482  
3561.000000	0.001556  
3560.000000	0.001595  
3559.000000	0.001676  
3558.000000	0.001805  
3557.000000	0.001890  
3556.000000	0.001831  
3555.000000	0.001619  
3554.000000	0.001350  
3553.000000	0.001142  
3552.000000	0.001054  
3551.000000	0.001057  
3550.000000	0.001074  
3549.000000	0.001036  
3548.000000	0.000921  
3547.000000	0.000779  
3546.000000	0.000712  
3545.000000	0.000799  
3544.000000	0.001013  
3543.000000	0.001257  
3542.000000	0.001454  
3541.000000	0.001588  
3540.000000	0.001664  
3539.000000	0.001656  
3538.000000	0.001527  
3537.000000	0.001295  
3536.000000	0.001064  
3535.000000	0.000951  
3534.000000	0.000998  
3533.000000	0.001168  
3532.000000	0.001398  
3531.000000	0.001632  
3530.000000	0.001810  
3529.000000	0.001852  
3528.000000	0.001709  
3527.000000	0.001405  
3526.000000	0.001030  
3525.000000	0.000692  
3524.000000	0.000485  
3523.000000	0.000462  
3522.000000	0.000619  
3521.000000	0.000875  
3520.000000	0.001121  
3519.000000	0.001277  
3518.000000	0.001330  
3517.000000	0.001317  
3516.000000	0.001295  
3515.000000	0.001313  
3514.000000	0.001395  
3513.000000	0.001516  
3512.000000	0.001607  
3511.000000	0.001613  
3510.000000	0.001544  
3509.000000	0.001458  
3508.000000	0.001402  
3507.000000	0.001377  
3506.000000	0.001370  
3505.000000	0.001377  
3504.000000	0.001406  
3503.000000	0.001466  
3502.000000	0.001546  
3501.000000	0.001611  
3500.000000	0.001614  
3499.000000	0.001549  
3498.000000	0.001471  
3497.000000	0.001449  
3496.000000	0.001501  
3495.000000	0.001578  
3494.000000	0.001613  
3493.000000	0.001557  
3492.000000	0.001403  
3491.000000	0.001194  
3490.000000	0.001018  
3489.000000	0.000958  
3488.000000	0.001035  
3487.000000	0.001205  
3486.000000	0.001414  
3485.000000	0.001620  
3484.000000	0.001764  
3483.000000	0.001780  
3482.000000	0.001658  
3481.000000	0.001480  
3480.000000	0.001355  
3479.000000	0.001323  
3478.000000	0.001356  
3477.000000	0.001403  
3476.000000	0.001430  
3475.000000	0.001417  
3474.000000	0.001371  
3473.000000	0.001312  
3472.000000	0.001259  
3471.000000	0.001209  
3470.000000	0.001154  
3469.000000	0.001093  
3468.000000	0.001038  
3467.000000	0.000998  
3466.000000	0.000977  
3465.000000	0.000960  
3464.000000	0.000906  
3463.000000	0.000778  
3462.000000	0.000608  
3461.000000	0.000498  
3460.000000	0.000525  
3459.000000	0.000667  
3458.000000	0.000841  
3457.000000	0.000991  
3456.000000	0.001104  
3455.000000	0.001174  
3454.000000	0.001196  
3453.000000	0.001200  
3452.000000	0.001247  
3451.000000	0.001359  
3450.000000	0.001494  
3449.000000	0.001596  
3448.000000	0.001655  
3447.000000	0.001699  
3446.000000	0.001749  
3445.000000	0.001797  
3444.000000	0.001825  
3443.000000	0.001815  
3442.000000	0.001759  
3441.000000	0.001688  
3440.000000	0.001666  
3439.000000	0.001738  
3438.000000	0.001858  
3437.000000	0.001903  
3436.000000	0.001756  
3435.000000	0.001425  
3434.000000	0.001071  
3433.000000	0.000904  
3432.000000	0.001010  
3431.000000	0.001280  
3430.000000	0.001501  
3429.000000	0.001533  
3428.000000	0.001384  
3427.000000	0.001152  
3426.000000	0.000947  
3425.000000	0.000843  
3424.000000	0.000866  
3423.000000	0.000980  
3422.000000	0.001116  
3421.000000	0.001221  
3420.000000	0.001288  
3419.000000	0.001326  
3418.000000	0.001336  
3417.000000	0.001328  
3416.000000	0.001338  
3415.000000	0.001389  
3414.000000	0.001477  
3413.000000	0.001584  
3412.000000	0.001703  
3411.000000	0.001811  
3410.000000	0.001833  
3409.000000	0.001691  
3408.000000	0.001379  
3407.000000	0.000996  
3406.000000	0.000696  
3405.000000	0.000581  
3404.000000	0.000650  
3403.000000	0.000825  
3402.000000	0.001028  
3401.000000	0.001228  
3400.000000	0.001401  
3399.000000	0.001488  
3398.000000	0.001438  
3397.000000	0.001304  
3396.000000	0.001225  
3395.000000	0.001298  
3394.000000	0.001480  
3393.000000	0.001644  
3392.000000	0.001696  
3391.000000	0.001641  
3390.000000	0.001538  
3389.000000	0.001446  
3388.000000	0.001383  
3387.000000	0.001308  
3386.000000	0.001168  
3385.000000	0.000985  
3384.000000	0.000874  
3383.000000	0.000937  
3382.000000	0.001153  
3381.000000	0.001403  
3380.000000	0.001584  
3379.000000	0.001661  
3378.000000	0.001620  
3377.000000	0.001444  
3376.000000	0.001163  
3375.000000	0.000898  
3374.000000	0.000794  
3373.000000	0.000898  
3372.000000	0.001113  
3371.000000	0.001292  
3370.000000	0.001365  
3369.000000	0.001381  
3368.000000	0.001425  
3367.000000	0.001527  
3366.000000	0.001652  
3365.000000	0.001754  
3364.000000	0.001806  
3363.000000	0.001778  
3362.000000	0.001669  
3361.000000	0.001547  
3360.000000	0.001513  
3359.000000	0.001586  
3358.000000	0.001659  
3357.000000	0.001622  
3356.000000	0.001498  
3355.000000	0.001407  
3354.000000	0.001410  
3353.000000	0.001449  
3352.000000	0.001441  
3351.000000	0.001365  
3350.000000	0.001253  
3349.000000	0.001140  
3348.000000	0.001073  
3347.000000	0.001103  
3346.000000	0.001246  
3345.000000	0.001441  
3344.000000	0.001591  
3343.000000	0.001641  
3342.000000	0.001610  
3341.000000	0.001545  
3340.000000	0.001465  
3339.000000	0.001351  
3338.000000	0.001194  
3337.000000	0.001037  
3336.000000	0.000953  
3335.000000	0.000973  
3334.000000	0.001058  
3333.000000	0.001149  
3332.000000	0.001227  
3331.000000	0.001302  
3330.000000	0.001376  
3329.000000	0.001436  
3328.000000	0.001477  
3327.000000	0.001502  
3326.000000	0.001505  
3325.000000	0.001481  
3324.000000	0.001466  
3323.000000	0.001507  
3322.000000	0.001599  
3321.000000	0.001680  
3320.000000	0.001702  
3319.000000	0.001693  
3318.000000	0.001713  
3317.000000	0.001766  
3316.000000	0.001793  
3315.000000	0.001736  
3314.000000	0.001599  
3313.000000	0.001453  
3312.000000	0.001390  
3311.000000	0.001457  
3310.000000	0.001617  
3309.000000	0.001746  
3308.000000	0.001708  
3307.000000	0.001468  
3306.000000	0.001153  
3305.000000	0.000985  
3304.000000	0.001101  
3303.000000	0.001425  
3302.000000	0.001735  
3301.000000	0.001862  
3300.000000	0.001810  
3299.000000	0.001682  
3298.000000	0.001551  
3297.000000	0.001435  
3296.000000	0.001354  
3295.000000	0.001337  
3294.000000	0.001383  
3293.000000	0.001467  
3292.000000	0.001585  
3291.000000	0.001738  
3290.000000	0.001865  
3289.000000	0.001864  
3288.000000	0.001699  
3287.000000	0.001460  
3286.000000	0.001268  
3285.000000	0.001157  
3284.000000	0.001086  
3283.000000	0.001026  
3282.000000	0.000998  
3281.000000	0.001022  
3280.000000	0.001084  
3279.000000	0.001156  
3278.000000	0.001234  
3277.000000	0.001334  
3276.000000	0.001465  
3275.000000	0.001618  
3274.000000	0.001770  
3273.000000	0.001892  
3272.000000	0.001952  
3271.000000	0.001917  
3270.000000	0.001779  
3269.000000	0.001565  
3268.000000	0.001334  
3267.000000	0.001130  
3266.000000	0.000985  
3265.000000	0.000944  
3264.000000	0.001058  
3263.000000	0.001310  
3262.000000	0.001582  
3261.000000	0.001752  
3260.000000	0.001818  
3259.000000	0.001884  
3258.000000	0.002017  
3257.000000	0.002145  
3256.000000	0.002148  
3255.000000	0.002001  
3254.000000	0.001820  
3253.000000	0.001763  
3252.000000	0.001878  
3251.000000	0.002053  
3250.000000	0.002122  
3249.000000	0.002030  
3248.000000	0.001894  
3247.000000	0.001855  
3246.000000	0.001905  
3245.000000	0.001922  
3244.000000	0.001860  
3243.000000	0.001812  
3242.000000	0.001874  
3241.000000	0.002003  
3240.000000	0.002067  
3239.000000	0.001985  
3238.000000	0.001776  
3237.000000	0.001513  
3236.000000	0.001284  
3235.000000	0.001160  
3234.000000	0.001153  
3233.000000	0.001215  
3232.000000	0.001298  
3231.000000	0.001399  
3230.000000	0.001513  
3229.000000	0.001601  
3228.000000	0.001629  
3227.000000	0.001633  
3226.000000	0.001684  
3225.000000	0.001802  
3224.000000	0.001947  
3223.000000	0.002068  
3222.000000	0.002119  
3221.000000	0.002055  
3220.000000	0.001877  
3219.000000	0.001668  
3218.000000	0.001545  
3217.000000	0.001550  
3216.000000	0.001636  
3215.000000	0.001740  
3214.000000	0.001838  
3213.000000	0.001925  
3212.000000	0.001989  
3211.000000	0.002037  
3210.000000	0.002090  
3209.000000	0.002152  
3208.000000	0.002206  
3207.000000	0.002246  
3206.000000	0.002296  
3205.000000	0.002381  
3204.000000	0.002499  
3203.000000	0.002619  
3202.000000	0.002689  
3201.000000	0.002649  
3200.000000	0.002467  
3199.000000	0.002191  
3198.000000	0.001912  
3197.000000	0.001695  
3196.000000	0.001538  
3195.000000	0.001427  
3194.000000	0.001373  
3193.000000	0.001382  
3192.000000	0.001436  
3191.000000	0.001522  
3190.000000	0.001658  
3189.000000	0.001859  
3188.000000	0.002082  
3187.000000	0.002248  
3186.000000	0.002315  
3185.000000	0.002315  
3184.000000	0.002298  
3183.000000	0.002282  
3182.000000	0.002249  
3181.000000	0.002183  
3180.000000	0.002082  
3179.000000	0.001952  
3178.000000	0.001814  
3177.000000	0.001727  
3176.000000	0.001769  
3175.000000	0.001956  
3174.000000	0.002199  
3173.000000	0.002358  
3172.000000	0.002359  
3171.000000	0.002237  
3170.000000	0.002086  
3169.000000	0.001983  
3168.000000	0.001962  
3167.000000	0.002014  
3166.000000	0.002094  
3165.000000	0.002139  
3164.000000	0.002128  
3163.000000	0.002090  
3162.000000	0.002064  
3161.000000	0.002056  
3160.000000	0.002063  
3159.000000	0.002109  
3158.000000	0.002218  
3157.000000	0.002363  
3156.000000	0.002482  
3155.000000	0.002539  
3154.000000	0.002568  
3153.000000	0.002614  
3152.000000	0.002672  
3151.000000	0.002671  
3150.000000	0.002545  
3149.000000	0.002305  
3148.000000	0.002050  
3147.000000	0.001880  
3146.000000	0.001817  
3145.000000	0.001814  
3144.000000	0.001841  
3143.000000	0.001904  
3142.000000	0.001987  
3141.000000	0.002030  
3140.000000	0.002010  
3139.000000	0.001995  
3138.000000	0.002074  
3137.000000	0.002243  
3136.000000	0.002400  
3135.000000	0.002450  
3134.000000	0.002374  
3133.000000	0.002226  
3132.000000	0.002102  
3131.000000	0.002092  
3130.000000	0.002214  
3129.000000	0.002379  
3128.000000	0.002457  
3127.000000	0.002399  
3126.000000	0.002259  
3125.000000	0.002121  
3124.000000	0.002038  
3123.000000	0.002049  
3122.000000	0.002171  
3121.000000	0.002359  
3120.000000	0.002505  
3119.000000	0.002511  
3118.000000	0.002371  
3117.000000	0.002172  
3116.000000	0.002028  
3115.000000	0.002012  
3114.000000	0.002116  
3113.000000	0.002262  
3112.000000	0.002374  
3111.000000	0.002432  
3110.000000	0.002464  
3109.000000	0.002476  
3108.000000	0.002440  
3107.000000	0.002341  
3106.000000	0.002214  
3105.000000	0.002118  
3104.000000	0.002109  
3103.000000	0.002220  
3102.000000	0.002428  
3101.000000	0.002629  
3100.000000	0.002693  
3099.000000	0.002575  
3098.000000	0.002350  
3097.000000	0.002148  
3096.000000	0.002058  
3095.000000	0.002099  
3094.000000	0.002233  
3093.000000	0.002394  
3092.000000	0.002520  
3091.000000	0.002594  
3090.000000	0.002638  
3089.000000	0.002668  
3088.000000	0.002684  
3087.000000	0.002694  
3086.000000	0.002729  
3085.000000	0.002785  
3084.000000	0.002810  
3083.000000	0.002769  
3082.000000	0.002712  
3081.000000	0.002729  
3080.000000	0.002855  
3079.000000	0.003031  
3078.000000	0.003175  
3077.000000	0.003247  
3076.000000	0.003252  
3075.000000	0.003210  
3074.000000	0.003135  
3073.000000	0.003046  
3072.000000	0.002987  
3071.000000	0.003014  
3070.000000	0.003141  
3069.000000	0.003303  
3068.000000	0.003395  
3067.000000	0.003373  
3066.000000	0.003306  
3065.000000	0.003310  
3064.000000	0.003445  
3063.000000	0.003662  
3062.000000	0.003849  
3061.000000	0.003906  
3060.000000	0.003823  
3059.000000	0.003676  
3058.000000	0.003560  
3057.000000	0.003510  
3056.000000	0.003507  
3055.000000	0.003544  
3054.000000	0.003639  
3053.000000	0.003761  
3052.000000	0.003822  
3051.000000	0.003768  
3050.000000	0.003668  
3049.000000	0.003653  
3048.000000	0.003780  
3047.000000	0.003992  
3046.000000	0.004192  
3045.000000	0.004324  
3044.000000	0.004368  
3043.000000	0.004327  
3042.000000	0.004230  
3041.000000	0.004141  
3040.000000	0.004122  
3039.000000	0.004191  
3038.000000	0.004305  
3037.000000	0.004397  
3036.000000	0.004429  
3035.000000	0.004409  
3034.000000	0.004366  
3033.000000	0.004338  
3032.000000	0.004369  
3031.000000	0.004509  
3030.000000	0.004763  
3029.000000	0.005054  
3028.000000	0.005260  
3027.000000	0.005330  
3026.000000	0.005328  
3025.000000	0.005363  
3024.000000	0.005489  
3023.000000	0.005691  
3022.000000	0.005912  
3021.000000	0.006071  
3020.000000	0.006087  
3019.000000	0.005964  
3018.000000	0.005829  
3017.000000	0.005834  
3016.000000	0.006013  
3015.000000	0.006277  
3014.000000	0.006526  
3013.000000	0.006732  
3012.000000	0.006891  
3011.000000	0.006989  
3010.000000	0.007026  
3009.000000	0.007059  
3008.000000	0.007162  
3007.000000	0.007365  
3006.000000	0.007638  
3005.000000	0.007904  
3004.000000	0.008065  
3003.000000	0.008068  
3002.000000	0.007969  
3001.000000	0.007921  
3000.000000	0.008053  
2999.000000	0.008358  
2998.000000	0.008713  
2997.000000	0.009001  
2996.000000	0.009193  
2995.000000	0.009341  
2994.000000	0.009528  
2993.000000	0.009832  
2992.000000	0.010291  
2991.000000	0.010882  
2990.000000	0.011528  
2989.000000	0.012154  
2988.000000	0.012742  
2987.000000	0.013334  
2986.000000	0.014002  
2985.000000	0.014796  
2984.000000	0.015731  
2983.000000	0.016805  
2982.000000	0.018030  
2981.000000	0.019421  
2980.000000	0.020977  
2979.000000	0.022677  
2978.000000	0.024538  
2977.000000	0.026649  
2976.000000	0.029124  
2975.000000	0.032028  
2974.000000	0.035347  
2973.000000	0.039023  
2972.000000	0.042991  
2971.000000	0.047215  
2970.000000	0.051722  
2969.000000	0.056614  
2968.000000	0.061966  
2967.000000	0.067692  
2966.000000	0.073539  
2965.000000	0.079255  
2964.000000	0.084756  
2963.000000	0.090084  
2962.000000	0.095258  
2961.000000	0.100223  
2960.000000	0.104904  
2959.000000	0.109211  
2958.000000	0.112986  
2957.000000	0.116028  
2956.000000	0.118202  
2955.000000	0.119475  
2954.000000	0.119839  
2953.000000	0.119274  
2952.000000	0.117825  
2951.000000	0.115678  
2950.000000	0.113112  
2949.000000	0.110404  
2948.000000	0.107780  
2947.000000	0.105420  
2946.000000	0.103501  
2945.000000	0.102222  
2944.000000	0.101804  
2943.000000	0.102407  
2942.000000	0.104051  
2941.000000	0.106626  
2940.000000	0.110009  
2939.000000	0.114169  
2938.000000	0.119137  
2937.000000	0.124900  
2936.000000	0.131324  
2935.000000	0.138165  
2934.000000	0.145186  
2933.000000	0.152315  
2932.000000	0.159690  
2931.000000	0.167494  
2930.000000	0.175698  
2929.000000	0.184004  
2928.000000	0.192010  
2927.000000	0.199380  
2926.000000	0.205858  
2925.000000	0.211240  
2924.000000	0.215378  
2923.000000	0.218141  
2922.000000	0.219365  
2921.000000	0.218943  
2920.000000	0.217004  
2919.000000	0.213886  
2918.000000	0.209898  
2917.000000	0.205205  
2916.000000	0.199956  
2915.000000	0.194403  
2914.000000	0.188799  
2913.000000	0.183272  
2912.000000	0.177872  
2911.000000	0.172682  
2910.000000	0.167800  
2909.000000	0.163219  
2908.000000	0.158803  
2907.000000	0.154414  
2906.000000	0.150010  
2905.000000	0.145637  
2904.000000	0.141367  
2903.000000	0.137262  
2902.000000	0.133349  
2901.000000	0.129586  
2900.000000	0.125876  
2899.000000	0.122127  
2898.000000	0.118323  
2897.000000	0.114537  
2896.000000	0.110876  
2895.000000	0.107404  
2894.000000	0.104095  
2893.000000	0.100833  
2892.000000	0.097488  
2891.000000	0.094026  
2890.000000	0.090561  
2889.000000	0.087308  
2888.000000	0.084457  
2887.000000	0.082074  
2886.000000	0.080115  
2885.000000	0.078518  
2884.000000	0.077284  
2883.000000	0.076479  
2882.000000	0.076181  
2881.000000	0.076447  
2880.000000	0.077334  
2879.000000	0.078929  
2878.000000	0.081294  
2877.000000	0.084357  
2876.000000	0.087867  
2875.000000	0.091459  
2874.000000	0.094780  
2873.000000	0.097553  
2872.000000	0.099588  
2871.000000	0.100808  
2870.000000	0.101287  
2869.000000	0.101273  
2868.000000	0.101115  
2867.000000	0.101148  
2866.000000	0.101616  
2865.000000	0.102685  
2864.000000	0.104468  
2863.000000	0.107001  
2862.000000	0.110221  
2861.000000	0.113991  
2860.000000	0.118182  
2859.000000	0.122686  
2858.000000	0.127349  
2857.000000	0.131900  
2856.000000	0.135928  
2855.000000	0.138932  
2854.000000	0.140408  
2853.000000	0.140003  
2852.000000	0.137666  
2851.000000	0.133649  
2850.000000	0.128349  
2849.000000	0.122149  
2848.000000	0.115376  
2847.000000	0.108321  
2846.000000	0.101230  
2845.000000	0.094245  
2844.000000	0.087373  
2843.000000	0.080575  
2842.000000	0.073890  
2841.000000	0.067454  
2840.000000	0.061410  
2839.000000	0.055829  
2838.000000	0.050739  
2837.000000	0.046171  
2836.000000	0.042138  
2835.000000	0.038568  
2834.000000	0.035330  
2833.000000	0.032337  
2832.000000	0.029618  
2831.000000	0.027263  
2830.000000	0.025319  
2829.000000	0.023734  
2828.000000	0.022386  
2827.000000	0.021156  
2826.000000	0.019985  
2825.000000	0.018877  
2824.000000	0.017864  
2823.000000	0.016968  
2822.000000	0.016191  
2821.000000	0.015522  
2820.000000	0.014935  
2819.000000	0.014402  
2818.000000	0.013904  
2817.000000	0.013437  
2816.000000	0.013003  
2815.000000	0.012593  
2814.000000	0.012184  
2813.000000	0.011751  
2812.000000	0.011287  
2811.000000	0.010811  
2810.000000	0.010374  
2809.000000	0.010043  
2808.000000	0.009855  
2807.000000	0.009779  
2806.000000	0.009735  
2805.000000	0.009639  
2804.000000	0.009455  
2803.000000	0.009194  
2802.000000	0.008890  
2801.000000	0.008588  
2800.000000	0.008334  
2799.000000	0.008149  
2798.000000	0.008024  
2797.000000	0.007936  
2796.000000	0.007872  
2795.000000	0.007815  
2794.000000	0.007711  
2793.000000	0.007483  
2792.000000	0.007102  
2791.000000	0.006652  
2790.000000	0.006293  
2789.000000	0.006134  
2788.000000	0.006151  
2787.000000	0.006222  
2786.000000	0.006233  
2785.000000	0.006154  
2784.000000	0.006015  
2783.000000	0.005860  
2782.000000	0.005718  
2781.000000	0.005615  
2780.000000	0.005567  
2779.000000	0.005563  
2778.000000	0.005551  
2777.000000	0.005468  
2776.000000	0.005289  
2775.000000	0.005055  
2774.000000	0.004850  
2773.000000	0.004741  
2772.000000	0.004733  
2771.000000	0.004780  
2770.000000	0.004825  
2769.000000	0.004834  
2768.000000	0.004795  
2767.000000	0.004703  
2766.000000	0.004580  
2765.000000	0.004485  
2764.000000	0.004481  
2763.000000	0.004571  
2762.000000	0.004678  
2761.000000	0.004707  
2760.000000	0.004619  
2759.000000	0.004463  
2758.000000	0.004322  
2757.000000	0.004254  
2756.000000	0.004263  
2755.000000	0.004318  
2754.000000	0.004375  
2753.000000	0.004403  
2752.000000	0.004392  
2751.000000	0.004353  
2750.000000	0.004317  
2749.000000	0.004308  
2748.000000	0.004320  
2747.000000	0.004313  
2746.000000	0.004254  
2745.000000	0.004168  
2744.000000	0.004118  
2743.000000	0.004144  
2742.000000	0.004222  
2741.000000	0.004311  
2740.000000	0.004403  
2739.000000	0.004511  
2738.000000	0.004622  
2737.000000	0.004709  
2736.000000	0.004783  
2735.000000	0.004889  
2734.000000	0.005043  
2733.000000	0.005194  
2732.000000	0.005266  
2731.000000	0.005234  
2730.000000	0.005144  
2729.000000	0.005074  
2728.000000	0.005075  
2727.000000	0.005128  
2726.000000	0.005159  
2725.000000	0.005106  
2724.000000	0.004989  
2723.000000	0.004888  
2722.000000	0.004856  
2721.000000	0.004870  
2720.000000	0.004885  
2719.000000	0.004884  
2718.000000	0.004873  
2717.000000	0.004850  
2716.000000	0.004811  
2715.000000	0.004764  
2714.000000	0.004694  
2713.000000	0.004568  
2712.000000	0.004389  
2711.000000	0.004230  
2710.000000	0.004164  
2709.000000	0.004174  
2708.000000	0.004181  
2707.000000	0.004155  
2706.000000	0.004128  
2705.000000	0.004111  
2704.000000	0.004047  
2703.000000	0.003900  
2702.000000	0.003716  
2701.000000	0.003573  
2700.000000	0.003495  
2699.000000	0.003455  
2698.000000	0.003449  
2697.000000	0.003509  
2696.000000	0.003646  
2695.000000	0.003814  
2694.000000	0.003944  
2693.000000	0.003993  
2692.000000	0.003965  
2691.000000	0.003903  
2690.000000	0.003874  
2689.000000	0.003942  
2688.000000	0.004108  
2687.000000	0.004295  
2686.000000	0.004407  
2685.000000	0.004414  
2684.000000	0.004373  
2683.000000	0.004361  
2682.000000	0.004405  
2681.000000	0.004467  
2680.000000	0.004497  
2679.000000	0.004481  
2678.000000	0.004447  
2677.000000	0.004450  
2676.000000	0.004537  
2675.000000	0.004704  
2674.000000	0.004879  
2673.000000	0.004963  
2672.000000	0.004910  
2671.000000	0.004766  
2670.000000	0.004616  
2669.000000	0.004524  
2668.000000	0.004515  
2667.000000	0.004598  
2666.000000	0.004749  
2665.000000	0.004899  
2664.000000	0.004966  
2663.000000	0.004910  
2662.000000	0.004753  
2661.000000	0.004545  
2660.000000	0.004342  
2659.000000	0.004185  
2658.000000	0.004079  
2657.000000	0.004003  
2656.000000	0.003942  
2655.000000	0.003921  
2654.000000	0.003949  
2653.000000	0.003976  
2652.000000	0.003945  
2651.000000	0.003882  
2650.000000	0.003884  
2649.000000	0.003993  
2648.000000	0.004135  
2647.000000	0.004200  
2646.000000	0.004147  
2645.000000	0.004011  
2644.000000	0.003857  
2643.000000	0.003760  
2642.000000	0.003774  
2641.000000	0.003887  
2640.000000	0.003997  
2639.000000	0.004002  
2638.000000	0.003885  
2637.000000	0.003719  
2636.000000	0.003589  
2635.000000	0.003549  
2634.000000	0.003618  
2633.000000	0.003774  
2632.000000	0.003947  
2631.000000	0.004055  
2630.000000	0.004062  
2629.000000	0.003993  
2628.000000	0.003908  
2627.000000	0.003870  
2626.000000	0.003906  
2625.000000	0.003969  
2624.000000	0.003964  
2623.000000	0.003836  
2622.000000	0.003644  
2621.000000	0.003492  
2620.000000	0.003418  
2619.000000	0.003375  
2618.000000	0.003313  
2617.000000	0.003255  
2616.000000	0.003254  
2615.000000	0.003338  
2614.000000	0.003483  
2613.000000	0.003633  
2612.000000	0.003739  
2611.000000	0.003784  
2610.000000	0.003799  
2609.000000	0.003820  
2608.000000	0.003852  
2607.000000	0.003874  
2606.000000	0.003879  
2605.000000	0.003872  
2604.000000	0.003846  
2603.000000	0.003786  
2602.000000	0.003716  
2601.000000	0.003703  
2600.000000	0.003786  
2599.000000	0.003903  
2598.000000	0.003936  
2597.000000	0.003819  
2596.000000	0.003597  
2595.000000	0.003375  
2594.000000	0.003211  
2593.000000	0.003073  
2592.000000	0.002909  
2591.000000	0.002734  
2590.000000	0.002623  
2589.000000	0.002619  
2588.000000	0.002676  
2587.000000	0.002731  
2586.000000	0.002774  
2585.000000	0.002832  
2584.000000	0.002891  
2583.000000	0.002906  
2582.000000	0.002859  
2581.000000	0.002797  
2580.000000	0.002770  
2579.000000	0.002797  
2578.000000	0.002870  
2577.000000	0.002972  
2576.000000	0.003062  
2575.000000	0.003075  
2574.000000	0.002978  
2573.000000	0.002818  
2572.000000	0.002675  
2571.000000	0.002577  
2570.000000	0.002488  
2569.000000	0.002375  
2568.000000	0.002267  
2567.000000	0.002216  
2566.000000	0.002237  
2565.000000	0.002286  
2564.000000	0.002309  
2563.000000	0.002297  
2562.000000	0.002284  
2561.000000	0.002304  
2560.000000	0.002347  
2559.000000	0.002369  
2558.000000	0.002346  
2557.000000	0.002314  
2556.000000	0.002338  
2555.000000	0.002431  
2554.000000	0.002525  
2553.000000	0.002567  
2552.000000	0.002607  
2551.000000	0.002752  
2550.000000	0.003010  
2549.000000	0.003238  
2548.000000	0.003275  
2547.000000	0.003095  
2546.000000	0.002793  
2545.000000	0.002469  
2544.000000	0.002194  
2543.000000	0.002038  
2542.000000	0.002040  
2541.000000	0.002135  
2540.000000	0.002191  
2539.000000	0.002169  
2538.000000	0.002172  
2537.000000	0.002294  
2536.000000	0.002467  
2535.000000	0.002534  
2534.000000	0.002427  
2533.000000	0.002227  
2532.000000	0.002049  
2531.000000	0.001920  
2530.000000	0.001787  
2529.000000	0.001613  
2528.000000	0.001447  
2527.000000	0.001400  
2526.000000	0.001546  
2525.000000	0.001842  
2524.000000	0.002164  
2523.000000	0.002419  
2522.000000	0.002581  
2521.000000	0.002633  
2520.000000	0.002542  
2519.000000	0.002335  
2518.000000	0.002144  
2517.000000	0.002099  
2516.000000	0.002197  
2515.000000	0.002317  
2514.000000	0.002370  
2513.000000	0.002367  
2512.000000	0.002366  
2511.000000	0.002394  
2510.000000	0.002429  
2509.000000	0.002436  
2508.000000	0.002395  
2507.000000	0.002336  
2506.000000	0.002321  
2505.000000	0.002374  
2504.000000	0.002430  
2503.000000	0.002401  
2502.000000	0.002299  
2501.000000	0.002244  
2500.000000	0.002328  
2499.000000	0.002489  
2498.000000	0.002550  
2497.000000	0.002359  
2496.000000	0.001926  
2495.000000	0.001433  
2494.000000	0.001124  
2493.000000	0.001140  
2492.000000	0.001441  
2491.000000	0.001862  
2490.000000	0.002244  
2489.000000	0.002497  
2488.000000	0.002578  
2487.000000	0.002485  
2486.000000	0.002260  
2485.000000	0.001987  
2484.000000	0.001747  
2483.000000	0.001604  
2482.000000	0.001613  
2481.000000	0.001790  
2480.000000	0.002074  
2479.000000	0.002333  
2478.000000	0.002453  
2477.000000	0.002421  
2476.000000	0.002301  
2475.000000	0.002164  
2474.000000	0.002039  
2473.000000	0.001935  
2472.000000	0.001870  
2471.000000	0.001852  
2470.000000	0.001844  
2469.000000	0.001789  
2468.000000	0.001699  
2467.000000	0.001678  
2466.000000	0.001825  
2465.000000	0.002085  
2464.000000	0.002272  
2463.000000	0.002260  
2462.000000	0.002105  
2461.000000	0.001956  
2460.000000	0.001892  
2459.000000	0.001907  
2458.000000	0.001991  
2457.000000	0.002132  
2456.000000	0.002247  
2455.000000	0.002219  
2454.000000	0.002039  
2453.000000	0.001838  
2452.000000	0.001722  
2451.000000	0.001657  
2450.000000	0.001556  
2449.000000	0.001444  
2448.000000	0.001446  
2447.000000	0.001621  
2446.000000	0.001872  
2445.000000	0.002048  
2444.000000	0.002082  
2443.000000	0.002030  
2442.000000	0.001992  
2441.000000	0.002012  
2440.000000	0.002045  
2439.000000	0.002026  
2438.000000	0.001954  
2437.000000	0.001912  
2436.000000	0.001953  
2435.000000	0.002012  
2434.000000	0.001957  
2433.000000	0.001741  
2432.000000	0.001481  
2431.000000	0.001345  
2430.000000	0.001395  
2429.000000	0.001569  
2428.000000	0.001779  
2427.000000	0.001986  
2426.000000	0.002167  
2425.000000	0.002267  
2424.000000	0.002230  
2423.000000	0.002076  
2422.000000	0.001890  
2421.000000	0.001744  
2420.000000	0.001648  
2419.000000	0.001588  
2418.000000	0.001577  
2417.000000	0.001640  
2416.000000	0.001769  
2415.000000	0.001930  
2414.000000	0.002102  
2413.000000	0.002283  
2412.000000	0.002444  
2411.000000	0.002520  
2410.000000	0.002477  
2409.000000	0.002376  
2408.000000	0.002321  
2407.000000	0.002340  
2406.000000	0.002349  
2405.000000	0.002248  
2404.000000	0.002042  
2403.000000	0.001835  
2402.000000	0.001709  
2401.000000	0.001651  
2400.000000	0.001619  
2399.000000	0.001634  
2398.000000	0.001750  
2397.000000	0.001957  
2396.000000	0.002153  
2395.000000	0.002250  
2394.000000	0.002263  
2393.000000	0.002282  
2392.000000	0.002366  
2391.000000	0.002482  
2390.000000	0.002542  
2389.000000	0.002486  
2388.000000	0.002347  
2387.000000	0.002252  
2386.000000	0.002319  
2385.000000	0.002548  
2384.000000	0.002803  
2383.000000	0.002925  
2382.000000	0.002864  
2381.000000	0.002709  
2380.000000	0.002604  
2379.000000	0.002638  
2378.000000	0.002770  
2377.000000	0.002838  
2376.000000	0.002690  
2375.000000	0.002348  
2374.000000	0.002033  
2373.000000	0.001981  
2372.000000	0.002248  
2371.000000	0.002705  
2370.000000	0.003171  
2369.000000	0.003462  
2368.000000	0.003447  
2367.000000	0.003225  
2366.000000	0.003096  
2365.000000	0.003144  
2364.000000	0.002950  
2363.000000	0.002149  
2362.000000	0.001127  
2361.000000	0.000738  
2360.000000	0.001363  
2359.000000	0.002492  
2358.000000	0.003350  
2357.000000	0.003614  
2356.000000	0.003369  
2355.000000	0.002900  
2354.000000	0.002516  
2353.000000	0.002466  
2352.000000	0.002730  
2351.000000	0.003010  
2350.000000	0.003098  
2349.000000	0.002957  
2348.000000	0.002696  
2347.000000	0.002486  
2346.000000	0.002502  
2345.000000	0.002873  
2344.000000	0.003345  
2343.000000	0.003543  
2342.000000	0.003317  
2341.000000	0.002977  
2340.000000	0.002936  
2339.000000	0.003116  
2338.000000	0.003098  
2337.000000	0.002635  
2336.000000	0.002031  
2335.000000	0.001712  
2334.000000	0.001853  
2333.000000	0.002239  
2332.000000	0.002660  
2331.000000	0.002947  
2330.000000	0.003159  
2329.000000	0.003287  
2328.000000	0.003398  
2327.000000	0.003506  
2326.000000	0.003593  
2325.000000	0.003589  
2324.000000	0.003352  
2323.000000	0.002854  
2322.000000	0.002226  
2321.000000	0.001764  
2320.000000	0.001743  
2319.000000	0.002153  
2318.000000	0.002736  
2317.000000	0.003065  
2316.000000	0.002945  
2315.000000	0.002458  
2314.000000	0.002014  
2313.000000	0.001913  
2312.000000	0.002194  
2311.000000	0.002569  
2310.000000	0.002825  
2309.000000	0.002920  
2308.000000	0.002976  
2307.000000	0.003019  
2306.000000	0.003006  
2305.000000	0.002867  
2304.000000	0.002648  
2303.000000	0.002428  
2302.000000	0.002285  
2301.000000	0.002179  
2300.000000	0.002058  
2299.000000	0.001922  
2298.000000	0.001908  
2297.000000	0.002107  
2296.000000	0.002437  
2295.000000	0.002665  
2294.000000	0.002652  
2293.000000	0.002473  
2292.000000	0.002308  
2291.000000	0.002245  
2290.000000	0.002242  
2289.000000	0.002225  
2288.000000	0.002117  
2287.000000	0.001861  
2286.000000	0.001469  
2285.000000	0.001097  
2284.000000	0.000934  
2283.000000	0.001015  
2282.000000	0.001185  
2281.000000	0.001302  
2280.000000	0.001396  
2279.000000	0.001580  
2278.000000	0.001838  
2277.000000	0.002025  
2276.000000	0.002080  
2275.000000	0.002160  
2274.000000	0.002480  
2273.000000	0.003022  
2272.000000	0.003501  
2271.000000	0.003658  
2270.000000	0.003529  
2269.000000	0.003343  
2268.000000	0.003199  
2267.000000	0.002960  
2266.000000	0.002525  
2265.000000	0.002060  
2264.000000	0.001843  
2263.000000	0.001935  
2262.000000	0.002146  
2261.000000	0.002294  
2260.000000	0.002353  
2259.000000	0.002361  
2258.000000	0.002348  
2257.000000	0.002374  
2256.000000	0.002518  
2255.000000	0.002728  
2254.000000	0.002805  
2253.000000	0.002626  
2252.000000	0.002323  
2251.000000	0.002112  
2250.000000	0.002026  
2249.000000	0.001902  
2248.000000	0.001609  
2247.000000	0.001190  
2246.000000	0.000795  
2245.000000	0.000584  
2244.000000	0.000665  
2243.000000	0.001023  
2242.000000	0.001488  
2241.000000	0.001826  
2240.000000	0.001929  
2239.000000	0.001870  
2238.000000	0.001776  
2237.000000	0.001707  
2236.000000	0.001661  
2235.000000	0.001639  
2234.000000	0.001654  
2233.000000	0.001702  
2232.000000	0.001758  
2231.000000	0.001785  
2230.000000	0.001741  
2229.000000	0.001617  
2228.000000	0.001472  
2227.000000	0.001407  
2226.000000	0.001469  
2225.000000	0.001594  
2224.000000	0.001633  
2223.000000	0.001476  
2222.000000	0.001169  
2221.000000	0.000930  
2220.000000	0.000968  
2219.000000	0.001230  
2218.000000	0.001420  
2217.000000	0.001365  
2216.000000	0.001290  
2215.000000	0.001567  
2214.000000	0.002194  
2213.000000	0.002730  
2212.000000	0.002830  
2211.000000	0.002636  
2210.000000	0.002493  
2209.000000	0.002447  
2208.000000	0.002257  
2207.000000	0.001852  
2206.000000	0.001519  
2205.000000	0.001565  
2204.000000	0.001971  
2203.000000	0.002488  
2202.000000	0.002938  
2201.000000	0.003273  
2200.000000	0.003456  
2199.000000	0.003458  
2198.000000	0.003365  
2197.000000	0.003337  
2196.000000	0.003387  
2195.000000	0.003310  
2194.000000	0.002905  
2193.000000	0.002247  
2192.000000	0.001631  
2191.000000	0.001275  
2190.000000	0.001172  
2189.000000	0.001234  
2188.000000	0.001440  
2187.000000	0.001764  
2186.000000	0.002044  
2185.000000	0.002078  
2184.000000	0.001870  
2183.000000	0.001670  
2182.000000	0.001713  
2181.000000	0.001990  
2180.000000	0.002322  
2179.000000	0.002571  
2178.000000	0.002710  
2177.000000	0.002773  
2176.000000	0.002797  
2175.000000	0.002756  
2174.000000	0.002529  
2173.000000	0.002039  
2172.000000	0.001462  
2171.000000	0.001187  
2170.000000	0.001424  
2169.000000	0.001918  
2168.000000	0.002208  
2167.000000	0.002174  
2166.000000	0.002156  
2165.000000	0.002455  
2164.000000	0.002880  
2163.000000	0.002945  
2162.000000	0.002457  
2161.000000	0.001770  
2160.000000	0.001419  
2159.000000	0.001551  
2158.000000	0.001816  
2157.000000	0.001832  
2156.000000	0.001598  
2155.000000	0.001396  
2154.000000	0.001433  
2153.000000	0.001692  
2152.000000	0.002034  
2151.000000	0.002329  
2150.000000	0.002446  
2149.000000	0.002277  
2148.000000	0.001888  
2147.000000	0.001568  
2146.000000	0.001612  
2145.000000	0.002030  
2144.000000	0.002540  
2143.000000	0.002841  
2142.000000	0.002804  
2141.000000	0.002452  
2140.000000	0.001916  
2139.000000	0.001426  
2138.000000	0.001229  
2137.000000	0.001398  
2136.000000	0.001714  
2135.000000	0.001845  
2134.000000	0.001646  
2133.000000	0.001282  
2132.000000	0.001054  
2131.000000	0.001122  
2130.000000	0.001398  
2129.000000	0.001687  
2128.000000	0.001879  
2127.000000	0.001982  
2126.000000	0.001991  
2125.000000	0.001834  
2124.000000	0.001526  
2123.000000	0.001269  
2122.000000	0.001313  
2121.000000	0.001689  
2120.000000	0.002166  
2119.000000	0.002483  
2118.000000	0.002571  
2117.000000	0.002548  
2116.000000	0.002576  
2115.000000	0.002720  
2114.000000	0.002866  
2113.000000	0.002787  
2112.000000	0.002383  
2111.000000	0.001875  
2110.000000	0.001657  
2109.000000	0.001888  
2108.000000	0.002303  
2107.000000	0.002508  
2106.000000	0.002369  
2105.000000	0.002044  
2104.000000	0.001725  
2103.000000	0.001489  
2102.000000	0.001359  
2101.000000	0.001333  
2100.000000	0.001327  
2099.000000	0.001206  
2098.000000	0.000968  
2097.000000	0.000781  
2096.000000	0.000801  
2095.000000	0.000971  
2094.000000	0.001106  
2093.000000	0.001123  
2092.000000	0.001107  
2091.000000	0.001161  
2090.000000	0.001285  
2089.000000	0.001423  
2088.000000	0.001593  
2087.000000	0.001886  
2086.000000	0.002302  
2085.000000	0.002650  
2084.000000	0.002684  
2083.000000	0.002340  
2082.000000	0.001814  
2081.000000	0.001405  
2080.000000	0.001297  
2079.000000	0.001473  
2078.000000	0.001749  
2077.000000	0.001898  
2076.000000	0.001805  
2075.000000	0.001594  
2074.000000	0.001535  
2073.000000	0.001765  
2072.000000	0.002133  
2071.000000	0.002374  
2070.000000	0.002397  
2069.000000	0.002323  
2068.000000	0.002283  
2067.000000	0.002295  
2066.000000	0.002326  
2065.000000	0.002371  
2064.000000	0.002421  
2063.000000	0.002422  
2062.000000	0.002333  
2061.000000	0.002162  
2060.000000	0.001943  
2059.000000	0.001711  
2058.000000	0.001544  
2057.000000	0.001535  
2056.000000	0.001657  
2055.000000	0.001732  
2054.000000	0.001603  
2053.000000	0.001323  
2052.000000	0.001091  
2051.000000	0.001043  
2050.000000	0.001190  
2049.000000	0.001531  
2048.000000	0.002057  
2047.000000	0.002609  
2046.000000	0.002849  
2045.000000	0.002550  
2044.000000	0.001879  
2043.000000	0.001276  
2042.000000	0.001032  
2041.000000	0.001103  
2040.000000	0.001317  
2039.000000	0.001627  
2038.000000	0.002020  
2037.000000	0.002324  
2036.000000	0.002306  
2035.000000	0.002000  
2034.000000	0.001750  
2033.000000	0.001847  
2032.000000	0.002197  
2031.000000	0.002437  
2030.000000	0.002298  
2029.000000	0.001774  
2028.000000	0.001051  
2027.000000	0.000347  
2026.000000	-0.000169 
2025.000000	-0.000416 
2024.000000	-0.000356 
2023.000000	0.000061  
2022.000000	0.000851  
2021.000000	0.001799  
2020.000000	0.002469  
2019.000000	0.002535  
2018.000000	0.002072  
2017.000000	0.001420  
2016.000000	0.000797  
2015.000000	0.000237  
2014.000000	-0.000105 
2013.000000	0.000082  
2012.000000	0.000805  
2011.000000	0.001477  
2010.000000	0.001399  
2009.000000	0.000504  
2008.000000	-0.000533 
2007.000000	-0.001011 
2006.000000	-0.000807 
2005.000000	-0.000255 
2004.000000	0.000327  
2003.000000	0.000864  
2002.000000	0.001413  
2001.000000	0.002012  
2000.000000	0.002552  
1999.000000	0.002737  
1998.000000	0.002301  
1997.000000	0.001380  
1996.000000	0.000557  
1995.000000	0.000353  
1994.000000	0.000746  
1993.000000	0.001285  
1992.000000	0.001615  
1991.000000	0.001736  
1990.000000	0.001771  
1989.000000	0.001788  
1988.000000	0.001897  
1987.000000	0.002226  
1986.000000	0.002671  
1985.000000	0.002908  
1984.000000	0.002805  
1983.000000	0.002618  
1982.000000	0.002611  
1981.000000	0.002691  
1980.000000	0.002628  
1979.000000	0.002452  
1978.000000	0.002321  
1977.000000	0.002100  
1976.000000	0.001524  
1975.000000	0.000716  
1974.000000	0.000133  
1973.000000	-0.000013 
1972.000000	0.000068  
1971.000000	0.000180  
1970.000000	0.000359  
1969.000000	0.000605  
1968.000000	0.000718  
1967.000000	0.000616  
1966.000000	0.000560  
1965.000000	0.000800  
1964.000000	0.001214  
1963.000000	0.001494  
1962.000000	0.001515  
1961.000000	0.001375  
1960.000000	0.001200  
1959.000000	0.001053  
1958.000000	0.000962  
1957.000000	0.000872  
1956.000000	0.000651  
1955.000000	0.000275  
1954.000000	-0.000058 
1953.000000	-0.000101 
1952.000000	0.000206  
1951.000000	0.000748  
1950.000000	0.001368  
1949.000000	0.001886  
1948.000000	0.002090  
1947.000000	0.001906  
1946.000000	0.001548  
1945.000000	0.001348  
1944.000000	0.001432  
1943.000000	0.001637  
1942.000000	0.001753  
1941.000000	0.001732  
1940.000000	0.001622  
1939.000000	0.001487  
1938.000000	0.001445  
1937.000000	0.001630  
1936.000000	0.002025  
1935.000000	0.002419  
1934.000000	0.002615  
1933.000000	0.002616  
1932.000000	0.002559  
1931.000000	0.002516  
1930.000000	0.002439  
1929.000000	0.002263  
1928.000000	0.001990  
1927.000000	0.001680  
1926.000000	0.001415  
1925.000000	0.001277  
1924.000000	0.001316  
1923.000000	0.001503  
1922.000000	0.001761  
1921.000000	0.002026  
1920.000000	0.002254  
1919.000000	0.002387  
1918.000000	0.002390  
1917.000000	0.002337  
1916.000000	0.002328  
1915.000000	0.002319  
1914.000000	0.002146  
1913.000000	0.001732  
1912.000000	0.001228  
1911.000000	0.000894  
1910.000000	0.000848  
1909.000000	0.000987  
1908.000000	0.001149  
1907.000000	0.001273  
1906.000000	0.001368  
1905.000000	0.001423  
1904.000000	0.001431  
1903.000000	0.001452  
1902.000000	0.001569  
1901.000000	0.001776  
1900.000000	0.001975  
1899.000000	0.002071  
1898.000000	0.002054  
1897.000000	0.001974  
1896.000000	0.001881  
1895.000000	0.001818  
1894.000000	0.001831  
1893.000000	0.001949  
1892.000000	0.002145  
1891.000000	0.002348  
1890.000000	0.002479  
1889.000000	0.002501  
1888.000000	0.002443  
1887.000000	0.002344  
1886.000000	0.002228  
1885.000000	0.002132  
1884.000000	0.002091  
1883.000000	0.002085  
1882.000000	0.002054  
1881.000000	0.001966  
1880.000000	0.001856  
1879.000000	0.001764  
1878.000000	0.001688  
1877.000000	0.001627  
1876.000000	0.001637  
1875.000000	0.001778  
1874.000000	0.002005  
1873.000000	0.002195  
1872.000000	0.002277  
1871.000000	0.002273  
1870.000000	0.002207  
1869.000000	0.002051  
1868.000000	0.001833  
1867.000000	0.001680  
1866.000000	0.001662  
1865.000000	0.001727  
1864.000000	0.001789  
1863.000000	0.001818  
1862.000000	0.001821  
1861.000000	0.001799  
1860.000000	0.001771  
1859.000000	0.001803  
1858.000000	0.001946  
1857.000000	0.002149  
1856.000000	0.002288  
1855.000000	0.002271  
1854.000000	0.002099  
1853.000000	0.001860  
1852.000000	0.001693  
1851.000000	0.001694  
1850.000000	0.001813  
1849.000000	0.001863  
1848.000000	0.001725  
1847.000000	0.001499  
1846.000000	0.001408  
1845.000000	0.001553  
1844.000000	0.001787  
1843.000000	0.001918  
1842.000000	0.001927  
1841.000000	0.001887  
1840.000000	0.001852  
1839.000000	0.001851  
1838.000000	0.001895  
1837.000000	0.001948  
1836.000000	0.001952  
1835.000000	0.001908  
1834.000000	0.001860  
1833.000000	0.001800  
1832.000000	0.001671  
1831.000000	0.001486  
1830.000000	0.001402  
1829.000000	0.001534  
1828.000000	0.001786  
1827.000000	0.001989  
1826.000000	0.002076  
1825.000000	0.002075  
1824.000000	0.002052  
1823.000000	0.002072  
1822.000000	0.002142  
1821.000000	0.002180  
1820.000000	0.002074  
1819.000000	0.001831  
1818.000000	0.001621  
1817.000000	0.001604  
1816.000000	0.001744  
1815.000000	0.001878  
1814.000000	0.001906  
1813.000000	0.001842  
1812.000000	0.001758  
1811.000000	0.001728  
1810.000000	0.001804  
1809.000000	0.001964  
1808.000000	0.002116  
1807.000000	0.002183  
1806.000000	0.002168  
1805.000000	0.002132  
1804.000000	0.002115  
1803.000000	0.002118  
1802.000000	0.002142  
1801.000000	0.002192  
1800.000000	0.002261  
1799.000000	0.002318  
1798.000000	0.002337  
1797.000000	0.002316  
1796.000000	0.002284  
1795.000000	0.002258  
1794.000000	0.002225  
1793.000000	0.002146  
1792.000000	0.002010  
1791.000000	0.001889  
1790.000000	0.001851  
1789.000000	0.001877  
1788.000000	0.001906  
1787.000000	0.001920  
1786.000000	0.001953  
1785.000000	0.002016  
1784.000000	0.002049  
1783.000000	0.001988  
1782.000000	0.001862  
1781.000000	0.001786  
1780.000000	0.001848  
1779.000000	0.002011  
1778.000000	0.002169  
1777.000000	0.002251  
1776.000000	0.002247  
1775.000000	0.002179  
1774.000000	0.002061  
1773.000000	0.001899  
1772.000000	0.001707  
1771.000000	0.001532  
1770.000000	0.001436  
1769.000000	0.001451  
1768.000000	0.001559  
1767.000000	0.001699  
1766.000000	0.001814  
1765.000000	0.001885  
1764.000000	0.001926  
1763.000000	0.001966  
1762.000000	0.002050  
1761.000000	0.002176  
1760.000000	0.002279  
1759.000000	0.002285  
1758.000000	0.002197  
1757.000000	0.002096  
1756.000000	0.002063  
1755.000000	0.002110  
1754.000000	0.002201  
1753.000000	0.002325  
1752.000000	0.002467  
1751.000000	0.002572  
1750.000000	0.002598  
1749.000000	0.002585  
1748.000000	0.002608  
1747.000000	0.002701  
1746.000000	0.002851  
1745.000000	0.003020  
1744.000000	0.003164  
1743.000000	0.003239  
1742.000000	0.003220  
1741.000000	0.003095  
1740.000000	0.002868  
1739.000000	0.002604  
1738.000000	0.002388  
1737.000000	0.002231  
1736.000000	0.002082  
1735.000000	0.001921  
1734.000000	0.001822  
1733.000000	0.001845  
1732.000000	0.001908  
1731.000000	0.001958  
1730.000000	0.002034  
1729.000000	0.002169  
1728.000000	0.002328  
1727.000000	0.002444  
1726.000000	0.002483  
1725.000000	0.002460  
1724.000000	0.002402  
1723.000000	0.002331  
1722.000000	0.002268  
1721.000000	0.002231  
1720.000000	0.002227  
1719.000000	0.002245  
1718.000000	0.002231  
1717.000000	0.002127  
1716.000000	0.001977  
1715.000000	0.001896  
1714.000000	0.001946  
1713.000000	0.002087  
1712.000000	0.002219  
1711.000000	0.002278  
1710.000000	0.002273  
1709.000000	0.002244  
1708.000000	0.002217  
1707.000000	0.002204  
1706.000000	0.002220  
1705.000000	0.002281  
1704.000000	0.002398  
1703.000000	0.002568  
1702.000000	0.002729  
1701.000000	0.002751  
1700.000000	0.002582  
1699.000000	0.002416  
1698.000000	0.002374  
1697.000000	0.002406  
1696.000000	0.002427  
1695.000000	0.002423  
1694.000000	0.002401  
1693.000000	0.002346  
1692.000000	0.002274  
1691.000000	0.002214  
1690.000000	0.002196  
1689.000000	0.002240  
1688.000000	0.002332  
1687.000000	0.002439  
1686.000000	0.002522  
1685.000000	0.002560  
1684.000000	0.002528  
1683.000000	0.002463  
1682.000000	0.002417  
1681.000000	0.002392  
1680.000000	0.002378  
1679.000000	0.002360  
1678.000000	0.002305  
1677.000000	0.002188  
1676.000000	0.002050  
1675.000000	0.002016  
1674.000000	0.002154  
1673.000000	0.002363  
1672.000000	0.002524  
1671.000000	0.002593  
1670.000000	0.002588  
1669.000000	0.002561  
1668.000000	0.002540  
1667.000000	0.002522  
1666.000000	0.002518  
1665.000000	0.002550  
1664.000000	0.002601  
1663.000000	0.002626  
1662.000000	0.002608  
1661.000000	0.002583  
1660.000000	0.002570  
1659.000000	0.002558  
1658.000000	0.002536  
1657.000000	0.002508  
1656.000000	0.002486  
1655.000000	0.002453  
1654.000000	0.002420  
1653.000000	0.002473  
1652.000000	0.002663  
1651.000000	0.002778  
1650.000000	0.002803  
1649.000000	0.002874  
1648.000000	0.002976  
1647.000000	0.002926  
1646.000000	0.002688  
1645.000000	0.002443  
1644.000000	0.002262  
1643.000000	0.002157  
1642.000000	0.002157  
1641.000000	0.002250  
1640.000000	0.002362  
1639.000000	0.002425  
1638.000000	0.002433  
1637.000000	0.002424  
1636.000000	0.002415  
1635.000000	0.002404  
1634.000000	0.002403  
1633.000000	0.002398  
1632.000000	0.002377  
1631.000000	0.002343  
1630.000000	0.002318  
1629.000000	0.002340  
1628.000000	0.002416  
1627.000000	0.002498  
1626.000000	0.002554  
1625.000000	0.002590  
1624.000000	0.002629  
1623.000000	0.002686  
1622.000000	0.002775  
1621.000000	0.002911  
1620.000000	0.003076  
1619.000000	0.003240  
1618.000000	0.003372  
1617.000000	0.003487  
1616.000000	0.003621  
1615.000000	0.003738  
1614.000000	0.003798  
1613.000000	0.003826  
1612.000000	0.003876  
1611.000000	0.003983  
1610.000000	0.004141  
1609.000000	0.004294  
1608.000000	0.004368  
1607.000000	0.004335  
1606.000000	0.004240  
1605.000000	0.004144  
1604.000000	0.004061  
1603.000000	0.003978  
1602.000000	0.003897  
1601.000000	0.003834  
1600.000000	0.003767  
1599.000000	0.003654  
1598.000000	0.003500  
1597.000000	0.003373  
1596.000000	0.003323  
1595.000000	0.003341  
1594.000000	0.003383  
1593.000000	0.003425  
1592.000000	0.003473  
1591.000000	0.003527  
1590.000000	0.003568  
1589.000000	0.003573  
1588.000000	0.003531  
1587.000000	0.003458  
1586.000000	0.003392  
1585.000000	0.003353  
1584.000000	0.003335  
1583.000000	0.003322  
1582.000000	0.003321  
1581.000000	0.003347  
1580.000000	0.003404  
1579.000000	0.003475  
1578.000000	0.003502  
1577.000000	0.003398  
1576.000000	0.003173  
1575.000000	0.003003  
1574.000000	0.003003  
1573.000000	0.003131  
1572.000000	0.003269  
1571.000000	0.003290  
1570.000000	0.003171  
1569.000000	0.003055  
1568.000000	0.003042  
1567.000000	0.003058  
1566.000000	0.003020  
1565.000000	0.002931  
1564.000000	0.002838  
1563.000000	0.002781  
1562.000000	0.002760  
1561.000000	0.002750  
1560.000000	0.002759  
1559.000000	0.002718  
1558.000000	0.002669  
1557.000000	0.002821  
1556.000000	0.003054  
1555.000000	0.003270  
1554.000000	0.003417  
1553.000000	0.003456  
1552.000000	0.003373  
1551.000000	0.003220  
1550.000000	0.003091  
1549.000000	0.003053  
1548.000000	0.003071  
1547.000000	0.003088  
1546.000000	0.003109  
1545.000000	0.003160  
1544.000000	0.003201  
1543.000000	0.003197  
1542.000000	0.003213  
1541.000000	0.003312  
1540.000000	0.003419  
1539.000000	0.003514  
1538.000000	0.003650  
1537.000000	0.003771  
1536.000000	0.003831  
1535.000000	0.003803  
1534.000000	0.003700  
1533.000000	0.003597  
1532.000000	0.003548  
1531.000000	0.003520  
1530.000000	0.003482  
1529.000000	0.003452  
1528.000000	0.003465  
1527.000000	0.003553  
1526.000000	0.003748  
1525.000000	0.004012  
1524.000000	0.004234  
1523.000000	0.004348  
1522.000000	0.004406  
1521.000000	0.004493  
1520.000000	0.004566  
1519.000000	0.004536  
1518.000000	0.004451  
1517.000000	0.004436  
1516.000000	0.004540  
1515.000000	0.004722  
1514.000000	0.004955  
1513.000000	0.005230  
1512.000000	0.005484  
1511.000000	0.005643  
1510.000000	0.005730  
1509.000000	0.005874  
1508.000000	0.006179  
1507.000000	0.006602  
1506.000000	0.007066  
1505.000000	0.007484  
1504.000000	0.007673  
1503.000000	0.007652  
1502.000000	0.007564  
1501.000000	0.007502  
1500.000000	0.007482  
1499.000000	0.007550  
1498.000000	0.007861  
1497.000000	0.008467  
1496.000000	0.009078  
1495.000000	0.009411  
1494.000000	0.009541  
1493.000000	0.009621  
1492.000000	0.009637  
1491.000000	0.009547  
1490.000000	0.009518  
1489.000000	0.009739  
1488.000000	0.010118  
1487.000000	0.010494  
1486.000000	0.010891  
1485.000000	0.011381  
1484.000000	0.011945  
1483.000000	0.012575  
1482.000000	0.013363  
1481.000000	0.014342  
1480.000000	0.015387  
1479.000000	0.016461  
1478.000000	0.017775  
1477.000000	0.019516  
1476.000000	0.021578  
1475.000000	0.023966  
1474.000000	0.027394  
1473.000000	0.032769  
1472.000000	0.039663  
1471.000000	0.046666  
1470.000000	0.053184  
1469.000000	0.059208  
1468.000000	0.064548  
1467.000000	0.069027  
1466.000000	0.072806  
1465.000000	0.076045  
1464.000000	0.078557  
1463.000000	0.080276  
1462.000000	0.081521  
1461.000000	0.082590  
1460.000000	0.083604  
1459.000000	0.084684  
1458.000000	0.085832  
1457.000000	0.086300  
1456.000000	0.085286  
1455.000000	0.083254  
1454.000000	0.080840  
1453.000000	0.078164  
1452.000000	0.075260  
1451.000000	0.072393  
1450.000000	0.069757  
1449.000000	0.067172  
1448.000000	0.064377  
1447.000000	0.061414  
1446.000000	0.058405  
1445.000000	0.055234  
1444.000000	0.051753  
1443.000000	0.048046  
1442.000000	0.044385  
1441.000000	0.041034  
1440.000000	0.038095  
1439.000000	0.035410  
1438.000000	0.032596  
1437.000000	0.029468  
1436.000000	0.026553  
1435.000000	0.024385  
1434.000000	0.022698  
1433.000000	0.021020  
1432.000000	0.019223  
1431.000000	0.017457  
1430.000000	0.015868  
1429.000000	0.014526  
1428.000000	0.013514  
1427.000000	0.012820  
1426.000000	0.012252  
1425.000000	0.011626  
1424.000000	0.010993  
1423.000000	0.010520  
1422.000000	0.010195  
1421.000000	0.009852  
1420.000000	0.009429  
1419.000000	0.009028  
1418.000000	0.008748  
1417.000000	0.008575  
1416.000000	0.008491  
1415.000000	0.008471  
1414.000000	0.008428  
1413.000000	0.008294  
1412.000000	0.008107  
1411.000000	0.007946  
1410.000000	0.007816  
1409.000000	0.007700  
1408.000000	0.007632  
1407.000000	0.007643  
1406.000000	0.007664  
1405.000000	0.007612  
1404.000000	0.007540  
1403.000000	0.007543  
1402.000000	0.007589  
1401.000000	0.007597  
1400.000000	0.007593  
1399.000000	0.007664  
1398.000000	0.007804  
1397.000000	0.007960  
1396.000000	0.008157  
1395.000000	0.008455  
1394.000000	0.008844  
1393.000000	0.009307  
1392.000000	0.009888  
1391.000000	0.010649  
1390.000000	0.011643  
1389.000000	0.013017  
1388.000000	0.015022  
1387.000000	0.017709  
1386.000000	0.020726  
1385.000000	0.023748  
1384.000000	0.026825  
1383.000000	0.030212  
1382.000000	0.034095  
1381.000000	0.038451  
1380.000000	0.042930  
1379.000000	0.046751  
1378.000000	0.049016  
1377.000000	0.049258  
1376.000000	0.047526  
1375.000000	0.044161  
1374.000000	0.039867  
1373.000000	0.035631  
1372.000000	0.032129  
1371.000000	0.029498  
1370.000000	0.027686  
1369.000000	0.026651  
1368.000000	0.026210  
1367.000000	0.025932  
1366.000000	0.025326  
1365.000000	0.024091  
1364.000000	0.022215  
1363.000000	0.020008  
1362.000000	0.017971  
1361.000000	0.016443  
1360.000000	0.015420  
1359.000000	0.014729  
1358.000000	0.014226  
1357.000000	0.013846  
1356.000000	0.013582  
1355.000000	0.013438  
1354.000000	0.013380  
1353.000000	0.013344  
1352.000000	0.013288  
1351.000000	0.013214  
1350.000000	0.013134  
1349.000000	0.013046  
1348.000000	0.012922  
1347.000000	0.012742  
1346.000000	0.012525  
1345.000000	0.012350  
1344.000000	0.012293  
1343.000000	0.012349  
1342.000000	0.012424  
1341.000000	0.012421  
1340.000000	0.012306  
1339.000000	0.012108  
1338.000000	0.011861  
1337.000000	0.011585  
1336.000000	0.011301  
1335.000000	0.011023  
1334.000000	0.010745  
1333.000000	0.010459  
1332.000000	0.010190  
1331.000000	0.009977  
1330.000000	0.009820  
1329.000000	0.009683  
1328.000000	0.009542  
1327.000000	0.009400  
1326.000000	0.009264  
1325.000000	0.009140  
1324.000000	0.009048  
1323.000000	0.009003  
1322.000000	0.008992  
1321.000000	0.008985  
1320.000000	0.008979  
1319.000000	0.008993  
1318.000000	0.009031  
1317.000000	0.009075  
1316.000000	0.009112  
1315.000000	0.009153  
1314.000000	0.009222  
1313.000000	0.009330  
1312.000000	0.009470  
1311.000000	0.009619  
1310.000000	0.009753  
1309.000000	0.009872  
1308.000000	0.009991  
1307.000000	0.010109  
1306.000000	0.010193  
1305.000000	0.010214  
1304.000000	0.010175  
1303.000000	0.010101  
1302.000000	0.010010  
1301.000000	0.009918  
1300.000000	0.009844  
1299.000000	0.009803  
1298.000000	0.009778  
1297.000000	0.009734  
1296.000000	0.009649  
1295.000000	0.009514  
1294.000000	0.009330  
1293.000000	0.009109  
1292.000000	0.008897  
1291.000000	0.008745  
1290.000000	0.008668  
1289.000000	0.008633  
1288.000000	0.008596  
1287.000000	0.008547  
1286.000000	0.008502  
1285.000000	0.008472  
1284.000000	0.008448  
1283.000000	0.008407  
1282.000000	0.008349  
1281.000000	0.008294  
1280.000000	0.008266  
1279.000000	0.008254  
1278.000000	0.008239  
1277.000000	0.008221  
1276.000000	0.008218  
1275.000000	0.008226  
1274.000000	0.008215  
1273.000000	0.008182  
1272.000000	0.008165  
1271.000000	0.008192  
1270.000000	0.008239  
1269.000000	0.008266  
1268.000000	0.008266  
1267.000000	0.008242  
1266.000000	0.008173  
1265.000000	0.008030  
1264.000000	0.007831  
1263.000000	0.007644  
1262.000000	0.007538  
1261.000000	0.007525  
1260.000000	0.007559  
1259.000000	0.007576  
1258.000000	0.007536  
1257.000000	0.007456  
1256.000000	0.007377  
1255.000000	0.007330  
1254.000000	0.007318  
1253.000000	0.007342  
1252.000000	0.007395  
1251.000000	0.007436  
1250.000000	0.007404  
1249.000000	0.007296  
1248.000000	0.007185  
1247.000000	0.007140  
1246.000000	0.007150  
1245.000000	0.007158  
1244.000000	0.007130  
1243.000000	0.007069  
1242.000000	0.006985  
1241.000000	0.006895  
1240.000000	0.006835  
1239.000000	0.006828  
1238.000000	0.006840  
1237.000000	0.006821  
1236.000000	0.006774  
1235.000000	0.006735  
1234.000000	0.006698  
1233.000000	0.006612  
1232.000000	0.006459  
1231.000000	0.006288  
1230.000000	0.006164  
1229.000000	0.006104  
1228.000000	0.006094  
1227.000000	0.006117  
1226.000000	0.006155  
1225.000000	0.006179  
1224.000000	0.006172  
1223.000000	0.006154  
1222.000000	0.006148  
1221.000000	0.006139  
1220.000000	0.006093  
1219.000000	0.006011  
1218.000000	0.005955  
1217.000000	0.005988  
1216.000000	0.006108  
1215.000000	0.006231  
1214.000000	0.006270  
1213.000000	0.006203  
1212.000000	0.006097  
1211.000000	0.006038  
1210.000000	0.006056  
1209.000000	0.006100  
1208.000000	0.006092  
1207.000000	0.006012  
1206.000000	0.005915  
1205.000000	0.005865  
1204.000000	0.005867  
1203.000000	0.005870  
1202.000000	0.005842  
1201.000000	0.005810  
1200.000000	0.005811  
1199.000000	0.005843  
1198.000000	0.005884  
1197.000000	0.005944  
1196.000000	0.006038  
1195.000000	0.006147  
1194.000000	0.006230  
1193.000000	0.006283  
1192.000000	0.006321  
1191.000000	0.006335  
1190.000000	0.006300  
1189.000000	0.006233  
1188.000000	0.006194  
1187.000000	0.006218  
1186.000000	0.006274  
1185.000000	0.006323  
1184.000000	0.006368  
1183.000000	0.006432  
1182.000000	0.006517  
1181.000000	0.006615  
1180.000000	0.006714  
1179.000000	0.006793  
1178.000000	0.006842  
1177.000000	0.006907  
1176.000000	0.007058  
1175.000000	0.007301  
1174.000000	0.007550  
1173.000000	0.007730  
1172.000000	0.007856  
1171.000000	0.007989  
1170.000000	0.008135  
1169.000000	0.008240  
1168.000000	0.008259  
1167.000000	0.008197  
1166.000000	0.008096  
1165.000000	0.008002  
1164.000000	0.007939  
1163.000000	0.007882  
1162.000000	0.007807  
1161.000000	0.007747  
1160.000000	0.007780  
1159.000000	0.007917  
1158.000000	0.008064  
1157.000000	0.008119  
1156.000000	0.008075  
1155.000000	0.007986  
1154.000000	0.007871  
1153.000000	0.007720  
1152.000000	0.007556  
1151.000000	0.007433  
1150.000000	0.007378  
1149.000000	0.007374  
1148.000000	0.007396  
1147.000000	0.007429  
1146.000000	0.007450  
1145.000000	0.007434  
1144.000000	0.007378  
1143.000000	0.007293  
1142.000000	0.007179  
1141.000000	0.007036  
1140.000000	0.006879  
1139.000000	0.006725  
1138.000000	0.006592  
1137.000000	0.006514  
1136.000000	0.006524  
1135.000000	0.006583  
1134.000000	0.006591  
1133.000000	0.006493  
1132.000000	0.006357  
1131.000000	0.006285  
1130.000000	0.006290  
1129.000000	0.006314  
1128.000000	0.006324  
1127.000000	0.006331  
1126.000000	0.006326  
1125.000000	0.006282  
1124.000000	0.006210  
1123.000000	0.006160  
1122.000000	0.006144  
1121.000000	0.006130  
1120.000000	0.006106  
1119.000000	0.006094  
1118.000000	0.006103  
1117.000000	0.006116  
1116.000000	0.006140  
1115.000000	0.006199  
1114.000000	0.006273  
1113.000000	0.006303  
1112.000000	0.006263  
1111.000000	0.006187  
1110.000000	0.006103  
1109.000000	0.006011  
1108.000000	0.005937  
1107.000000	0.005949  
1106.000000	0.006070  
1105.000000	0.006211  
1104.000000	0.006246  
1103.000000	0.006137  
1102.000000	0.005964  
1101.000000	0.005859  
1100.000000	0.005896  
1099.000000	0.006051  
1098.000000	0.006230  
1097.000000	0.006367  
1096.000000	0.006479  
1095.000000	0.006609  
1094.000000	0.006727  
1093.000000	0.006751  
1092.000000	0.006665  
1091.000000	0.006555  
1090.000000	0.006496  
1089.000000	0.006456  
1088.000000	0.006354  
1087.000000	0.006186  
1086.000000	0.006033  
1085.000000	0.005969  
1084.000000	0.005990  
1083.000000	0.006041  
1082.000000	0.006074  
1081.000000	0.006087  
1080.000000	0.006126  
1079.000000	0.006238  
1078.000000	0.006418  
1077.000000	0.006606  
1076.000000	0.006757  
1075.000000	0.006891  
1074.000000	0.007045  
1073.000000	0.007202  
1072.000000	0.007293  
1071.000000	0.007278  
1070.000000	0.007191  
1069.000000	0.007115  
1068.000000	0.007088  
1067.000000	0.007081  
1066.000000	0.007043  
1065.000000	0.006981  
1064.000000	0.006950  
1063.000000	0.006969  
1062.000000	0.006976  
1061.000000	0.006903  
1060.000000	0.006774  
1059.000000	0.006697  
1058.000000	0.006744  
1057.000000	0.006897  
1056.000000	0.007105  
1055.000000	0.007322  
1054.000000	0.007471  
1053.000000	0.007426  
1052.000000	0.007120  
1051.000000	0.006687  
1050.000000	0.006390  
1049.000000	0.006381  
1048.000000	0.006579  
1047.000000	0.006789  
1046.000000	0.006880  
1045.000000	0.006840  
1044.000000	0.006740  
1043.000000	0.006684  
1042.000000	0.006753  
1041.000000	0.006945  
1040.000000	0.007159  
1039.000000	0.007274  
1038.000000	0.007251  
1037.000000	0.007148  
1036.000000	0.007064  
1035.000000	0.007064  
1034.000000	0.007165  
1033.000000	0.007334  
1032.000000	0.007501  
1031.000000	0.007587  
1030.000000	0.007568  
1029.000000	0.007491  
1028.000000	0.007430  
1027.000000	0.007422  
1026.000000	0.007443  
1025.000000	0.007452  
1024.000000	0.007430  
1023.000000	0.007384  
1022.000000	0.007342  
1021.000000	0.007320  
1020.000000	0.007304  
1019.000000	0.007264  
1018.000000	0.007206  
1017.000000	0.007186  
1016.000000	0.007259  
1015.000000	0.007397  
1014.000000	0.007506  
1013.000000	0.007517  
1012.000000	0.007443  
1011.000000	0.007342  
1010.000000	0.007270  
1009.000000	0.007256  
1008.000000	0.007308  
1007.000000	0.007403  
1006.000000	0.007488  
1005.000000	0.007529  
1004.000000	0.007533  
1003.000000	0.007534  
1002.000000	0.007552  
1001.000000	0.007571  
1000.000000	0.007545  
999.000000	 0.007425  
998.000000	 0.007213  
997.000000	 0.006999  
996.000000	 0.006906  
995.000000	 0.006975  
994.000000	 0.007111  
993.000000	 0.007175  
992.000000	 0.007113  
991.000000	 0.006992  
990.000000	 0.006926  
989.000000	 0.006991  
988.000000	 0.007173  
987.000000	 0.007375  
986.000000	 0.007488  
985.000000	 0.007490  
984.000000	 0.007468  
983.000000	 0.007526  
982.000000	 0.007672  
981.000000	 0.007832  
980.000000	 0.007947  
979.000000	 0.008033  
978.000000	 0.008130  
977.000000	 0.008249  
976.000000	 0.008365  
975.000000	 0.008444  
974.000000	 0.008467  
973.000000	 0.008452  
972.000000	 0.008459  
971.000000	 0.008538  
970.000000	 0.008685  
969.000000	 0.008841  
968.000000	 0.008946  
967.000000	 0.008973  
966.000000	 0.008916  
965.000000	 0.008790  
964.000000	 0.008637  
963.000000	 0.008529  
962.000000	 0.008520  
961.000000	 0.008597  
960.000000	 0.008681  
959.000000	 0.008695  
958.000000	 0.008623  
957.000000	 0.008527  
956.000000	 0.008489  
955.000000	 0.008532  
954.000000	 0.008603  
953.000000	 0.008630  
952.000000	 0.008602  
951.000000	 0.008567  
950.000000	 0.008560  
949.000000	 0.008575  
948.000000	 0.008596  
947.000000	 0.008636  
946.000000	 0.008720  
945.000000	 0.008847  
944.000000	 0.008977  
943.000000	 0.009070  
942.000000	 0.009109  
941.000000	 0.009094  
940.000000	 0.009013  
939.000000	 0.008859  
938.000000	 0.008665  
937.000000	 0.008501  
936.000000	 0.008403  
935.000000	 0.008336  
934.000000	 0.008247  
933.000000	 0.008160  
932.000000	 0.008147  
931.000000	 0.008209  
930.000000	 0.008246  
929.000000	 0.008179  
928.000000	 0.008067  
927.000000	 0.008043  
926.000000	 0.008147  
925.000000	 0.008295  
924.000000	 0.008390  
923.000000	 0.008417  
922.000000	 0.008411  
921.000000	 0.008382  
920.000000	 0.008317  
919.000000	 0.008226  
918.000000	 0.008152  
917.000000	 0.008138  
916.000000	 0.008189  
915.000000	 0.008259  
914.000000	 0.008273  
913.000000	 0.008189  
912.000000	 0.008033  
911.000000	 0.007882  
910.000000	 0.007805  
909.000000	 0.007832  
908.000000	 0.007944  
907.000000	 0.008069  
906.000000	 0.008112  
905.000000	 0.008042  
904.000000	 0.007948  
903.000000	 0.007954  
902.000000	 0.008077  
901.000000	 0.008211  
900.000000	 0.008268  
899.000000	 0.008294  
898.000000	 0.008386  
897.000000	 0.008559  
896.000000	 0.008728  
895.000000	 0.008818  
894.000000	 0.008829  
893.000000	 0.008801  
892.000000	 0.008775  
891.000000	 0.008790  
890.000000	 0.008870  
889.000000	 0.009001  
888.000000	 0.009114  
887.000000	 0.009135  
886.000000	 0.009054  
885.000000	 0.008923  
884.000000	 0.008810  
883.000000	 0.008740  
882.000000	 0.008701  
881.000000	 0.008674  
880.000000	 0.008654  
879.000000	 0.008648  
878.000000	 0.008643  
877.000000	 0.008606  
876.000000	 0.008514  
875.000000	 0.008389  
874.000000	 0.008277  
873.000000	 0.008190  
872.000000	 0.008083  
871.000000	 0.007932  
870.000000	 0.007828  
869.000000	 0.007924  
868.000000	 0.008243  
867.000000	 0.008582  
866.000000	 0.008681  
865.000000	 0.008476  
864.000000	 0.008155  
863.000000	 0.007944  
862.000000	 0.007912  
861.000000	 0.007999  
860.000000	 0.008140  
859.000000	 0.008292  
858.000000	 0.008375  
857.000000	 0.008320  
856.000000	 0.008192  
855.000000	 0.008181  
854.000000	 0.008411  
853.000000	 0.008807  
852.000000	 0.009182  
851.000000	 0.009430  
850.000000	 0.009569  
849.000000	 0.009639  
848.000000	 0.009616  
847.000000	 0.009478  
846.000000	 0.009286  
845.000000	 0.009152  
844.000000	 0.009110  
843.000000	 0.009073  
842.000000	 0.008938  
841.000000	 0.008718  
840.000000	 0.008531  
839.000000	 0.008486  
838.000000	 0.008594  
837.000000	 0.008759  
836.000000	 0.008825  
835.000000	 0.008658  
834.000000	 0.008266  
833.000000	 0.007844  
832.000000	 0.007631  
831.000000	 0.007688  
830.000000	 0.007846  
829.000000	 0.007936  
828.000000	 0.008000  
827.000000	 0.008204  
826.000000	 0.008580  
825.000000	 0.008961  
824.000000	 0.009180  
823.000000	 0.009205  
822.000000	 0.009109  
821.000000	 0.009007  
820.000000	 0.009042  
819.000000	 0.009307  
818.000000	 0.009754  
817.000000	 0.010235  
816.000000	 0.010627  
815.000000	 0.010880  
814.000000	 0.010951  
813.000000	 0.010803  
812.000000	 0.010509  
811.000000	 0.010275  
810.000000	 0.010297  
809.000000	 0.010603  
808.000000	 0.011068  
807.000000	 0.011525  
806.000000	 0.011848  
805.000000	 0.011955  
804.000000	 0.011810  
803.000000	 0.011439  
802.000000	 0.010931  
801.000000	 0.010400  
800.000000	 0.009946  
799.000000	 0.009602  
798.000000	 0.009331  
797.000000	 0.009070  
796.000000	 0.008809  
795.000000	 0.008583  
794.000000	 0.008413  
793.000000	 0.008305  
792.000000	 0.008300  
791.000000	 0.008460  
790.000000	 0.008751  
789.000000	 0.009006  
788.000000	 0.009082  
787.000000	 0.009025  
786.000000	 0.009026  
785.000000	 0.009217  
784.000000	 0.009553  
783.000000	 0.009891  
782.000000	 0.010150  
781.000000	 0.010374  
780.000000	 0.010648  
779.000000	 0.010990  
778.000000	 0.011339  
777.000000	 0.011634  
776.000000	 0.011902  
775.000000	 0.012222  
774.000000	 0.012612  
773.000000	 0.012992  
772.000000	 0.013288  
771.000000	 0.013512  
770.000000	 0.013719  
769.000000	 0.013929  
768.000000	 0.014107  
767.000000	 0.014206  
766.000000	 0.014150  
765.000000	 0.013853  
764.000000	 0.013312  
763.000000	 0.012709  
762.000000	 0.012316  
761.000000	 0.012253  
760.000000	 0.012391  
759.000000	 0.012504  
758.000000	 0.012505  
757.000000	 0.012491  
756.000000	 0.012593  
755.000000	 0.012830  
754.000000	 0.013104  
753.000000	 0.013297  
752.000000	 0.013368  
751.000000	 0.013361  
750.000000	 0.013355  
749.000000	 0.013413  
748.000000	 0.013598  
747.000000	 0.014010  
746.000000	 0.014783  
745.000000	 0.015993  
744.000000	 0.017542  
743.000000	 0.019126  
742.000000	 0.020349  
741.000000	 0.020922  
740.000000	 0.020830  
739.000000	 0.020317  
738.000000	 0.019687  
737.000000	 0.019094  
736.000000	 0.018536  
735.000000	 0.018000  
734.000000	 0.017569  
733.000000	 0.017348  
732.000000	 0.017346  
731.000000	 0.017475  
730.000000	 0.017679  
729.000000	 0.018037  
728.000000	 0.018683  
727.000000	 0.019656  
726.000000	 0.020832  
725.000000	 0.022001  
724.000000	 0.022998  
723.000000	 0.023731  
722.000000	 0.024094  
721.000000	 0.023876  
720.000000	 0.022865  
719.000000	 0.021115  
718.000000	 0.019006  
717.000000	 0.017024  
716.000000	 0.015473  
715.000000	 0.014360  
714.000000	 0.013469  
713.000000	 0.012590  
712.000000	 0.011693  
711.000000	 0.010906  
710.000000	 0.010355  
709.000000	 0.010080  
708.000000	 0.010046  
707.000000	 0.010209  
706.000000	 0.010540  
705.000000	 0.011014  
704.000000	 0.011548  
703.000000	 0.011979  
702.000000	 0.012165  
701.000000	 0.012146  
700.000000	 0.012135  
699.000000	 0.012243  
698.000000	 0.012254  
697.000000	 0.011814  
696.000000	 0.010898  
695.000000	 0.009953  
694.000000	 0.009440  
693.000000	 0.009305  
692.000000	 0.009048  
691.000000	 0.008318  
690.000000	 0.007306  
689.000000	 0.006476  
688.000000	 0.006005  
687.000000	 0.005639  
686.000000	 0.005134  
685.000000	 0.004594  
684.000000	 0.004298  
683.000000	 0.004363  
682.000000	 0.004669  
681.000000	 0.005008  
680.000000	 0.005201  
679.000000	 0.005173  
678.000000	 0.005003  
677.000000	 0.004891  
676.000000	 0.004910  
675.000000	 0.004915  
674.000000	 0.004790  
673.000000	 0.004638  
672.000000	 0.004497  
671.000000	 0.004059  
670.000000	 0.002888  
669.000000	 0.000876  
668.000000	 -0.001031 
667.000000	 -0.000888 
666.000000	 0.000856  
665.000000	 0.002480  
664.000000	 0.003515  
663.000000	 0.004184  
662.000000	 0.004546  
661.000000	 0.004486  
660.000000	 0.004199  
659.000000	 0.004155  
658.000000	 0.004412  
657.000000	 0.004409  
656.000000	 0.003651  
655.000000	 0.002443  
654.000000	 0.001652  
653.000000	 0.001776  
652.000000	 0.002493  
651.000000	 0.003129  
650.000000	 0.003357  

