PE IR                   SPECTRUM    ASCII       PEDS        1.60        
  -1
NB4-07~2.ASC
17/04/10
13:30:02.00
17/04/10
13:30:02.00
Admin

650.000000
6









SPECTRUM ONE,CPU32 MAIN 00.02.5000 17-APRIL-2002 13:00:00
MIR TGS
MIR
OPTKBR
68128
0.200000

4.000000
STRONG
RATIO
SPECTRUM
MAGNITUDE

DOUBLE

COMBINED


0


#HDR
-1
-1
#GR
CM-1
A
0.00000011920928955078
0.0
4000.000000
-1.000000
3351
8
0.217317
-0.009107
#DATA
4000.000000	0.001405  
3999.000000	0.001371  
3998.000000	0.001401  
3997.000000	0.001518  
3996.000000	0.001538  
3995.000000	0.001694  
3994.000000	0.001808  
3993.000000	0.001845  
3992.000000	0.001804  
3991.000000	0.001712  
3990.000000	0.001611  
3989.000000	0.001525  
3988.000000	0.001442  
3987.000000	0.001346  
3986.000000	0.001259  
3985.000000	0.001232  
3984.000000	0.001274  
3983.000000	0.001313  
3982.000000	0.001256  
3981.000000	0.001085  
3980.000000	0.000894  
3979.000000	0.000806  
3978.000000	0.000870  
3977.000000	0.001036  
3976.000000	0.001219  
3975.000000	0.001365  
3974.000000	0.001465  
3973.000000	0.001515  
3972.000000	0.001514  
3971.000000	0.001471  
3970.000000	0.001421  
3969.000000	0.001390  
3968.000000	0.001358  
3967.000000	0.001286  
3966.000000	0.001174  
3965.000000	0.001094  
3964.000000	0.001131  
3963.000000	0.001298  
3962.000000	0.001516  
3961.000000	0.001674  
3960.000000	0.001719  
3959.000000	0.001673  
3958.000000	0.001582  
3957.000000	0.001475  
3956.000000	0.001346  
3955.000000	0.001196  
3954.000000	0.001050  
3953.000000	0.000956  
3952.000000	0.000953  
3951.000000	0.001043  
3950.000000	0.001196  
3949.000000	0.001379  
3948.000000	0.001560  
3947.000000	0.001693  
3946.000000	0.001715  
3945.000000	0.001593  
3944.000000	0.001368  
3943.000000	0.001150  
3942.000000	0.001032  
3941.000000	0.001028  
3940.000000	0.001104  
3939.000000	0.001229  
3938.000000	0.001384  
3937.000000	0.001533  
3936.000000	0.001625  
3935.000000	0.001635  
3934.000000	0.001586  
3933.000000	0.001531  
3932.000000	0.001505  
3931.000000	0.001504  
3930.000000	0.001514  
3929.000000	0.001533  
3928.000000	0.001576  
3927.000000	0.001652  
3926.000000	0.001746  
3925.000000	0.001811  
3924.000000	0.001810  
3923.000000	0.001756  
3922.000000	0.001713  
3921.000000	0.001740  
3920.000000	0.001825  
3919.000000	0.001897  
3918.000000	0.001890  
3917.000000	0.001818  
3916.000000	0.001741  
3915.000000	0.001704  
3914.000000	0.001699  
3913.000000	0.001687  
3912.000000	0.001644  
3911.000000	0.001576  
3910.000000	0.001518  
3909.000000	0.001501  
3908.000000	0.001522  
3907.000000	0.001553  
3906.000000	0.001576  
3905.000000	0.001611  
3904.000000	0.001678  
3903.000000	0.001740  
3902.000000	0.001732  
3901.000000	0.001661  
3900.000000	0.001623  
3899.000000	0.001696  
3898.000000	0.001839  
3897.000000	0.001944  
3896.000000	0.001947  
3895.000000	0.001859  
3894.000000	0.001732  
3893.000000	0.001619  
3892.000000	0.001556  
3891.000000	0.001540  
3890.000000	0.001516  
3889.000000	0.001432  
3888.000000	0.001305  
3887.000000	0.001227  
3886.000000	0.001286  
3885.000000	0.001445  
3884.000000	0.001557  
3883.000000	0.001519  
3882.000000	0.001364  
3881.000000	0.001221  
3880.000000	0.001201  
3879.000000	0.001298  
3878.000000	0.001433  
3877.000000	0.001559  
3876.000000	0.001697  
3875.000000	0.001896  
3874.000000	0.002163  
3873.000000	0.002427  
3872.000000	0.002607  
3871.000000	0.002695  
3870.000000	0.002740  
3869.000000	0.002744  
3868.000000	0.002658  
3867.000000	0.002483  
3866.000000	0.002285  
3865.000000	0.002127  
3864.000000	0.002017  
3863.000000	0.001939  
3862.000000	0.001884  
3861.000000	0.001837  
3860.000000	0.001786  
3859.000000	0.001750  
3858.000000	0.001769  
3857.000000	0.001847  
3856.000000	0.001924  
3855.000000	0.001928  
3854.000000	0.001924  
3853.000000	0.002006  
3852.000000	0.002108  
3851.000000	0.002150  
3850.000000	0.002169  
3849.000000	0.002224  
3848.000000	0.002327  
3847.000000	0.002439  
3846.000000	0.002527  
3845.000000	0.002605  
3844.000000	0.002731  
3843.000000	0.002941  
3842.000000	0.003210  
3841.000000	0.003457  
3840.000000	0.003587  
3839.000000	0.003526  
3838.000000	0.003276  
3837.000000	0.002935  
3836.000000	0.002645  
3835.000000	0.002506  
3834.000000	0.002527  
3833.000000	0.002622  
3832.000000	0.002668  
3831.000000	0.002591  
3830.000000	0.002410  
3829.000000	0.002205  
3828.000000	0.002058  
3827.000000	0.002018  
3826.000000	0.002096  
3825.000000	0.002282  
3824.000000	0.002569  
3823.000000	0.002937  
3822.000000	0.003309  
3821.000000	0.003543  
3820.000000	0.003507  
3819.000000	0.003185  
3818.000000	0.002702  
3817.000000	0.002279  
3816.000000	0.002079  
3815.000000	0.002056  
3814.000000	0.002043  
3813.000000	0.001956  
3812.000000	0.001823  
3811.000000	0.001696  
3810.000000	0.001599  
3809.000000	0.001546  
3808.000000	0.001595  
3807.000000	0.001801  
3806.000000	0.002131  
3805.000000	0.002478  
3804.000000	0.002744  
3803.000000	0.002853  
3802.000000	0.002790  
3801.000000	0.002624  
3800.000000	0.002431  
3799.000000	0.002266  
3798.000000	0.002173  
3797.000000	0.002166  
3796.000000	0.002210  
3795.000000	0.002236  
3794.000000	0.002194  
3793.000000	0.002088  
3792.000000	0.001951  
3791.000000	0.001819  
3790.000000	0.001725  
3789.000000	0.001683  
3788.000000	0.001690  
3787.000000	0.001721  
3786.000000	0.001749  
3785.000000	0.001752  
3784.000000	0.001716  
3783.000000	0.001634  
3782.000000	0.001518  
3781.000000	0.001408  
3780.000000	0.001360  
3779.000000	0.001402  
3778.000000	0.001507  
3777.000000	0.001619  
3776.000000	0.001701  
3775.000000	0.001737  
3774.000000	0.001724  
3773.000000	0.001672  
3772.000000	0.001638  
3771.000000	0.001711  
3770.000000	0.001928  
3769.000000	0.002203  
3768.000000	0.002369  
3767.000000	0.002318  
3766.000000	0.002080  
3765.000000	0.001802  
3764.000000	0.001627  
3763.000000	0.001609  
3762.000000	0.001725  
3761.000000	0.001908  
3760.000000	0.002089  
3759.000000	0.002233  
3758.000000	0.002345  
3757.000000	0.002414  
3756.000000	0.002417  
3755.000000	0.002404  
3754.000000	0.002547  
3753.000000	0.003017  
3752.000000	0.003709  
3751.000000	0.004185  
3750.000000	0.004138  
3749.000000	0.003719  
3748.000000	0.003250  
3747.000000	0.002941  
3746.000000	0.002869  
3745.000000	0.002999  
3744.000000	0.003154  
3743.000000	0.003151  
3742.000000	0.003012  
3741.000000	0.002926  
3740.000000	0.003055  
3739.000000	0.003423  
3738.000000	0.003901  
3737.000000	0.004268  
3736.000000	0.004324  
3735.000000	0.004077  
3734.000000	0.003764  
3733.000000	0.003585  
3732.000000	0.003544  
3731.000000	0.003545  
3730.000000	0.003518  
3729.000000	0.003462  
3728.000000	0.003425  
3727.000000	0.003443  
3726.000000	0.003492  
3725.000000	0.003520  
3724.000000	0.003484  
3723.000000	0.003345  
3722.000000	0.003073  
3721.000000	0.002676  
3720.000000	0.002213  
3719.000000	0.001823  
3718.000000	0.001719  
3717.000000	0.002007  
3716.000000	0.002555  
3715.000000	0.003022  
3714.000000	0.003164  
3713.000000	0.003027  
3712.000000	0.002870  
3711.000000	0.002856  
3710.000000	0.002879  
3709.000000	0.002825  
3708.000000	0.002711  
3707.000000	0.002678  
3706.000000	0.002746  
3705.000000	0.002802  
3704.000000	0.002679  
3703.000000	0.002335  
3702.000000	0.001928  
3701.000000	0.001674  
3700.000000	0.001647  
3699.000000	0.001741  
3698.000000	0.001843  
3697.000000	0.001902  
3696.000000	0.001977  
3695.000000	0.002121  
3694.000000	0.002368  
3693.000000	0.002628  
3692.000000	0.002742  
3691.000000	0.002592  
3690.000000	0.002249  
3689.000000	0.001957  
3688.000000	0.001807  
3687.000000	0.001728  
3686.000000	0.001621  
3685.000000	0.001534  
3684.000000	0.001539  
3683.000000	0.001640  
3682.000000	0.001729  
3681.000000	0.001719  
3680.000000	0.001648  
3679.000000	0.001632  
3678.000000	0.001800  
3677.000000	0.002181  
3676.000000	0.002676  
3675.000000	0.003068  
3674.000000	0.003241  
3673.000000	0.003245  
3672.000000	0.003215  
3671.000000	0.003209  
3670.000000	0.003174  
3669.000000	0.003026  
3668.000000	0.002759  
3667.000000	0.002450  
3666.000000	0.002174  
3665.000000	0.001931  
3664.000000	0.001672  
3663.000000	0.001376  
3662.000000	0.001092  
3661.000000	0.000903  
3660.000000	0.000835  
3659.000000	0.000857  
3658.000000	0.000950  
3657.000000	0.001165  
3656.000000	0.001527  
3655.000000	0.001936  
3654.000000	0.002225  
3653.000000	0.002304  
3652.000000	0.002210  
3651.000000	0.002082  
3650.000000	0.002067  
3649.000000	0.002180  
3648.000000	0.002324  
3647.000000	0.002417  
3646.000000	0.002422  
3645.000000	0.002337  
3644.000000	0.002207  
3643.000000	0.002126  
3642.000000	0.002155  
3641.000000	0.002261  
3640.000000	0.002342  
3639.000000	0.002319  
3638.000000	0.002198  
3637.000000	0.002060  
3636.000000	0.002017  
3635.000000	0.002143  
3634.000000	0.002397  
3633.000000	0.002633  
3632.000000	0.002724  
3631.000000	0.002664  
3630.000000	0.002588  
3629.000000	0.002634  
3628.000000	0.002747  
3627.000000	0.002780  
3626.000000	0.002721  
3625.000000	0.002663  
3624.000000	0.002652  
3623.000000	0.002629  
3622.000000	0.002494  
3621.000000	0.002228  
3620.000000	0.001940  
3619.000000	0.001771  
3618.000000	0.001727  
3617.000000	0.001740  
3616.000000	0.001837  
3615.000000	0.002122  
3614.000000	0.002615  
3613.000000	0.003143  
3612.000000	0.003471  
3611.000000	0.003521  
3610.000000	0.003407  
3609.000000	0.003279  
3608.000000	0.003146  
3607.000000	0.002956  
3606.000000	0.002702  
3605.000000	0.002458  
3604.000000	0.002284  
3603.000000	0.002209  
3602.000000	0.002249  
3601.000000	0.002388  
3600.000000	0.002585  
3599.000000	0.002757  
3598.000000	0.002830  
3597.000000	0.002754  
3596.000000	0.002565  
3595.000000	0.002338  
3594.000000	0.002155  
3593.000000	0.002007  
3592.000000	0.001827  
3591.000000	0.001576  
3590.000000	0.001315  
3589.000000	0.001200  
3588.000000	0.001332  
3587.000000	0.001644  
3586.000000	0.001929  
3585.000000	0.002043  
3584.000000	0.001959  
3583.000000	0.001747  
3582.000000	0.001530  
3581.000000	0.001428  
3580.000000	0.001509  
3579.000000	0.001691  
3578.000000	0.001817  
3577.000000	0.001754  
3576.000000	0.001530  
3575.000000	0.001269  
3574.000000	0.001086  
3573.000000	0.000978  
3572.000000	0.000886  
3571.000000	0.000783  
3570.000000	0.000740  
3569.000000	0.000851  
3568.000000	0.001110  
3567.000000	0.001369  
3566.000000	0.001517  
3565.000000	0.001586  
3564.000000	0.001641  
3563.000000	0.001668  
3562.000000	0.001618  
3561.000000	0.001512  
3560.000000	0.001464  
3559.000000	0.001561  
3558.000000	0.001748  
3557.000000	0.001872  
3556.000000	0.001822  
3555.000000	0.001613  
3554.000000	0.001358  
3553.000000	0.001176  
3552.000000	0.001117  
3551.000000	0.001146  
3550.000000	0.001181  
3549.000000	0.001170  
3548.000000	0.001130  
3547.000000	0.001141  
3546.000000	0.001271  
3545.000000	0.001503  
3544.000000	0.001748  
3543.000000	0.001929  
3542.000000	0.002039  
3541.000000	0.002118  
3540.000000	0.002171  
3539.000000	0.002142  
3538.000000	0.001969  
3537.000000	0.001683  
3536.000000	0.001416  
3535.000000	0.001298  
3534.000000	0.001350  
3533.000000	0.001493  
3532.000000	0.001651  
3531.000000	0.001797  
3530.000000	0.001925  
3529.000000	0.002005  
3528.000000	0.001997  
3527.000000	0.001898  
3526.000000	0.001747  
3525.000000	0.001586  
3524.000000	0.001443  
3523.000000	0.001350  
3522.000000	0.001331  
3521.000000	0.001375  
3520.000000	0.001433  
3519.000000	0.001467  
3518.000000	0.001475  
3517.000000	0.001479  
3516.000000	0.001499  
3515.000000	0.001555  
3514.000000	0.001660  
3513.000000	0.001803  
3512.000000	0.001937  
3511.000000	0.002007  
3510.000000	0.001998  
3509.000000	0.001935  
3508.000000	0.001850  
3507.000000	0.001756  
3506.000000	0.001668  
3505.000000	0.001613  
3504.000000	0.001610  
3503.000000	0.001661  
3502.000000	0.001747  
3501.000000	0.001840  
3500.000000	0.001916  
3499.000000	0.001964  
3498.000000	0.001993  
3497.000000	0.002008  
3496.000000	0.002007  
3495.000000	0.001988  
3494.000000	0.001959  
3493.000000	0.001915  
3492.000000	0.001822  
3491.000000	0.001661  
3490.000000	0.001484  
3489.000000	0.001387  
3488.000000	0.001432  
3487.000000	0.001597  
3486.000000	0.001821  
3485.000000	0.002043  
3484.000000	0.002194  
3483.000000	0.002199  
3482.000000	0.002038  
3481.000000	0.001792  
3480.000000	0.001582  
3479.000000	0.001470  
3478.000000	0.001438  
3477.000000	0.001453  
3476.000000	0.001508  
3475.000000	0.001603  
3474.000000	0.001715  
3473.000000	0.001796  
3472.000000	0.001811  
3471.000000	0.001751  
3470.000000	0.001647  
3469.000000	0.001552  
3468.000000	0.001509  
3467.000000	0.001529  
3466.000000	0.001580  
3465.000000	0.001604  
3464.000000	0.001546  
3463.000000	0.001390  
3462.000000	0.001195  
3461.000000	0.001066  
3460.000000	0.001070  
3459.000000	0.001182  
3458.000000	0.001322  
3457.000000	0.001432  
3456.000000	0.001499  
3455.000000	0.001533  
3454.000000	0.001555  
3453.000000	0.001608  
3452.000000	0.001726  
3451.000000	0.001876  
3450.000000	0.001975  
3449.000000	0.001968  
3448.000000	0.001890  
3447.000000	0.001827  
3446.000000	0.001837  
3445.000000	0.001922  
3444.000000	0.002042  
3443.000000	0.002139  
3442.000000	0.002165  
3441.000000	0.002129  
3440.000000	0.002110  
3439.000000	0.002177  
3438.000000	0.002299  
3437.000000	0.002352  
3436.000000	0.002234  
3435.000000	0.001973  
3434.000000	0.001729  
3433.000000	0.001664  
3432.000000	0.001806  
3431.000000	0.002029  
3430.000000	0.002169  
3429.000000	0.002146  
3428.000000	0.001995  
3427.000000	0.001794  
3426.000000	0.001623  
3425.000000	0.001537  
3424.000000	0.001550  
3423.000000	0.001624  
3422.000000	0.001696  
3421.000000	0.001747  
3420.000000	0.001800  
3419.000000	0.001864  
3418.000000	0.001911  
3417.000000	0.001913  
3416.000000	0.001888  
3415.000000	0.001871  
3414.000000	0.001878  
3413.000000	0.001920  
3412.000000	0.002016  
3411.000000	0.002155  
3410.000000	0.002261  
3409.000000	0.002237  
3408.000000	0.002055  
3407.000000	0.001786  
3406.000000	0.001548  
3405.000000	0.001417  
3404.000000	0.001404  
3403.000000	0.001476  
3402.000000	0.001598  
3401.000000	0.001748  
3400.000000	0.001893  
3399.000000	0.001981  
3398.000000	0.001981  
3397.000000	0.001943  
3396.000000	0.001985  
3395.000000	0.002187  
3394.000000	0.002504  
3393.000000	0.002784  
3392.000000	0.002886  
3391.000000	0.002771  
3390.000000	0.002518  
3389.000000	0.002270  
3388.000000	0.002133  
3387.000000	0.002100  
3386.000000	0.002079  
3385.000000	0.002019  
3384.000000	0.001980  
3383.000000	0.002064  
3382.000000	0.002275  
3381.000000	0.002500  
3380.000000	0.002622  
3379.000000	0.002603  
3378.000000	0.002458  
3377.000000	0.002204  
3376.000000	0.001868  
3375.000000	0.001534  
3374.000000	0.001320  
3373.000000	0.001299  
3372.000000	0.001443  
3371.000000	0.001664  
3370.000000	0.001891  
3369.000000	0.002107  
3368.000000	0.002312  
3367.000000	0.002484  
3366.000000	0.002579  
3365.000000	0.002584  
3364.000000	0.002523  
3363.000000	0.002424  
3362.000000	0.002311  
3361.000000	0.002229  
3360.000000	0.002236  
3359.000000	0.002336  
3358.000000	0.002448  
3357.000000	0.002482  
3356.000000	0.002422  
3355.000000	0.002314  
3354.000000	0.002186  
3353.000000	0.002044  
3352.000000	0.001915  
3351.000000	0.001851  
3350.000000	0.001858  
3349.000000	0.001885  
3348.000000	0.001906  
3347.000000	0.001962  
3346.000000	0.002093  
3345.000000	0.002261  
3344.000000	0.002378  
3343.000000	0.002405  
3342.000000	0.002375  
3341.000000	0.002329  
3340.000000	0.002264  
3339.000000	0.002151  
3338.000000	0.001998  
3337.000000	0.001860  
3336.000000	0.001795  
3335.000000	0.001810  
3334.000000	0.001862  
3333.000000	0.001907  
3332.000000	0.001944  
3331.000000	0.002000  
3330.000000	0.002091  
3329.000000	0.002205  
3328.000000	0.002321  
3327.000000	0.002405  
3326.000000	0.002412  
3325.000000	0.002321  
3324.000000	0.002185  
3323.000000	0.002098  
3322.000000	0.002100  
3321.000000	0.002143  
3320.000000	0.002172  
3319.000000	0.002221  
3318.000000	0.002360  
3317.000000	0.002583  
3316.000000	0.002773  
3315.000000	0.002812  
3314.000000	0.002684  
3313.000000	0.002481  
3312.000000	0.002317  
3311.000000	0.002263  
3310.000000	0.002315  
3309.000000	0.002398  
3308.000000	0.002402  
3307.000000	0.002263  
3306.000000	0.002040  
3305.000000	0.001878  
3304.000000	0.001878  
3303.000000	0.002015  
3302.000000	0.002189  
3301.000000	0.002343  
3300.000000	0.002477  
3299.000000	0.002571  
3298.000000	0.002560  
3297.000000	0.002431  
3296.000000	0.002280  
3295.000000	0.002222  
3294.000000	0.002271  
3293.000000	0.002352  
3292.000000	0.002419  
3291.000000	0.002482  
3290.000000	0.002533  
3289.000000	0.002512  
3288.000000	0.002390  
3287.000000	0.002217  
3286.000000	0.002072  
3285.000000	0.001973  
3284.000000	0.001899  
3283.000000	0.001851  
3282.000000	0.001851  
3281.000000	0.001893  
3280.000000	0.001948  
3279.000000	0.002006  
3278.000000	0.002093  
3277.000000	0.002232  
3276.000000	0.002413  
3275.000000	0.002605  
3274.000000	0.002779  
3273.000000	0.002899  
3272.000000	0.002917  
3271.000000	0.002801  
3270.000000	0.002575  
3269.000000	0.002304  
3268.000000	0.002057  
3267.000000	0.001870  
3266.000000	0.001758  
3265.000000	0.001744  
3264.000000	0.001849  
3263.000000	0.002044  
3262.000000	0.002250  
3261.000000	0.002412  
3260.000000	0.002545  
3259.000000	0.002694  
3258.000000	0.002845  
3257.000000	0.002913  
3256.000000	0.002836  
3255.000000	0.002653  
3254.000000	0.002487  
3253.000000	0.002446  
3252.000000	0.002545  
3251.000000	0.002690  
3250.000000	0.002755  
3249.000000	0.002706  
3248.000000	0.002621  
3247.000000	0.002592  
3246.000000	0.002602  
3245.000000	0.002563  
3244.000000	0.002464  
3243.000000	0.002407  
3242.000000	0.002470  
3241.000000	0.002601  
3240.000000	0.002679  
3239.000000	0.002638  
3238.000000	0.002491  
3237.000000	0.002282  
3236.000000	0.002067  
3235.000000	0.001915  
3234.000000	0.001876  
3233.000000	0.001936  
3232.000000	0.002047  
3231.000000	0.002161  
3230.000000	0.002244  
3229.000000	0.002262  
3228.000000	0.002225  
3227.000000	0.002206  
3226.000000	0.002273  
3225.000000	0.002416  
3224.000000	0.002561  
3223.000000	0.002655  
3222.000000	0.002686  
3221.000000	0.002649  
3220.000000	0.002543  
3219.000000	0.002413  
3218.000000	0.002331  
3217.000000	0.002334  
3216.000000	0.002403  
3215.000000	0.002506  
3214.000000	0.002621  
3213.000000	0.002719  
3212.000000	0.002767  
3211.000000	0.002758  
3210.000000	0.002717  
3209.000000	0.002667  
3208.000000	0.002627  
3207.000000	0.002627  
3206.000000	0.002696  
3205.000000	0.002828  
3204.000000	0.002991  
3203.000000	0.003155  
3202.000000	0.003289  
3201.000000	0.003322  
3200.000000	0.003171  
3199.000000	0.002838  
3198.000000	0.002434  
3197.000000	0.002087  
3196.000000	0.001853  
3195.000000	0.001729  
3194.000000	0.001714  
3193.000000	0.001801  
3192.000000	0.001946  
3191.000000	0.002102  
3190.000000	0.002266  
3189.000000	0.002467  
3188.000000	0.002695  
3187.000000	0.002886  
3186.000000	0.002977  
3185.000000	0.002953  
3184.000000	0.002840  
3183.000000	0.002668  
3182.000000	0.002482  
3181.000000	0.002338  
3180.000000	0.002279  
3179.000000	0.002288  
3178.000000	0.002316  
3177.000000	0.002342  
3176.000000	0.002402  
3175.000000	0.002526  
3174.000000	0.002674  
3173.000000	0.002768  
3172.000000	0.002772  
3171.000000	0.002724  
3170.000000	0.002682  
3169.000000	0.002674  
3168.000000	0.002695  
3167.000000	0.002732  
3166.000000	0.002763  
3165.000000	0.002765  
3164.000000	0.002733  
3163.000000	0.002701  
3162.000000	0.002692  
3161.000000	0.002696  
3160.000000	0.002692  
3159.000000	0.002698  
3158.000000	0.002746  
3157.000000	0.002826  
3156.000000	0.002887  
3155.000000	0.002901  
3154.000000	0.002908  
3153.000000	0.002965  
3152.000000	0.003067  
3151.000000	0.003129  
3150.000000	0.003053  
3149.000000	0.002823  
3148.000000	0.002533  
3147.000000	0.002307  
3146.000000	0.002200  
3145.000000	0.002177  
3144.000000	0.002191  
3143.000000	0.002230  
3142.000000	0.002288  
3141.000000	0.002331  
3140.000000	0.002341  
3139.000000	0.002373  
3138.000000	0.002500  
3137.000000	0.002707  
3136.000000	0.002878  
3135.000000	0.002902  
3134.000000	0.002776  
3133.000000	0.002614  
3132.000000	0.002560  
3131.000000	0.002686  
3130.000000	0.002931  
3129.000000	0.003130  
3128.000000	0.003148  
3127.000000	0.002982  
3126.000000	0.002751  
3125.000000	0.002581  
3124.000000	0.002533  
3123.000000	0.002616  
3122.000000	0.002804  
3121.000000	0.003020  
3120.000000	0.003150  
3119.000000	0.003118  
3118.000000	0.002944  
3117.000000	0.002723  
3116.000000	0.002566  
3115.000000	0.002534  
3114.000000	0.002619  
3113.000000	0.002751  
3112.000000	0.002865  
3111.000000	0.002937  
3110.000000	0.002973  
3109.000000	0.002962  
3108.000000	0.002882  
3107.000000	0.002741  
3106.000000	0.002594  
3105.000000	0.002503  
3104.000000	0.002504  
3103.000000	0.002606  
3102.000000	0.002778  
3101.000000	0.002930  
3100.000000	0.002964  
3099.000000	0.002855  
3098.000000	0.002677  
3097.000000	0.002534  
3096.000000	0.002479  
3095.000000	0.002507  
3094.000000	0.002587  
3093.000000	0.002679  
3092.000000	0.002750  
3091.000000	0.002803  
3090.000000	0.002861  
3089.000000	0.002934  
3088.000000	0.002997  
3087.000000	0.003040  
3086.000000	0.003075  
3085.000000	0.003101  
3084.000000	0.003078  
3083.000000	0.002985  
3082.000000	0.002880  
3081.000000	0.002870  
3080.000000	0.003013  
3079.000000	0.003273  
3078.000000	0.003551  
3077.000000	0.003745  
3076.000000	0.003797  
3075.000000	0.003721  
3074.000000	0.003584  
3073.000000	0.003464  
3072.000000	0.003402  
3071.000000	0.003414  
3070.000000	0.003496  
3069.000000	0.003612  
3068.000000	0.003693  
3067.000000	0.003694  
3066.000000	0.003649  
3065.000000	0.003647  
3064.000000	0.003754  
3063.000000	0.003947  
3062.000000	0.004136  
3061.000000	0.004221  
3060.000000	0.004168  
3059.000000	0.004027  
3058.000000	0.003896  
3057.000000	0.003838  
3056.000000	0.003851  
3055.000000	0.003912  
3054.000000	0.004013  
3053.000000	0.004130  
3052.000000	0.004194  
3051.000000	0.004150  
3050.000000	0.004040  
3049.000000	0.003979  
3048.000000	0.004041  
3047.000000	0.004197  
3046.000000	0.004365  
3045.000000	0.004482  
3044.000000	0.004509  
3043.000000	0.004433  
3042.000000	0.004289  
3041.000000	0.004175  
3040.000000	0.004186  
3039.000000	0.004327  
3038.000000	0.004503  
3037.000000	0.004608  
3036.000000	0.004620  
3035.000000	0.004588  
3034.000000	0.004570  
3033.000000	0.004582  
3032.000000	0.004625  
3031.000000	0.004722  
3030.000000	0.004903  
3029.000000	0.005146  
3028.000000	0.005380  
3027.000000	0.005543  
3026.000000	0.005649  
3025.000000	0.005771  
3024.000000	0.005976  
3023.000000	0.006268  
3022.000000	0.006576  
3021.000000	0.006787  
3020.000000	0.006833  
3019.000000	0.006776  
3018.000000	0.006783  
3017.000000	0.006976  
3016.000000	0.007321  
3015.000000	0.007673  
3014.000000	0.007928  
3013.000000	0.008083  
3012.000000	0.008188  
3011.000000	0.008278  
3010.000000	0.008379  
3009.000000	0.008520  
3008.000000	0.008706  
3007.000000	0.008901  
3006.000000	0.009049  
3005.000000	0.009103  
3004.000000	0.009037  
3003.000000	0.008871  
3002.000000	0.008700  
3001.000000	0.008662  
3000.000000	0.008841  
2999.000000	0.009186  
2998.000000	0.009555  
2997.000000	0.009819  
2996.000000	0.009945  
2995.000000	0.009991  
2994.000000	0.010062  
2993.000000	0.010263  
2992.000000	0.010648  
2991.000000	0.011194  
2990.000000	0.011817  
2989.000000	0.012432  
2988.000000	0.013016  
2987.000000	0.013633  
2986.000000	0.014384  
2985.000000	0.015316  
2984.000000	0.016384  
2983.000000	0.017505  
2982.000000	0.018653  
2981.000000	0.019892  
2980.000000	0.021298  
2979.000000	0.022901  
2978.000000	0.024707  
2977.000000	0.026770  
2976.000000	0.029192  
2975.000000	0.032053  
2974.000000	0.035343  
2973.000000	0.038983  
2972.000000	0.042885  
2971.000000	0.047016  
2970.000000	0.051425  
2969.000000	0.056214  
2968.000000	0.061443  
2967.000000	0.067021  
2966.000000	0.072711  
2965.000000	0.078269  
2964.000000	0.083595  
2963.000000	0.088727  
2962.000000	0.093710  
2961.000000	0.098508  
2960.000000	0.103025  
2959.000000	0.107146  
2958.000000	0.110722  
2957.000000	0.113578  
2956.000000	0.115581  
2955.000000	0.116685  
2954.000000	0.116904  
2953.000000	0.116273  
2952.000000	0.114870  
2951.000000	0.112852  
2950.000000	0.110458  
2949.000000	0.107956  
2948.000000	0.105592  
2947.000000	0.103559  
2946.000000	0.102005  
2945.000000	0.101071  
2944.000000	0.100917  
2943.000000	0.101691  
2942.000000	0.103465  
2941.000000	0.106195  
2940.000000	0.109764  
2939.000000	0.114076  
2938.000000	0.119102  
2937.000000	0.124825  
2936.000000	0.131163  
2935.000000	0.137944  
2934.000000	0.144993  
2933.000000	0.152242  
2932.000000	0.159730  
2931.000000	0.167491  
2930.000000	0.175443  
2929.000000	0.183401  
2928.000000	0.191127  
2927.000000	0.198335  
2926.000000	0.204697  
2925.000000	0.209925  
2924.000000	0.213857  
2923.000000	0.216373  
2922.000000	0.217317  
2921.000000	0.216610  
2920.000000	0.214429  
2919.000000	0.211132  
2918.000000	0.207015  
2917.000000	0.202220  
2916.000000	0.196894  
2915.000000	0.191278  
2914.000000	0.185603  
2913.000000	0.179996  
2912.000000	0.174535  
2911.000000	0.169339  
2910.000000	0.164506  
2909.000000	0.159998  
2908.000000	0.155643  
2907.000000	0.151282  
2906.000000	0.146879  
2905.000000	0.142505  
2904.000000	0.138246  
2903.000000	0.134155  
2902.000000	0.130245  
2901.000000	0.126506  
2900.000000	0.122888  
2899.000000	0.119308  
2898.000000	0.115701  
2897.000000	0.112082  
2896.000000	0.108540  
2895.000000	0.105143  
2894.000000	0.101866  
2893.000000	0.098616  
2892.000000	0.095316  
2891.000000	0.091982  
2890.000000	0.088718  
2889.000000	0.085674  
2888.000000	0.082964  
2887.000000	0.080623  
2886.000000	0.078617  
2885.000000	0.076927  
2884.000000	0.075611  
2883.000000	0.074770  
2882.000000	0.074473  
2881.000000	0.074742  
2880.000000	0.075620  
2879.000000	0.077213  
2878.000000	0.079607  
2877.000000	0.082724  
2876.000000	0.086271  
2875.000000	0.089831  
2874.000000	0.093011  
2873.000000	0.095541  
2872.000000	0.097304  
2871.000000	0.098324  
2870.000000	0.098758  
2869.000000	0.098856  
2868.000000	0.098907  
2867.000000	0.099166  
2866.000000	0.099817  
2865.000000	0.101002  
2864.000000	0.102849  
2863.000000	0.105443  
2862.000000	0.108765  
2861.000000	0.112705  
2860.000000	0.117123  
2859.000000	0.121876  
2858.000000	0.126751  
2857.000000	0.131402  
2856.000000	0.135380  
2855.000000	0.138216  
2854.000000	0.139503  
2853.000000	0.138983  
2852.000000	0.136628  
2851.000000	0.132638  
2850.000000	0.127339  
2849.000000	0.121081  
2848.000000	0.114197  
2847.000000	0.107006  
2846.000000	0.099794  
2845.000000	0.092741  
2844.000000	0.085891  
2843.000000	0.079205  
2842.000000	0.072680  
2841.000000	0.066411  
2840.000000	0.060540  
2839.000000	0.055167  
2838.000000	0.050312  
2837.000000	0.045947  
2836.000000	0.042037  
2835.000000	0.038535  
2834.000000	0.035371  
2833.000000	0.032487  
2832.000000	0.029875  
2831.000000	0.027573  
2830.000000	0.025622  
2829.000000	0.024009  
2828.000000	0.022658  
2827.000000	0.021471  
2826.000000	0.020382  
2825.000000	0.019367  
2824.000000	0.018434  
2823.000000	0.017599  
2822.000000	0.016870  
2821.000000	0.016232  
2820.000000	0.015646  
2819.000000	0.015070  
2818.000000	0.014490  
2817.000000	0.013924  
2816.000000	0.013399  
2815.000000	0.012925  
2814.000000	0.012490  
2813.000000	0.012069  
2812.000000	0.011644  
2811.000000	0.011229  
2810.000000	0.010869  
2809.000000	0.010607  
2808.000000	0.010441  
2807.000000	0.010327  
2806.000000	0.010214  
2805.000000	0.010071  
2804.000000	0.009881  
2803.000000	0.009635  
2802.000000	0.009342  
2801.000000	0.009046  
2800.000000	0.008799  
2799.000000	0.008624  
2798.000000	0.008498  
2797.000000	0.008395  
2796.000000	0.008303  
2795.000000	0.008215  
2794.000000	0.008084  
2793.000000	0.007840  
2792.000000	0.007467  
2791.000000	0.007049  
2790.000000	0.006729  
2789.000000	0.006589  
2788.000000	0.006594  
2787.000000	0.006639  
2786.000000	0.006643  
2785.000000	0.006588  
2784.000000	0.006491  
2783.000000	0.006371  
2782.000000	0.006251  
2781.000000	0.006169  
2780.000000	0.006153  
2779.000000	0.006181  
2778.000000	0.006175  
2777.000000	0.006058  
2776.000000	0.005815  
2775.000000	0.005519  
2774.000000	0.005287  
2773.000000	0.005201  
2772.000000	0.005254  
2771.000000	0.005352  
2770.000000	0.005389  
2769.000000	0.005314  
2768.000000	0.005145  
2767.000000	0.004942  
2766.000000	0.004772  
2765.000000	0.004700  
2764.000000	0.004757  
2763.000000	0.004906  
2762.000000	0.005047  
2761.000000	0.005092  
2760.000000	0.005037  
2759.000000	0.004952  
2758.000000	0.004898  
2757.000000	0.004879  
2756.000000	0.004867  
2755.000000	0.004855  
2754.000000	0.004843  
2753.000000	0.004820  
2752.000000	0.004769  
2751.000000	0.004700  
2750.000000	0.004657  
2749.000000	0.004658  
2748.000000	0.004671  
2747.000000	0.004646  
2746.000000	0.004576  
2745.000000	0.004506  
2744.000000	0.004491  
2743.000000	0.004543  
2742.000000	0.004634  
2741.000000	0.004730  
2740.000000	0.004812  
2739.000000	0.004874  
2738.000000	0.004910  
2737.000000	0.004926  
2736.000000	0.004959  
2735.000000	0.005055  
2734.000000	0.005226  
2733.000000	0.005412  
2732.000000	0.005518  
2731.000000	0.005490  
2730.000000	0.005362  
2729.000000	0.005233  
2728.000000	0.005182  
2727.000000	0.005209  
2726.000000	0.005243  
2725.000000	0.005218  
2724.000000	0.005129  
2723.000000	0.005028  
2722.000000	0.004961  
2721.000000	0.004939  
2720.000000	0.004957  
2719.000000	0.005003  
2718.000000	0.005055  
2717.000000	0.005075  
2716.000000	0.005041  
2715.000000	0.004965  
2714.000000	0.004868  
2713.000000	0.004745  
2712.000000	0.004585  
2711.000000	0.004415  
2710.000000	0.004291  
2709.000000	0.004243  
2708.000000	0.004249  
2707.000000	0.004264  
2706.000000	0.004261  
2705.000000	0.004226  
2704.000000	0.004150  
2703.000000	0.004042  
2702.000000	0.003929  
2701.000000	0.003843  
2700.000000	0.003788  
2699.000000	0.003756  
2698.000000	0.003743  
2697.000000	0.003758  
2696.000000	0.003814  
2695.000000	0.003915  
2694.000000	0.004042  
2693.000000	0.004143  
2692.000000	0.004160  
2691.000000	0.004095  
2690.000000	0.004037  
2689.000000	0.004094  
2688.000000	0.004285  
2687.000000	0.004512  
2686.000000	0.004652  
2685.000000	0.004659  
2684.000000	0.004587  
2683.000000	0.004524  
2682.000000	0.004518  
2681.000000	0.004560  
2680.000000	0.004614  
2679.000000	0.004650  
2678.000000	0.004660  
2677.000000	0.004667  
2676.000000	0.004706  
2675.000000	0.004792  
2674.000000	0.004891  
2673.000000	0.004941  
2672.000000	0.004909  
2671.000000	0.004814  
2670.000000	0.004709  
2669.000000	0.004640  
2668.000000	0.004641  
2667.000000	0.004719  
2666.000000	0.004848  
2665.000000	0.004964  
2664.000000	0.005002  
2663.000000	0.004937  
2662.000000	0.004785  
2661.000000	0.004584  
2660.000000	0.004390  
2659.000000	0.004249  
2658.000000	0.004170  
2657.000000	0.004117  
2656.000000	0.004069  
2655.000000	0.004055  
2654.000000	0.004103  
2653.000000	0.004164  
2652.000000	0.004156  
2651.000000	0.004075  
2650.000000	0.004013  
2649.000000	0.004030  
2648.000000	0.004086  
2647.000000	0.004109  
2646.000000	0.004091  
2645.000000	0.004079  
2644.000000	0.004106  
2643.000000	0.004172  
2642.000000	0.004265  
2641.000000	0.004355  
2640.000000	0.004378  
2639.000000	0.004280  
2638.000000	0.004071  
2637.000000	0.003825  
2636.000000	0.003635  
2635.000000	0.003578  
2634.000000	0.003687  
2633.000000	0.003906  
2632.000000	0.004095  
2631.000000	0.004131  
2630.000000	0.004014  
2629.000000	0.003849  
2628.000000	0.003736  
2627.000000	0.003704  
2626.000000	0.003730  
2625.000000	0.003767  
2624.000000	0.003760  
2623.000000	0.003679  
2622.000000	0.003556  
2621.000000	0.003453  
2620.000000	0.003393  
2619.000000	0.003354  
2618.000000	0.003325  
2617.000000	0.003333  
2616.000000	0.003397  
2615.000000	0.003498  
2614.000000	0.003602  
2613.000000	0.003695  
2612.000000	0.003770  
2611.000000	0.003826  
2610.000000	0.003870  
2609.000000	0.003915  
2608.000000	0.003958  
2607.000000	0.003986  
2606.000000	0.003998  
2605.000000	0.004003  
2604.000000	0.003974  
2603.000000	0.003867  
2602.000000	0.003701  
2601.000000	0.003582  
2600.000000	0.003593  
2599.000000	0.003692  
2598.000000	0.003750  
2597.000000	0.003689  
2596.000000	0.003555  
2595.000000	0.003433  
2594.000000	0.003338  
2593.000000	0.003213  
2592.000000	0.003022  
2591.000000	0.002821  
2590.000000	0.002715  
2589.000000	0.002739  
2588.000000	0.002821  
2587.000000	0.002877  
2586.000000	0.002900  
2585.000000	0.002938  
2584.000000	0.002992  
2583.000000	0.002997  
2582.000000	0.002921  
2581.000000	0.002819  
2580.000000	0.002779  
2579.000000	0.002825  
2578.000000	0.002907  
2577.000000	0.002955  
2576.000000	0.002914  
2575.000000	0.002768  
2574.000000	0.002565  
2573.000000	0.002413  
2572.000000	0.002401  
2571.000000	0.002508  
2570.000000	0.002627  
2569.000000	0.002675  
2568.000000	0.002656  
2567.000000	0.002615  
2566.000000	0.002575  
2565.000000	0.002529  
2564.000000	0.002465  
2563.000000	0.002388  
2562.000000	0.002315  
2561.000000	0.002274  
2560.000000	0.002299  
2559.000000	0.002400  
2558.000000	0.002546  
2557.000000	0.002698  
2556.000000	0.002825  
2555.000000	0.002891  
2554.000000	0.002853  
2553.000000	0.002725  
2552.000000	0.002625  
2551.000000	0.002685  
2550.000000	0.002902  
2549.000000	0.003112  
2548.000000	0.003150  
2547.000000	0.002987  
2546.000000	0.002713  
2545.000000	0.002423  
2544.000000	0.002199  
2543.000000	0.002117  
2542.000000	0.002196  
2541.000000	0.002335  
2540.000000	0.002391  
2539.000000	0.002347  
2538.000000	0.002321  
2537.000000	0.002393  
2536.000000	0.002486  
2535.000000	0.002473  
2534.000000	0.002331  
2533.000000	0.002155  
2532.000000	0.002036  
2531.000000	0.001981  
2530.000000	0.001932  
2529.000000	0.001837  
2528.000000	0.001709  
2527.000000	0.001634  
2526.000000	0.001689  
2525.000000	0.001862  
2524.000000	0.002074  
2523.000000	0.002274  
2522.000000	0.002459  
2521.000000	0.002584  
2520.000000	0.002547  
2519.000000	0.002333  
2518.000000	0.002111  
2517.000000	0.002086  
2516.000000	0.002282  
2515.000000	0.002533  
2514.000000	0.002686  
2513.000000	0.002726  
2512.000000	0.002709  
2511.000000	0.002653  
2510.000000	0.002545  
2509.000000	0.002399  
2508.000000	0.002275  
2507.000000	0.002248  
2506.000000	0.002357  
2505.000000	0.002540  
2504.000000	0.002650  
2503.000000	0.002578  
2502.000000	0.002379  
2501.000000	0.002240  
2500.000000	0.002280  
2499.000000	0.002425  
2498.000000	0.002474  
2497.000000	0.002278  
2496.000000	0.001860  
2495.000000	0.001394  
2494.000000	0.001088  
2493.000000	0.001055  
2492.000000	0.001262  
2491.000000	0.001594  
2490.000000	0.001945  
2489.000000	0.002251  
2488.000000	0.002457  
2487.000000	0.002515  
2486.000000	0.002408  
2485.000000	0.002168  
2484.000000	0.001867  
2483.000000	0.001617  
2482.000000	0.001547  
2481.000000	0.001726  
2480.000000	0.002098  
2479.000000	0.002496  
2478.000000	0.002746  
2477.000000	0.002761  
2476.000000	0.002572  
2475.000000	0.002299  
2474.000000	0.002077  
2473.000000	0.001976  
2472.000000	0.001966  
2471.000000	0.001953  
2470.000000	0.001870  
2469.000000	0.001724  
2468.000000	0.001603  
2467.000000	0.001629  
2466.000000	0.001847  
2465.000000	0.002142  
2464.000000	0.002310  
2463.000000	0.002261  
2462.000000	0.002106  
2461.000000	0.002007  
2460.000000	0.001996  
2459.000000	0.002012  
2458.000000	0.002050  
2457.000000	0.002142  
2456.000000	0.002227  
2455.000000	0.002170  
2454.000000	0.001942  
2453.000000	0.001678  
2452.000000	0.001500  
2451.000000	0.001385  
2450.000000	0.001269  
2449.000000	0.001195  
2448.000000	0.001270  
2447.000000	0.001513  
2446.000000	0.001825  
2445.000000	0.002086  
2444.000000	0.002231  
2443.000000	0.002264  
2442.000000	0.002235  
2441.000000	0.002194  
2440.000000	0.002130  
2439.000000	0.001998  
2438.000000	0.001832  
2437.000000	0.001772  
2436.000000	0.001906  
2435.000000	0.002125  
2434.000000	0.002222  
2433.000000	0.002122  
2432.000000	0.001944  
2431.000000	0.001831  
2430.000000	0.001808  
2429.000000	0.001813  
2428.000000	0.001821  
2427.000000	0.001860  
2426.000000	0.001952  
2425.000000	0.002069  
2424.000000	0.002151  
2423.000000	0.002156  
2422.000000	0.002078  
2421.000000	0.001958  
2420.000000	0.001863  
2419.000000	0.001837  
2418.000000	0.001865  
2417.000000	0.001886  
2416.000000	0.001861  
2415.000000	0.001829  
2414.000000	0.001874  
2413.000000	0.002027  
2412.000000	0.002208  
2411.000000	0.002304  
2410.000000	0.002289  
2409.000000	0.002245  
2408.000000	0.002260  
2407.000000	0.002326  
2406.000000	0.002355  
2405.000000	0.002267  
2404.000000	0.002064  
2403.000000	0.001813  
2402.000000	0.001603  
2401.000000	0.001484  
2400.000000	0.001459  
2399.000000	0.001508  
2398.000000	0.001624  
2397.000000	0.001791  
2396.000000	0.001948  
2395.000000	0.002028  
2394.000000	0.002036  
2393.000000	0.002064  
2392.000000	0.002185  
2391.000000	0.002359  
2390.000000	0.002469  
2389.000000	0.002449  
2388.000000	0.002347  
2387.000000	0.002258  
2386.000000	0.002220  
2385.000000	0.002136  
2384.000000	0.001811  
2383.000000	0.001049  
2382.000000	-0.000207 
2381.000000	-0.001804 
2380.000000	-0.003396 
2379.000000	-0.004572 
2378.000000	-0.005060 
2377.000000	-0.004786 
2376.000000	-0.003739 
2375.000000	-0.001921 
2374.000000	0.000618  
2373.000000	0.003563  
2372.000000	0.006417  
2371.000000	0.008837  
2370.000000	0.010672  
2369.000000	0.011760  
2368.000000	0.012129  
2367.000000	0.012240  
2366.000000	0.012554  
2365.000000	0.013099  
2364.000000	0.013984  
2363.000000	0.014929  
2362.000000	0.015109  
2361.000000	0.014765  
2360.000000	0.014531  
2359.000000	0.014990  
2358.000000	0.016040  
2357.000000	0.016225  
2356.000000	0.015469  
2355.000000	0.014060  
2354.000000	0.012068  
2353.000000	0.009962  
2352.000000	0.010092  
2351.000000	0.015619  
2350.000000	0.024101  
2349.000000	0.029723  
2348.000000	0.028457  
2347.000000	0.021426  
2346.000000	0.014759  
2345.000000	0.012543  
2344.000000	0.015106  
2343.000000	0.018184  
2342.000000	0.018819  
2341.000000	0.017960  
2340.000000	0.016789  
2339.000000	0.016206  
2338.000000	0.015476  
2337.000000	0.014424  
2336.000000	0.013141  
2335.000000	0.012083  
2334.000000	0.010745  
2333.000000	0.008838  
2332.000000	0.006221  
2331.000000	0.004553  
2330.000000	0.003844  
2329.000000	0.004251  
2328.000000	0.005210  
2327.000000	0.005700  
2326.000000	0.005524  
2325.000000	0.003781  
2324.000000	0.001542  
2323.000000	-0.000845 
2322.000000	-0.002873 
2321.000000	-0.004240 
2320.000000	-0.004930 
2319.000000	-0.004469 
2318.000000	-0.003692 
2317.000000	-0.003137 
2316.000000	-0.003822 
2315.000000	-0.005374 
2314.000000	-0.007267 
2313.000000	-0.008557 
2312.000000	-0.009107 
2311.000000	-0.009083 
2310.000000	-0.008843 
2309.000000	-0.008552 
2308.000000	-0.008160 
2307.000000	-0.007713 
2306.000000	-0.007200 
2305.000000	-0.006682 
2304.000000	-0.006105 
2303.000000	-0.005454 
2302.000000	-0.004823 
2301.000000	-0.004243 
2300.000000	-0.003758 
2299.000000	-0.003271 
2298.000000	-0.002682 
2297.000000	-0.001941 
2296.000000	-0.001134 
2295.000000	-0.000488 
2294.000000	-0.000018 
2293.000000	0.000290  
2292.000000	0.000609  
2291.000000	0.000862  
2290.000000	0.001036  
2289.000000	0.001081  
2288.000000	0.001080  
2287.000000	0.001002  
2286.000000	0.000852  
2285.000000	0.000713  
2284.000000	0.000756  
2283.000000	0.001001  
2282.000000	0.001286  
2281.000000	0.001487  
2280.000000	0.001647  
2279.000000	0.001894  
2278.000000	0.002176  
2277.000000	0.002361  
2276.000000	0.002404  
2275.000000	0.002524  
2274.000000	0.002926  
2273.000000	0.003534  
2272.000000	0.004027  
2271.000000	0.004174  
2270.000000	0.004064  
2269.000000	0.003894  
2268.000000	0.003684  
2267.000000	0.003302  
2266.000000	0.002742  
2265.000000	0.002267  
2264.000000	0.002141  
2263.000000	0.002339  
2262.000000	0.002658  
2261.000000	0.002906  
2260.000000	0.003035  
2259.000000	0.002998  
2258.000000	0.002794  
2257.000000	0.002573  
2256.000000	0.002521  
2255.000000	0.002654  
2254.000000	0.002748  
2253.000000	0.002674  
2252.000000	0.002527  
2251.000000	0.002474  
2250.000000	0.002501  
2249.000000	0.002451  
2248.000000	0.002228  
2247.000000	0.001846  
2246.000000	0.001389  
2245.000000	0.000975  
2244.000000	0.000766  
2243.000000	0.000853  
2242.000000	0.001153  
2241.000000	0.001472  
2240.000000	0.001686  
2239.000000	0.001792  
2238.000000	0.001820  
2237.000000	0.001776  
2236.000000	0.001678  
2235.000000	0.001586  
2234.000000	0.001564  
2233.000000	0.001653  
2232.000000	0.001837  
2231.000000	0.002005  
2230.000000	0.001997  
2229.000000	0.001773  
2228.000000	0.001524  
2227.000000	0.001518  
2226.000000	0.001794  
2225.000000	0.002075  
2224.000000	0.002013  
2223.000000	0.001517  
2222.000000	0.000851  
2221.000000	0.000444  
2220.000000	0.000568  
2219.000000	0.001102  
2218.000000	0.001647  
2217.000000	0.001929  
2216.000000	0.002066  
2215.000000	0.002342  
2214.000000	0.002749  
2213.000000	0.002960  
2212.000000	0.002796  
2211.000000	0.002503  
2210.000000	0.002419  
2209.000000	0.002494  
2208.000000	0.002373  
2207.000000	0.001915  
2206.000000	0.001428  
2205.000000	0.001318  
2204.000000	0.001676  
2203.000000	0.002272  
2202.000000	0.002832  
2201.000000	0.003189  
2200.000000	0.003284  
2199.000000	0.003163  
2198.000000	0.002986  
2197.000000	0.002926  
2196.000000	0.002992  
2195.000000	0.003013  
2194.000000	0.002819  
2193.000000	0.002422  
2192.000000	0.001972  
2191.000000	0.001586  
2190.000000	0.001277  
2189.000000	0.001035  
2188.000000	0.000910  
2187.000000	0.000954  
2186.000000	0.001120  
2185.000000	0.001281  
2184.000000	0.001384  
2183.000000	0.001530  
2182.000000	0.001857  
2181.000000	0.002354  
2180.000000	0.002824  
2179.000000	0.003049  
2178.000000	0.002980  
2177.000000	0.002760  
2176.000000	0.002585  
2175.000000	0.002492  
2174.000000	0.002298  
2173.000000	0.001825  
2172.000000	0.001174  
2171.000000	0.000719  
2170.000000	0.000734  
2169.000000	0.001082  
2168.000000	0.001390  
2167.000000	0.001522  
2166.000000	0.001747  
2165.000000	0.002333  
2164.000000	0.003100  
2163.000000	0.003533  
2162.000000	0.003331  
2161.000000	0.002704  
2160.000000	0.002137  
2159.000000	0.001925  
2158.000000	0.002005  
2157.000000	0.002149  
2156.000000	0.002187  
2155.000000	0.002044  
2154.000000	0.001740  
2153.000000	0.001411  
2152.000000	0.001232  
2151.000000	0.001252  
2150.000000	0.001312  
2149.000000	0.001201  
2148.000000	0.000928  
2147.000000	0.000767  
2146.000000	0.000978  
2145.000000	0.001521  
2144.000000	0.002097  
2143.000000	0.002456  
2142.000000	0.002533  
2141.000000	0.002331  
2140.000000	0.001835  
2139.000000	0.001163  
2138.000000	0.000670  
2137.000000	0.000710  
2136.000000	0.001243  
2135.000000	0.001812  
2134.000000	0.001999  
2133.000000	0.001815  
2132.000000	0.001605  
2131.000000	0.001632  
2130.000000	0.001874  
2129.000000	0.002165  
2128.000000	0.002396  
2127.000000	0.002533  
2126.000000	0.002508  
2125.000000	0.002243  
2124.000000	0.001801  
2123.000000	0.001441  
2122.000000	0.001429  
2121.000000	0.001783  
2120.000000	0.002243  
2119.000000	0.002500  
2118.000000	0.002458  
2117.000000	0.002278  
2116.000000	0.002212  
2115.000000	0.002384  
2114.000000	0.002671  
2113.000000	0.002800  
2112.000000	0.002597  
2111.000000	0.002176  
2110.000000	0.001839  
2109.000000	0.001770  
2108.000000	0.001869  
2107.000000	0.001907  
2106.000000	0.001791  
2105.000000	0.001599  
2104.000000	0.001426  
2103.000000	0.001302  
2102.000000	0.001247  
2101.000000	0.001282  
2100.000000	0.001350  
2099.000000	0.001321  
2098.000000	0.001132  
2097.000000	0.000888  
2096.000000	0.000744  
2095.000000	0.000729  
2094.000000	0.000761  
2093.000000	0.000800  
2092.000000	0.000898  
2091.000000	0.001094  
2090.000000	0.001312  
2089.000000	0.001444  
2088.000000	0.001500  
2087.000000	0.001624  
2086.000000	0.001903  
2085.000000	0.002198  
2084.000000	0.002246  
2083.000000	0.001958  
2082.000000	0.001560  
2081.000000	0.001385  
2080.000000	0.001550  
2079.000000	0.001897  
2078.000000	0.002187  
2077.000000	0.002269  
2076.000000	0.002120  
2075.000000	0.001855  
2074.000000	0.001701  
2073.000000	0.001819  
2072.000000	0.002114  
2071.000000	0.002310  
2070.000000	0.002278  
2069.000000	0.002159  
2068.000000	0.002115  
2067.000000	0.002103  
2066.000000	0.002021  
2065.000000	0.001940  
2064.000000	0.002016  
2063.000000	0.002233  
2062.000000	0.002388  
2061.000000	0.002322  
2060.000000	0.002046  
2059.000000	0.001674  
2058.000000	0.001366  
2057.000000	0.001305  
2056.000000	0.001546  
2055.000000	0.001873  
2054.000000	0.001962  
2053.000000	0.001737  
2052.000000	0.001434  
2051.000000	0.001298  
2050.000000	0.001370  
2049.000000	0.001609  
2048.000000	0.001989  
2047.000000	0.002357  
2046.000000	0.002373  
2045.000000	0.001870  
2044.000000	0.001161  
2043.000000	0.000770  
2042.000000	0.000878  
2041.000000	0.001234  
2040.000000	0.001580  
2039.000000	0.001903  
2038.000000	0.002212  
2037.000000	0.002337  
2036.000000	0.002160  
2035.000000	0.001894  
2034.000000	0.001897  
2033.000000	0.002245  
2032.000000	0.002617  
2031.000000	0.002620  
2030.000000	0.002106  
2029.000000	0.001226  
2028.000000	0.000296  
2027.000000	-0.000370 
2026.000000	-0.000607 
2025.000000	-0.000455 
2024.000000	-0.000077 
2023.000000	0.000427  
2022.000000	0.001039  
2021.000000	0.001666  
2020.000000	0.002073  
2019.000000	0.002071  
2018.000000	0.001725  
2017.000000	0.001303  
2016.000000	0.001001  
2015.000000	0.000819  
2014.000000	0.000747  
2013.000000	0.000875  
2012.000000	0.001180  
2011.000000	0.001335  
2010.000000	0.000956  
2009.000000	0.000094  
2008.000000	-0.000695 
2007.000000	-0.000914 
2006.000000	-0.000596 
2005.000000	-0.000121 
2004.000000	0.000284  
2003.000000	0.000713  
2002.000000	0.001315  
2001.000000	0.002059  
2000.000000	0.002708  
1999.000000	0.002937  
1998.000000	0.002538  
1997.000000	0.001661  
1996.000000	0.000823  
1995.000000	0.000516  
1994.000000	0.000788  
1993.000000	0.001252  
1992.000000	0.001520  
1991.000000	0.001537  
1990.000000	0.001458  
1989.000000	0.001412  
1988.000000	0.001489  
1987.000000	0.001771  
1986.000000	0.002216  
1985.000000	0.002623  
1984.000000	0.002839  
1983.000000	0.002917  
1982.000000	0.002943  
1981.000000	0.002855  
1980.000000	0.002586  
1979.000000	0.002303  
1978.000000	0.002246  
1977.000000	0.002328  
1976.000000	0.002204  
1975.000000	0.001772  
1974.000000	0.001306  
1973.000000	0.001051  
1972.000000	0.000950  
1971.000000	0.000857  
1970.000000	0.000772  
1969.000000	0.000733  
1968.000000	0.000666  
1967.000000	0.000535  
1966.000000	0.000501  
1965.000000	0.000736  
1964.000000	0.001156  
1963.000000	0.001513  
1962.000000	0.001660  
1961.000000	0.001639  
1960.000000	0.001579  
1959.000000	0.001603  
1958.000000	0.001752  
1957.000000	0.001885  
1956.000000	0.001739  
1955.000000	0.001222  
1954.000000	0.000616  
1953.000000	0.000361  
1952.000000	0.000648  
1951.000000	0.001280  
1950.000000	0.001911  
1949.000000	0.002273  
1948.000000	0.002267  
1947.000000	0.001991  
1946.000000	0.001703  
1945.000000	0.001619  
1944.000000	0.001703  
1943.000000	0.001734  
1942.000000	0.001605  
1941.000000	0.001441  
1940.000000	0.001354  
1939.000000	0.001313  
1938.000000	0.001300  
1937.000000	0.001419  
1936.000000	0.001738  
1935.000000	0.002132  
1934.000000	0.002397  
1933.000000	0.002491  
1932.000000	0.002536  
1931.000000	0.002612  
1930.000000	0.002647  
1929.000000	0.002525  
1928.000000	0.002231  
1927.000000	0.001853  
1926.000000	0.001499  
1925.000000	0.001255  
1924.000000	0.001169  
1923.000000	0.001248  
1922.000000	0.001473  
1921.000000	0.001817  
1920.000000	0.002201  
1919.000000	0.002462  
1918.000000	0.002468  
1917.000000	0.002303  
1916.000000	0.002169  
1915.000000	0.002090  
1914.000000	0.001910  
1913.000000	0.001563  
1912.000000	0.001226  
1911.000000	0.001123  
1910.000000	0.001269  
1909.000000	0.001494  
1908.000000	0.001684  
1907.000000	0.001837  
1906.000000	0.001932  
1905.000000	0.001911  
1904.000000	0.001800  
1903.000000	0.001731  
1902.000000	0.001804  
1901.000000	0.001987  
1900.000000	0.002175  
1899.000000	0.002278  
1898.000000	0.002245  
1897.000000	0.002077  
1896.000000	0.001871  
1895.000000	0.001791  
1894.000000	0.001920  
1893.000000	0.002175  
1892.000000	0.002395  
1891.000000	0.002480  
1890.000000	0.002436  
1889.000000	0.002350  
1888.000000	0.002295  
1887.000000	0.002265  
1886.000000	0.002222  
1885.000000	0.002167  
1884.000000	0.002133  
1883.000000	0.002109  
1882.000000	0.002031  
1881.000000	0.001885  
1880.000000	0.001752  
1879.000000	0.001704  
1878.000000	0.001714  
1877.000000	0.001723  
1876.000000	0.001760  
1875.000000	0.001902  
1874.000000	0.002125  
1873.000000	0.002299  
1872.000000	0.002334  
1871.000000	0.002250  
1870.000000	0.002107  
1869.000000	0.001939  
1868.000000	0.001800  
1867.000000	0.001770  
1866.000000	0.001843  
1865.000000	0.001937  
1864.000000	0.002000  
1863.000000	0.002048  
1862.000000	0.002105  
1861.000000	0.002142  
1860.000000	0.002132  
1859.000000	0.002113  
1858.000000	0.002140  
1857.000000	0.002206  
1856.000000	0.002249  
1855.000000	0.002202  
1854.000000	0.002056  
1853.000000	0.001880  
1852.000000	0.001785  
1851.000000	0.001818  
1850.000000	0.001890  
1849.000000	0.001855  
1848.000000	0.001692  
1847.000000	0.001554  
1846.000000	0.001611  
1845.000000	0.001865  
1844.000000	0.002135  
1843.000000	0.002253  
1842.000000	0.002197  
1841.000000	0.002026  
1840.000000	0.001809  
1839.000000	0.001645  
1838.000000	0.001625  
1837.000000	0.001733  
1836.000000	0.001859  
1835.000000	0.001921  
1834.000000	0.001915  
1833.000000	0.001835  
1832.000000	0.001651  
1831.000000	0.001410  
1830.000000	0.001293  
1829.000000	0.001403  
1828.000000	0.001616  
1827.000000	0.001766  
1826.000000	0.001818  
1825.000000	0.001840  
1824.000000	0.001917  
1823.000000	0.002088  
1822.000000	0.002308  
1821.000000	0.002446  
1820.000000	0.002366  
1819.000000	0.002094  
1818.000000	0.001836  
1817.000000	0.001776  
1816.000000	0.001891  
1815.000000	0.002021  
1814.000000	0.002047  
1813.000000	0.001958  
1812.000000	0.001821  
1811.000000	0.001753  
1810.000000	0.001836  
1809.000000	0.002037  
1808.000000	0.002246  
1807.000000	0.002370  
1806.000000	0.002387  
1805.000000	0.002328  
1804.000000	0.002251  
1803.000000	0.002218  
1802.000000	0.002262  
1801.000000	0.002359  
1800.000000	0.002460  
1799.000000	0.002540  
1798.000000	0.002589  
1797.000000	0.002608  
1796.000000	0.002607  
1795.000000	0.002587  
1794.000000	0.002522  
1793.000000	0.002397  
1792.000000	0.002252  
1791.000000	0.002169  
1790.000000	0.002168  
1789.000000	0.002208  
1788.000000	0.002248  
1787.000000	0.002280  
1786.000000	0.002312  
1785.000000	0.002335  
1784.000000	0.002326  
1783.000000	0.002275  
1782.000000	0.002211  
1781.000000	0.002191  
1780.000000	0.002262  
1779.000000	0.002409  
1778.000000	0.002567  
1777.000000	0.002675  
1776.000000	0.002707  
1775.000000	0.002663  
1774.000000	0.002566  
1773.000000	0.002469  
1772.000000	0.002413  
1771.000000	0.002388  
1770.000000	0.002382  
1769.000000	0.002400  
1768.000000	0.002429  
1767.000000	0.002458  
1766.000000	0.002507  
1765.000000	0.002608  
1764.000000	0.002761  
1763.000000	0.002937  
1762.000000	0.003125  
1761.000000	0.003323  
1760.000000	0.003502  
1759.000000	0.003634  
1758.000000	0.003743  
1757.000000	0.003908  
1756.000000	0.004159  
1755.000000	0.004448  
1754.000000	0.004772  
1753.000000	0.005230  
1752.000000	0.005937  
1751.000000	0.006893  
1750.000000	0.008046  
1749.000000	0.009453  
1748.000000	0.011163  
1747.000000	0.013082  
1746.000000	0.015082  
1745.000000	0.017064  
1744.000000	0.018821  
1743.000000	0.020045  
1742.000000	0.020542  
1741.000000	0.020236  
1740.000000	0.019106  
1739.000000	0.017422  
1738.000000	0.015708  
1737.000000	0.014209  
1736.000000	0.012750  
1735.000000	0.011043  
1734.000000	0.009240  
1733.000000	0.007812  
1732.000000	0.006820  
1731.000000	0.006069  
1730.000000	0.005495  
1729.000000	0.005118  
1728.000000	0.004893  
1727.000000	0.004722  
1726.000000	0.004538  
1725.000000	0.004331  
1724.000000	0.004112  
1723.000000	0.003908  
1722.000000	0.003753  
1721.000000	0.003642  
1720.000000	0.003518  
1719.000000	0.003355  
1718.000000	0.003197  
1717.000000	0.003047  
1716.000000	0.002918  
1715.000000	0.002897  
1714.000000	0.002977  
1713.000000	0.003058  
1712.000000	0.003056  
1711.000000	0.002978  
1710.000000	0.002894  
1709.000000	0.002849  
1708.000000	0.002831  
1707.000000	0.002823  
1706.000000	0.002834  
1705.000000	0.002874  
1704.000000	0.002990  
1703.000000	0.003242  
1702.000000	0.003599  
1701.000000	0.003807  
1700.000000	0.003659  
1699.000000	0.003367  
1698.000000	0.003199  
1697.000000	0.003133  
1696.000000	0.003072  
1695.000000	0.003035  
1694.000000	0.003032  
1693.000000	0.003025  
1692.000000	0.002986  
1691.000000	0.002926  
1690.000000	0.002896  
1689.000000	0.002926  
1688.000000	0.002995  
1687.000000	0.003052  
1686.000000	0.003053  
1685.000000	0.002980  
1684.000000	0.002908  
1683.000000	0.002899  
1682.000000	0.002929  
1681.000000	0.002995  
1680.000000	0.003061  
1679.000000	0.003105  
1678.000000	0.003083  
1677.000000	0.002970  
1676.000000	0.002784  
1675.000000	0.002655  
1674.000000	0.002689  
1673.000000	0.002841  
1672.000000	0.003010  
1671.000000	0.003120  
1670.000000	0.003163  
1669.000000	0.003183  
1668.000000	0.003188  
1667.000000	0.003172  
1666.000000	0.003177  
1665.000000	0.003242  
1664.000000	0.003346  
1663.000000	0.003427  
1662.000000	0.003458  
1661.000000	0.003481  
1660.000000	0.003528  
1659.000000	0.003563  
1658.000000	0.003519  
1657.000000	0.003428  
1656.000000	0.003350  
1655.000000	0.003326  
1654.000000	0.003360  
1653.000000	0.003509  
1652.000000	0.003657  
1651.000000	0.003660  
1650.000000	0.003659  
1649.000000	0.003717  
1648.000000	0.003814  
1647.000000	0.003834  
1646.000000	0.003736  
1645.000000	0.003565  
1644.000000	0.003389  
1643.000000	0.003268  
1642.000000	0.003256  
1641.000000	0.003313  
1640.000000	0.003360  
1639.000000	0.003351  
1638.000000	0.003321  
1637.000000	0.003340  
1636.000000	0.003426  
1635.000000	0.003480  
1634.000000	0.003439  
1633.000000	0.003372  
1632.000000	0.003344  
1631.000000	0.003350  
1630.000000	0.003352  
1629.000000	0.003358  
1628.000000	0.003401  
1627.000000	0.003483  
1626.000000	0.003568  
1625.000000	0.003627  
1624.000000	0.003644  
1623.000000	0.003622  
1622.000000	0.003594  
1621.000000	0.003617  
1620.000000	0.003708  
1619.000000	0.003825  
1618.000000	0.003909  
1617.000000	0.003962  
1616.000000	0.004035  
1615.000000	0.004108  
1614.000000	0.004158  
1613.000000	0.004206  
1612.000000	0.004278  
1611.000000	0.004382  
1610.000000	0.004504  
1609.000000	0.004610  
1608.000000	0.004651  
1607.000000	0.004597  
1606.000000	0.004493  
1605.000000	0.004417  
1604.000000	0.004389  
1603.000000	0.004354  
1602.000000	0.004268  
1601.000000	0.004158  
1600.000000	0.004055  
1599.000000	0.003944  
1598.000000	0.003813  
1597.000000	0.003697  
1596.000000	0.003652  
1595.000000	0.003689  
1594.000000	0.003771  
1593.000000	0.003864  
1592.000000	0.003963  
1591.000000	0.004060  
1590.000000	0.004132  
1589.000000	0.004146  
1588.000000	0.004089  
1587.000000	0.003977  
1586.000000	0.003864  
1585.000000	0.003808  
1584.000000	0.003816  
1583.000000	0.003850  
1582.000000	0.003882  
1581.000000	0.003922  
1580.000000	0.004000  
1579.000000	0.004105  
1578.000000	0.004179  
1577.000000	0.004142  
1576.000000	0.003978  
1575.000000	0.003782  
1574.000000	0.003695  
1573.000000	0.003772  
1572.000000	0.003936  
1571.000000	0.004042  
1570.000000	0.004022  
1569.000000	0.003969  
1568.000000	0.003957  
1567.000000	0.003944  
1566.000000	0.003868  
1565.000000	0.003749  
1564.000000	0.003615  
1563.000000	0.003512  
1562.000000	0.003452  
1561.000000	0.003444  
1560.000000	0.003501  
1559.000000	0.003554  
1558.000000	0.003480  
1557.000000	0.003450  
1556.000000	0.003593  
1555.000000	0.003766  
1554.000000	0.003942  
1553.000000	0.003989  
1552.000000	0.003910  
1551.000000	0.003729  
1550.000000	0.003565  
1549.000000	0.003501  
1548.000000	0.003519  
1547.000000	0.003555  
1546.000000	0.003602  
1545.000000	0.003665  
1544.000000	0.003708  
1543.000000	0.003693  
1542.000000	0.003665  
1541.000000	0.003651  
1540.000000	0.003650  
1539.000000	0.003701  
1538.000000	0.003819  
1537.000000	0.003975  
1536.000000	0.004109  
1535.000000	0.004164  
1534.000000	0.004116  
1533.000000	0.004030  
1532.000000	0.003964  
1531.000000	0.003922  
1530.000000	0.003875  
1529.000000	0.003818  
1528.000000	0.003791  
1527.000000	0.003867  
1526.000000	0.004087  
1525.000000	0.004374  
1524.000000	0.004583  
1523.000000	0.004649  
1522.000000	0.004641  
1521.000000	0.004655  
1520.000000	0.004685  
1519.000000	0.004687  
1518.000000	0.004706  
1517.000000	0.004808  
1516.000000	0.004986  
1515.000000	0.005203  
1514.000000	0.005464  
1513.000000	0.005745  
1512.000000	0.005932  
1511.000000	0.005967  
1510.000000	0.005943  
1509.000000	0.006039  
1508.000000	0.006347  
1507.000000	0.006842  
1506.000000	0.007403  
1505.000000	0.007800  
1504.000000	0.007921  
1503.000000	0.007866  
1502.000000	0.007804  
1501.000000	0.007783  
1500.000000	0.007785  
1499.000000	0.007833  
1498.000000	0.008119  
1497.000000	0.008679  
1496.000000	0.009163  
1495.000000	0.009340  
1494.000000	0.009410  
1493.000000	0.009556  
1492.000000	0.009691  
1491.000000	0.009695  
1490.000000	0.009729  
1489.000000	0.010004  
1488.000000	0.010438  
1487.000000	0.010868  
1486.000000	0.011291  
1485.000000	0.011771  
1484.000000	0.012312  
1483.000000	0.012931  
1482.000000	0.013738  
1481.000000	0.014750  
1480.000000	0.015815  
1479.000000	0.016883  
1478.000000	0.018172  
1477.000000	0.019882  
1476.000000	0.021933  
1475.000000	0.024359  
1474.000000	0.027875  
1473.000000	0.033340  
1472.000000	0.040266  
1471.000000	0.047258  
1470.000000	0.053762  
1469.000000	0.059785  
1468.000000	0.065118  
1467.000000	0.069576  
1466.000000	0.073306  
1465.000000	0.076465  
1464.000000	0.078860  
1463.000000	0.080444  
1462.000000	0.081554  
1461.000000	0.082483  
1460.000000	0.083332  
1459.000000	0.084193  
1458.000000	0.085099  
1457.000000	0.085343  
1456.000000	0.084153  
1455.000000	0.082011  
1454.000000	0.079600  
1453.000000	0.076960  
1452.000000	0.074097  
1451.000000	0.071274  
1450.000000	0.068707  
1449.000000	0.066167  
1448.000000	0.063355  
1447.000000	0.060372  
1446.000000	0.057433  
1445.000000	0.054438  
1444.000000	0.051198  
1443.000000	0.047761  
1442.000000	0.044359  
1441.000000	0.041224  
1440.000000	0.038436  
1439.000000	0.035866  
1438.000000	0.033192  
1437.000000	0.030268  
1436.000000	0.027541  
1435.000000	0.025470  
1434.000000	0.023849  
1433.000000	0.022250  
1432.000000	0.020526  
1431.000000	0.018794  
1430.000000	0.017219  
1429.000000	0.015891  
1428.000000	0.014871  
1427.000000	0.014134  
1426.000000	0.013523  
1425.000000	0.012907  
1424.000000	0.012336  
1423.000000	0.011924  
1422.000000	0.011639  
1421.000000	0.011334  
1420.000000	0.010942  
1419.000000	0.010555  
1418.000000	0.010266  
1417.000000	0.010052  
1416.000000	0.009894  
1415.000000	0.009788  
1414.000000	0.009681  
1413.000000	0.009508  
1412.000000	0.009264  
1411.000000	0.009002  
1410.000000	0.008782  
1409.000000	0.008646  
1408.000000	0.008618  
1407.000000	0.008675  
1406.000000	0.008747  
1405.000000	0.008799  
1404.000000	0.008888  
1403.000000	0.009044  
1402.000000	0.009188  
1401.000000	0.009228  
1400.000000	0.009206  
1399.000000	0.009246  
1398.000000	0.009395  
1397.000000	0.009615  
1396.000000	0.009900  
1395.000000	0.010272  
1394.000000	0.010717  
1393.000000	0.011206  
1392.000000	0.011748  
1391.000000	0.012391  
1390.000000	0.013222  
1389.000000	0.014425  
1388.000000	0.016251  
1387.000000	0.018713  
1386.000000	0.021467  
1385.000000	0.024245  
1384.000000	0.027132  
1383.000000	0.030371  
1382.000000	0.034111  
1381.000000	0.038289  
1380.000000	0.042535  
1379.000000	0.046089  
1378.000000	0.048125  
1377.000000	0.048256  
1376.000000	0.046571  
1375.000000	0.043383  
1374.000000	0.039327  
1373.000000	0.035330  
1372.000000	0.032046  
1371.000000	0.029613  
1370.000000	0.027968  
1369.000000	0.027049  
1368.000000	0.026658  
1367.000000	0.026381  
1366.000000	0.025784  
1365.000000	0.024630  
1364.000000	0.022939  
1363.000000	0.020980  
1362.000000	0.019166  
1361.000000	0.017787  
1360.000000	0.016853  
1359.000000	0.016216  
1358.000000	0.015748  
1357.000000	0.015405  
1356.000000	0.015201  
1355.000000	0.015127  
1354.000000	0.015119  
1353.000000	0.015098  
1352.000000	0.015036  
1351.000000	0.014940  
1350.000000	0.014817  
1349.000000	0.014674  
1348.000000	0.014523  
1347.000000	0.014350  
1346.000000	0.014141  
1345.000000	0.013937  
1344.000000	0.013813  
1343.000000	0.013784  
1342.000000	0.013767  
1341.000000	0.013668  
1340.000000	0.013469  
1339.000000	0.013202  
1338.000000	0.012898  
1337.000000	0.012583  
1336.000000	0.012295  
1335.000000	0.012052  
1334.000000	0.011827  
1333.000000	0.011582  
1332.000000	0.011335  
1331.000000	0.011135  
1330.000000	0.010992  
1329.000000	0.010876  
1328.000000	0.010770  
1327.000000	0.010683  
1326.000000	0.010609  
1325.000000	0.010539  
1324.000000	0.010480  
1323.000000	0.010446  
1322.000000	0.010435  
1321.000000	0.010438  
1320.000000	0.010462  
1319.000000	0.010520  
1318.000000	0.010605  
1317.000000	0.010698  
1316.000000	0.010794  
1315.000000	0.010896  
1314.000000	0.011006  
1313.000000	0.011120  
1312.000000	0.011238  
1311.000000	0.011365  
1310.000000	0.011502  
1309.000000	0.011646  
1308.000000	0.011796  
1307.000000	0.011931  
1306.000000	0.012018  
1305.000000	0.012044  
1304.000000	0.012018  
1303.000000	0.011956  
1302.000000	0.011867  
1301.000000	0.011767  
1300.000000	0.011683  
1299.000000	0.011618  
1298.000000	0.011547  
1297.000000	0.011452  
1296.000000	0.011345  
1295.000000	0.011232  
1294.000000	0.011088  
1293.000000	0.010888  
1292.000000	0.010657  
1291.000000	0.010463  
1290.000000	0.010349  
1289.000000	0.010311  
1288.000000	0.010317  
1287.000000	0.010343  
1286.000000	0.010378  
1285.000000	0.010424  
1284.000000	0.010475  
1283.000000	0.010518  
1282.000000	0.010545  
1281.000000	0.010566  
1280.000000	0.010591  
1279.000000	0.010609  
1278.000000	0.010607  
1277.000000	0.010608  
1276.000000	0.010659  
1275.000000	0.010762  
1274.000000	0.010868  
1273.000000	0.010938  
1272.000000	0.010988  
1271.000000	0.011040  
1270.000000	0.011075  
1269.000000	0.011080  
1268.000000	0.011076  
1267.000000	0.011081  
1266.000000	0.011057  
1265.000000	0.010951  
1264.000000	0.010788  
1263.000000	0.010664  
1262.000000	0.010649  
1261.000000	0.010720  
1260.000000	0.010795  
1259.000000	0.010813  
1258.000000	0.010773  
1257.000000	0.010708  
1256.000000	0.010642  
1255.000000	0.010589  
1254.000000	0.010573  
1253.000000	0.010640  
1252.000000	0.010803  
1251.000000	0.011000  
1250.000000	0.011137  
1249.000000	0.011186  
1248.000000	0.011215  
1247.000000	0.011291  
1246.000000	0.011401  
1245.000000	0.011480  
1244.000000	0.011489  
1243.000000	0.011443  
1242.000000	0.011366  
1241.000000	0.011280  
1240.000000	0.011203  
1239.000000	0.011128  
1238.000000	0.011022  
1237.000000	0.010870  
1236.000000	0.010711  
1235.000000	0.010599  
1234.000000	0.010521  
1233.000000	0.010408  
1232.000000	0.010214  
1231.000000	0.009968  
1230.000000	0.009720  
1229.000000	0.009506  
1228.000000	0.009353  
1227.000000	0.009286  
1226.000000	0.009301  
1225.000000	0.009342  
1224.000000	0.009357  
1223.000000	0.009342  
1222.000000	0.009322  
1221.000000	0.009293  
1220.000000	0.009233  
1219.000000	0.009146  
1218.000000	0.009086  
1217.000000	0.009107  
1216.000000	0.009209  
1215.000000	0.009327  
1214.000000	0.009383  
1213.000000	0.009346  
1212.000000	0.009274  
1211.000000	0.009264  
1210.000000	0.009367  
1209.000000	0.009519  
1208.000000	0.009607  
1207.000000	0.009586  
1206.000000	0.009528  
1205.000000	0.009532  
1204.000000	0.009617  
1203.000000	0.009730  
1202.000000	0.009833  
1201.000000	0.009931  
1200.000000	0.010034  
1199.000000	0.010134  
1198.000000	0.010239  
1197.000000	0.010399  
1196.000000	0.010645  
1195.000000	0.010952  
1194.000000	0.011267  
1193.000000	0.011570  
1192.000000	0.011855  
1191.000000	0.012088  
1190.000000	0.012236  
1189.000000	0.012325  
1188.000000	0.012424  
1187.000000	0.012584  
1186.000000	0.012806  
1185.000000	0.013075  
1184.000000	0.013381  
1183.000000	0.013711  
1182.000000	0.014049  
1181.000000	0.014388  
1180.000000	0.014715  
1179.000000	0.014990  
1178.000000	0.015176  
1177.000000	0.015291  
1176.000000	0.015400  
1175.000000	0.015541  
1174.000000	0.015699  
1173.000000	0.015850  
1172.000000	0.015980  
1171.000000	0.016070  
1170.000000	0.016078  
1169.000000	0.015981  
1168.000000	0.015798  
1167.000000	0.015572  
1166.000000	0.015336  
1165.000000	0.015099  
1164.000000	0.014842  
1163.000000	0.014535  
1162.000000	0.014192  
1161.000000	0.013898  
1160.000000	0.013740  
1159.000000	0.013687  
1158.000000	0.013609  
1157.000000	0.013421  
1156.000000	0.013155  
1155.000000	0.012872  
1154.000000	0.012575  
1153.000000	0.012248  
1152.000000	0.011925  
1151.000000	0.011670  
1150.000000	0.011503  
1149.000000	0.011399  
1148.000000	0.011340  
1147.000000	0.011313  
1146.000000	0.011274  
1145.000000	0.011159  
1144.000000	0.010945  
1143.000000	0.010660  
1142.000000	0.010354  
1141.000000	0.010066  
1140.000000	0.009821  
1139.000000	0.009625  
1138.000000	0.009482  
1137.000000	0.009404  
1136.000000	0.009385  
1135.000000	0.009356  
1134.000000	0.009222  
1133.000000	0.008981  
1132.000000	0.008745  
1131.000000	0.008629  
1130.000000	0.008632  
1129.000000	0.008684  
1128.000000	0.008748  
1127.000000	0.008823  
1126.000000	0.008892  
1125.000000	0.008931  
1124.000000	0.008960  
1123.000000	0.009005  
1122.000000	0.009044  
1121.000000	0.009033  
1120.000000	0.008990  
1119.000000	0.008981  
1118.000000	0.009023  
1117.000000	0.009065  
1116.000000	0.009063  
1115.000000	0.009020  
1114.000000	0.008941  
1113.000000	0.008819  
1112.000000	0.008669  
1111.000000	0.008535  
1110.000000	0.008436  
1109.000000	0.008350  
1108.000000	0.008277  
1107.000000	0.008259  
1106.000000	0.008318  
1105.000000	0.008395  
1104.000000	0.008414  
1103.000000	0.008365  
1102.000000	0.008310  
1101.000000	0.008319  
1100.000000	0.008402  
1099.000000	0.008524  
1098.000000	0.008641  
1097.000000	0.008749  
1096.000000	0.008883  
1095.000000	0.009050  
1094.000000	0.009185  
1093.000000	0.009202  
1092.000000	0.009101  
1091.000000	0.008960  
1090.000000	0.008832  
1089.000000	0.008694  
1088.000000	0.008511  
1087.000000	0.008324  
1086.000000	0.008211  
1085.000000	0.008205  
1084.000000	0.008260  
1083.000000	0.008301  
1082.000000	0.008273  
1081.000000	0.008188  
1080.000000	0.008127  
1079.000000	0.008176  
1078.000000	0.008339  
1077.000000	0.008531  
1076.000000	0.008693  
1075.000000	0.008861  
1074.000000	0.009097  
1073.000000	0.009374  
1072.000000	0.009575  
1071.000000	0.009619  
1070.000000	0.009548  
1069.000000	0.009479  
1068.000000	0.009476  
1067.000000	0.009499  
1066.000000	0.009475  
1065.000000	0.009394  
1064.000000	0.009322  
1063.000000	0.009307  
1062.000000	0.009315  
1061.000000	0.009269  
1060.000000	0.009159  
1059.000000	0.009045  
1058.000000	0.008981  
1057.000000	0.008975  
1056.000000	0.009027  
1055.000000	0.009138  
1054.000000	0.009250  
1053.000000	0.009216  
1052.000000	0.008940  
1051.000000	0.008536  
1050.000000	0.008271  
1049.000000	0.008291  
1048.000000	0.008489  
1047.000000	0.008648  
1046.000000	0.008667  
1045.000000	0.008598  
1044.000000	0.008560  
1043.000000	0.008637  
1042.000000	0.008836  
1041.000000	0.009070  
1040.000000	0.009208  
1039.000000	0.009182  
1038.000000	0.009049  
1037.000000	0.008932  
1036.000000	0.008904  
1035.000000	0.008956  
1034.000000	0.009058  
1033.000000	0.009203  
1032.000000	0.009377  
1031.000000	0.009526  
1030.000000	0.009595  
1029.000000	0.009575  
1028.000000	0.009505  
1027.000000	0.009432  
1026.000000	0.009395  
1025.000000	0.009408  
1024.000000	0.009442  
1023.000000	0.009442  
1022.000000	0.009384  
1021.000000	0.009300  
1020.000000	0.009224  
1019.000000	0.009140  
1018.000000	0.009025  
1017.000000	0.008904  
1016.000000	0.008842  
1015.000000	0.008854  
1014.000000	0.008890  
1013.000000	0.008890  
1012.000000	0.008842  
1011.000000	0.008771  
1010.000000	0.008708  
1009.000000	0.008687  
1008.000000	0.008718  
1007.000000	0.008766  
1006.000000	0.008778  
1005.000000	0.008737  
1004.000000	0.008670  
1003.000000	0.008611  
1002.000000	0.008575  
1001.000000	0.008561  
1000.000000	0.008549  
999.000000	 0.008490  
998.000000	 0.008347  
997.000000	 0.008165  
996.000000	 0.008056  
995.000000	 0.008090  
994.000000	 0.008232  
993.000000	 0.008379  
992.000000	 0.008453  
991.000000	 0.008436  
990.000000	 0.008376  
989.000000	 0.008361  
988.000000	 0.008447  
987.000000	 0.008580  
986.000000	 0.008642  
985.000000	 0.008600  
984.000000	 0.008554  
983.000000	 0.008609  
982.000000	 0.008742  
981.000000	 0.008861  
980.000000	 0.008946  
979.000000	 0.009056  
978.000000	 0.009226  
977.000000	 0.009419  
976.000000	 0.009581  
975.000000	 0.009687  
974.000000	 0.009736  
973.000000	 0.009748  
972.000000	 0.009779  
971.000000	 0.009882  
970.000000	 0.010049  
969.000000	 0.010222  
968.000000	 0.010354  
967.000000	 0.010432  
966.000000	 0.010431  
965.000000	 0.010322  
964.000000	 0.010126  
963.000000	 0.009925  
962.000000	 0.009803  
961.000000	 0.009777  
960.000000	 0.009798  
959.000000	 0.009804  
958.000000	 0.009755  
957.000000	 0.009659  
956.000000	 0.009574  
955.000000	 0.009553  
954.000000	 0.009594  
953.000000	 0.009651  
952.000000	 0.009704  
951.000000	 0.009768  
950.000000	 0.009841  
949.000000	 0.009876  
948.000000	 0.009842  
947.000000	 0.009778  
946.000000	 0.009758  
945.000000	 0.009811  
944.000000	 0.009904  
943.000000	 0.009972  
942.000000	 0.009973  
941.000000	 0.009892  
940.000000	 0.009740  
939.000000	 0.009546  
938.000000	 0.009347  
937.000000	 0.009178  
936.000000	 0.009043  
935.000000	 0.008906  
934.000000	 0.008735  
933.000000	 0.008570  
932.000000	 0.008517  
931.000000	 0.008620  
930.000000	 0.008780  
929.000000	 0.008849  
928.000000	 0.008802  
927.000000	 0.008764  
926.000000	 0.008842  
925.000000	 0.008987  
924.000000	 0.009079  
923.000000	 0.009076  
922.000000	 0.009039  
921.000000	 0.009018  
920.000000	 0.008989  
919.000000	 0.008916  
918.000000	 0.008825  
917.000000	 0.008782  
916.000000	 0.008813  
915.000000	 0.008879  
914.000000	 0.008923  
913.000000	 0.008913  
912.000000	 0.008850  
911.000000	 0.008758  
910.000000	 0.008690  
909.000000	 0.008709  
908.000000	 0.008808  
907.000000	 0.008884  
906.000000	 0.008817  
905.000000	 0.008617  
904.000000	 0.008438  
903.000000	 0.008428  
902.000000	 0.008581  
901.000000	 0.008777  
900.000000	 0.008927  
899.000000	 0.009049  
898.000000	 0.009192  
897.000000	 0.009346  
896.000000	 0.009450  
895.000000	 0.009452  
894.000000	 0.009366  
893.000000	 0.009267  
892.000000	 0.009232  
891.000000	 0.009290  
890.000000	 0.009402  
889.000000	 0.009512  
888.000000	 0.009590  
887.000000	 0.009628  
886.000000	 0.009605  
885.000000	 0.009495  
884.000000	 0.009307  
883.000000	 0.009096  
882.000000	 0.008926  
881.000000	 0.008842  
880.000000	 0.008863  
879.000000	 0.008979  
878.000000	 0.009141  
877.000000	 0.009276  
876.000000	 0.009334  
875.000000	 0.009311  
874.000000	 0.009217  
873.000000	 0.009046  
872.000000	 0.008802  
871.000000	 0.008555  
870.000000	 0.008433  
869.000000	 0.008531  
868.000000	 0.008797  
867.000000	 0.009037  
866.000000	 0.009067  
865.000000	 0.008871  
864.000000	 0.008599  
863.000000	 0.008405  
862.000000	 0.008339  
861.000000	 0.008380  
860.000000	 0.008521  
859.000000	 0.008744  
858.000000	 0.008954  
857.000000	 0.009041  
856.000000	 0.009027  
855.000000	 0.009074  
854.000000	 0.009318  
853.000000	 0.009716  
852.000000	 0.010104  
851.000000	 0.010380  
850.000000	 0.010555  
849.000000	 0.010664  
848.000000	 0.010682  
847.000000	 0.010574  
846.000000	 0.010376  
845.000000	 0.010172  
844.000000	 0.009996  
843.000000	 0.009811  
842.000000	 0.009596  
841.000000	 0.009408  
840.000000	 0.009327  
839.000000	 0.009360  
838.000000	 0.009445  
837.000000	 0.009515  
836.000000	 0.009523  
835.000000	 0.009412  
834.000000	 0.009149  
833.000000	 0.008805  
832.000000	 0.008530  
831.000000	 0.008415  
830.000000	 0.008402  
829.000000	 0.008400  
828.000000	 0.008442  
827.000000	 0.008644  
826.000000	 0.009032  
825.000000	 0.009471  
824.000000	 0.009782  
823.000000	 0.009882  
822.000000	 0.009801  
821.000000	 0.009662  
820.000000	 0.009618  
819.000000	 0.009768  
818.000000	 0.010101  
817.000000	 0.010517  
816.000000	 0.010896  
815.000000	 0.011135  
814.000000	 0.011171  
813.000000	 0.011032  
812.000000	 0.010851  
811.000000	 0.010790  
810.000000	 0.010929  
809.000000	 0.011241  
808.000000	 0.011645  
807.000000	 0.012028  
806.000000	 0.012248  
805.000000	 0.012199  
804.000000	 0.011887  
803.000000	 0.011435  
802.000000	 0.010973  
801.000000	 0.010570  
800.000000	 0.010237  
799.000000	 0.009952  
798.000000	 0.009684  
797.000000	 0.009408  
796.000000	 0.009130  
795.000000	 0.008869  
794.000000	 0.008637  
793.000000	 0.008478  
792.000000	 0.008483  
791.000000	 0.008705  
790.000000	 0.009043  
789.000000	 0.009281  
788.000000	 0.009303  
787.000000	 0.009225  
786.000000	 0.009274  
785.000000	 0.009555  
784.000000	 0.009959  
783.000000	 0.010308  
782.000000	 0.010556  
781.000000	 0.010816  
780.000000	 0.011199  
779.000000	 0.011661  
778.000000	 0.012061  
777.000000	 0.012354  
776.000000	 0.012644  
775.000000	 0.013021  
774.000000	 0.013418  
773.000000	 0.013699  
772.000000	 0.013856  
771.000000	 0.014012  
770.000000	 0.014246  
769.000000	 0.014493  
768.000000	 0.014638  
767.000000	 0.014631  
766.000000	 0.014476  
765.000000	 0.014178  
764.000000	 0.013778  
763.000000	 0.013402  
762.000000	 0.013204  
761.000000	 0.013233  
760.000000	 0.013389  
759.000000	 0.013528  
758.000000	 0.013609  
757.000000	 0.013714  
756.000000	 0.013935  
755.000000	 0.014251  
754.000000	 0.014529  
753.000000	 0.014658  
752.000000	 0.014643  
751.000000	 0.014560  
750.000000	 0.014484  
749.000000	 0.014489  
748.000000	 0.014689  
747.000000	 0.015216  
746.000000	 0.016135  
745.000000	 0.017406  
744.000000	 0.018886  
743.000000	 0.020347  
742.000000	 0.021496  
741.000000	 0.022105  
740.000000	 0.022172  
739.000000	 0.021924  
738.000000	 0.021623  
737.000000	 0.021378  
736.000000	 0.021154  
735.000000	 0.020919  
734.000000	 0.020743  
733.000000	 0.020747  
732.000000	 0.020968  
731.000000	 0.021296  
730.000000	 0.021594  
729.000000	 0.021933  
728.000000	 0.022570  
727.000000	 0.023613  
726.000000	 0.024896  
725.000000	 0.026153  
724.000000	 0.027176  
723.000000	 0.027776  
722.000000	 0.027734  
721.000000	 0.026910  
720.000000	 0.025414  
719.000000	 0.023598  
718.000000	 0.021794  
717.000000	 0.020163  
716.000000	 0.018826  
715.000000	 0.017877  
714.000000	 0.017195  
713.000000	 0.016488  
712.000000	 0.015601  
711.000000	 0.014680  
710.000000	 0.013967  
709.000000	 0.013549  
708.000000	 0.013361  
707.000000	 0.013285  
706.000000	 0.013301  
705.000000	 0.013498  
704.000000	 0.013862  
703.000000	 0.014228  
702.000000	 0.014443  
701.000000	 0.014506  
700.000000	 0.014576  
699.000000	 0.014672  
698.000000	 0.014552  
697.000000	 0.013981  
696.000000	 0.013027  
695.000000	 0.012136  
694.000000	 0.011690  
693.000000	 0.011532  
692.000000	 0.011187  
691.000000	 0.010391  
690.000000	 0.009450  
689.000000	 0.008928  
688.000000	 0.008939  
687.000000	 0.009085  
686.000000	 0.009004  
685.000000	 0.008767  
684.000000	 0.008698  
683.000000	 0.008935  
682.000000	 0.009376  
681.000000	 0.009881  
680.000000	 0.010302  
679.000000	 0.010451  
678.000000	 0.010263  
677.000000	 0.009905  
676.000000	 0.009857  
675.000000	 0.009834  
674.000000	 0.009415  
673.000000	 0.009090  
672.000000	 0.009269  
671.000000	 0.008762  
670.000000	 0.005982  
669.000000	 0.000773  
668.000000	 -0.002229 
667.000000	 0.002678  
666.000000	 0.009000  
665.000000	 0.010609  
664.000000	 0.009393  
663.000000	 0.008178  
662.000000	 0.008264  
661.000000	 0.008634  
660.000000	 0.008413  
659.000000	 0.008075  
658.000000	 0.008182  
657.000000	 0.008153  
656.000000	 0.007470  
655.000000	 0.006251  
654.000000	 0.005231  
653.000000	 0.005117  
652.000000	 0.005755  
651.000000	 0.006368  
650.000000	 0.006366  

