PE IR                   SPECTRUM    ASCII       PEDS        1.60        
  -1
NB4-07~1.ASC
17/04/10
13:31:08.00
17/04/10
13:31:08.00
Admin

650.000000
6









SPECTRUM ONE,CPU32 MAIN 00.02.5000 17-APRIL-2002 13:00:00
MIR TGS
MIR
OPTKBR
68128
0.200000

4.000000
STRONG
RATIO
SPECTRUM
MAGNITUDE

DOUBLE

COMBINED


0


#HDR
-1
-1
#GR
CM-1
A
0.00000011920928955078
0.0
4000.000000
-1.000000
3351
8
0.215765
-0.012706
#DATA
4000.000000	0.001251  
3999.000000	0.001251  
3998.000000	0.001315  
3997.000000	0.001429  
3996.000000	0.001398  
3995.000000	0.001532  
3994.000000	0.001669  
3993.000000	0.001770  
3992.000000	0.001804  
3991.000000	0.001770  
3990.000000	0.001684  
3989.000000	0.001555  
3988.000000	0.001387  
3987.000000	0.001209  
3986.000000	0.001089  
3985.000000	0.001086  
3984.000000	0.001173  
3983.000000	0.001240  
3982.000000	0.001187  
3981.000000	0.001023  
3980.000000	0.000864  
3979.000000	0.000815  
3978.000000	0.000885  
3977.000000	0.001008  
3976.000000	0.001128  
3975.000000	0.001241  
3974.000000	0.001356  
3973.000000	0.001446  
3972.000000	0.001465  
3971.000000	0.001418  
3970.000000	0.001364  
3969.000000	0.001354  
3968.000000	0.001370  
3967.000000	0.001352  
3966.000000	0.001279  
3965.000000	0.001209  
3964.000000	0.001234  
3963.000000	0.001381  
3962.000000	0.001591  
3961.000000	0.001766  
3960.000000	0.001848  
3959.000000	0.001840  
3958.000000	0.001771  
3957.000000	0.001652  
3956.000000	0.001485  
3955.000000	0.001293  
3954.000000	0.001124  
3953.000000	0.001028  
3952.000000	0.001022  
3951.000000	0.001090  
3950.000000	0.001207  
3949.000000	0.001357  
3948.000000	0.001525  
3947.000000	0.001664  
3946.000000	0.001706  
3945.000000	0.001611  
3944.000000	0.001421  
3943.000000	0.001234  
3942.000000	0.001122  
3941.000000	0.001081  
3940.000000	0.001090  
3939.000000	0.001157  
3938.000000	0.001295  
3937.000000	0.001466  
3936.000000	0.001585  
3935.000000	0.001598  
3934.000000	0.001524  
3933.000000	0.001427  
3932.000000	0.001360  
3931.000000	0.001342  
3930.000000	0.001384  
3929.000000	0.001486  
3928.000000	0.001624  
3927.000000	0.001751  
3926.000000	0.001838  
3925.000000	0.001893  
3924.000000	0.001934  
3923.000000	0.001964  
3922.000000	0.001991  
3921.000000	0.002021  
3920.000000	0.002034  
3919.000000	0.001990  
3918.000000	0.001882  
3917.000000	0.001769  
3916.000000	0.001709  
3915.000000	0.001701  
3914.000000	0.001690  
3913.000000	0.001622  
3912.000000	0.001484  
3911.000000	0.001324  
3910.000000	0.001228  
3909.000000	0.001267  
3908.000000	0.001436  
3907.000000	0.001665  
3906.000000	0.001870  
3905.000000	0.002031  
3904.000000	0.002162  
3903.000000	0.002225  
3902.000000	0.002155  
3901.000000	0.001986  
3900.000000	0.001861  
3899.000000	0.001883  
3898.000000	0.001991  
3897.000000	0.002043  
3896.000000	0.001966  
3895.000000	0.001780  
3894.000000	0.001562  
3893.000000	0.001414  
3892.000000	0.001435  
3891.000000	0.001619  
3890.000000	0.001826  
3889.000000	0.001912  
3888.000000	0.001847  
3887.000000	0.001719  
3886.000000	0.001665  
3885.000000	0.001715  
3884.000000	0.001759  
3883.000000	0.001703  
3882.000000	0.001586  
3881.000000	0.001523  
3880.000000	0.001573  
3879.000000	0.001653  
3878.000000	0.001651  
3877.000000	0.001565  
3876.000000	0.001504  
3875.000000	0.001617  
3874.000000	0.001938  
3873.000000	0.002298  
3872.000000	0.002485  
3871.000000	0.002487  
3870.000000	0.002481  
3869.000000	0.002537  
3868.000000	0.002521  
3867.000000	0.002342  
3866.000000	0.002075  
3865.000000	0.001856  
3864.000000	0.001761  
3863.000000	0.001774  
3862.000000	0.001841  
3861.000000	0.001898  
3860.000000	0.001904  
3859.000000	0.001882  
3858.000000	0.001908  
3857.000000	0.002022  
3856.000000	0.002144  
3855.000000	0.002118  
3854.000000	0.002015  
3853.000000	0.002033  
3852.000000	0.002094  
3851.000000	0.002072  
3850.000000	0.002041  
3849.000000	0.002090  
3848.000000	0.002211  
3847.000000	0.002336  
3846.000000	0.002430  
3845.000000	0.002532  
3844.000000	0.002713  
3843.000000	0.002979  
3842.000000	0.003229  
3841.000000	0.003334  
3840.000000	0.003242  
3839.000000	0.002997  
3838.000000	0.002702  
3837.000000	0.002457  
3836.000000	0.002330  
3835.000000	0.002336  
3834.000000	0.002437  
3833.000000	0.002547  
3832.000000	0.002582  
3831.000000	0.002512  
3830.000000	0.002361  
3829.000000	0.002183  
3828.000000	0.002027  
3827.000000	0.001944  
3826.000000	0.001961  
3825.000000	0.002070  
3824.000000	0.002245  
3823.000000	0.002469  
3822.000000	0.002741  
3821.000000	0.003005  
3820.000000	0.003057  
3819.000000	0.002738  
3818.000000	0.002172  
3817.000000	0.001704  
3816.000000	0.001604  
3815.000000	0.001780  
3814.000000	0.001940  
3813.000000	0.001967  
3812.000000	0.001934  
3811.000000	0.001891  
3810.000000	0.001788  
3809.000000	0.001579  
3808.000000	0.001397  
3807.000000	0.001475  
3806.000000	0.001850  
3805.000000	0.002300  
3804.000000	0.002575  
3803.000000	0.002558  
3802.000000	0.002352  
3801.000000	0.002159  
3800.000000	0.002011  
3799.000000	0.001864  
3798.000000	0.001773  
3797.000000	0.001823  
3796.000000	0.001995  
3795.000000	0.002147  
3794.000000	0.002163  
3793.000000	0.002051  
3792.000000	0.001895  
3791.000000	0.001756  
3790.000000	0.001642  
3789.000000	0.001550  
3788.000000	0.001494  
3787.000000	0.001499  
3786.000000	0.001580  
3785.000000	0.001705  
3784.000000	0.001791  
3783.000000	0.001757  
3782.000000	0.001603  
3781.000000	0.001437  
3780.000000	0.001406  
3779.000000	0.001554  
3778.000000	0.001760  
3777.000000	0.001869  
3776.000000	0.001846  
3775.000000	0.001754  
3774.000000	0.001656  
3773.000000	0.001570  
3772.000000	0.001535  
3771.000000	0.001645  
3770.000000	0.001945  
3769.000000	0.002298  
3768.000000	0.002461  
3767.000000	0.002330  
3766.000000	0.002024  
3765.000000	0.001759  
3764.000000	0.001638  
3763.000000	0.001616  
3762.000000	0.001618  
3761.000000	0.001619  
3760.000000	0.001641  
3759.000000	0.001726  
3758.000000	0.001895  
3757.000000	0.002103  
3756.000000	0.002258  
3755.000000	0.002335  
3754.000000	0.002459  
3753.000000	0.002823  
3752.000000	0.003423  
3751.000000	0.003945  
3750.000000	0.004092  
3749.000000	0.003930  
3748.000000	0.003712  
3747.000000	0.003610  
3746.000000	0.003658  
3745.000000	0.003816  
3744.000000	0.003924  
3743.000000	0.003772  
3742.000000	0.003404  
3741.000000	0.003107  
3740.000000	0.003118  
3739.000000	0.003444  
3738.000000	0.003875  
3737.000000	0.004154  
3736.000000	0.004159  
3735.000000	0.003972  
3734.000000	0.003777  
3733.000000	0.003701  
3732.000000	0.003739  
3731.000000	0.003799  
3730.000000	0.003801  
3729.000000	0.003712  
3728.000000	0.003536  
3727.000000	0.003310  
3726.000000	0.003098  
3725.000000	0.002963  
3724.000000	0.002933  
3723.000000	0.002957  
3722.000000	0.002910  
3721.000000	0.002684  
3720.000000	0.002284  
3719.000000	0.001841  
3718.000000	0.001524  
3717.000000	0.001410  
3716.000000	0.001436  
3715.000000	0.001488  
3714.000000	0.001513  
3713.000000	0.001577  
3712.000000	0.001791  
3711.000000	0.002138  
3710.000000	0.002442  
3709.000000	0.002581  
3708.000000	0.002618  
3707.000000	0.002687  
3706.000000	0.002818  
3705.000000	0.002882  
3704.000000	0.002718  
3703.000000	0.002314  
3702.000000	0.001880  
3701.000000	0.001642  
3700.000000	0.001622  
3699.000000	0.001687  
3698.000000	0.001734  
3697.000000	0.001763  
3696.000000	0.001818  
3695.000000	0.001930  
3694.000000	0.002095  
3693.000000	0.002246  
3692.000000	0.002275  
3691.000000	0.002136  
3690.000000	0.001964  
3689.000000	0.001944  
3688.000000	0.002037  
3687.000000	0.002054  
3686.000000	0.001941  
3685.000000	0.001831  
3684.000000	0.001875  
3683.000000	0.002058  
3682.000000	0.002197  
3681.000000	0.002147  
3680.000000	0.001946  
3679.000000	0.001724  
3678.000000	0.001585  
3677.000000	0.001610  
3676.000000	0.001916  
3675.000000	0.002424  
3674.000000	0.002800  
3673.000000	0.002849  
3672.000000	0.002677  
3671.000000	0.002505  
3670.000000	0.002496  
3669.000000	0.002593  
3668.000000	0.002605  
3667.000000	0.002469  
3666.000000	0.002245  
3665.000000	0.001971  
3664.000000	0.001623  
3663.000000	0.001189  
3662.000000	0.000734  
3661.000000	0.000378  
3660.000000	0.000195  
3659.000000	0.000196  
3658.000000	0.000391  
3657.000000	0.000830  
3656.000000	0.001484  
3655.000000	0.002151  
3654.000000	0.002598  
3653.000000	0.002723  
3652.000000	0.002567  
3651.000000	0.002294  
3650.000000	0.002131  
3649.000000	0.002175  
3648.000000	0.002316  
3647.000000	0.002410  
3646.000000	0.002399  
3645.000000	0.002300  
3644.000000	0.002200  
3643.000000	0.002209  
3642.000000	0.002360  
3641.000000	0.002548  
3640.000000	0.002603  
3639.000000	0.002459  
3638.000000	0.002215  
3637.000000	0.002036  
3636.000000	0.002039  
3635.000000	0.002235  
3634.000000	0.002536  
3633.000000	0.002792  
3632.000000	0.002877  
3631.000000	0.002788  
3630.000000	0.002695  
3629.000000	0.002803  
3628.000000	0.002997  
3627.000000	0.002986  
3626.000000	0.002746  
3625.000000	0.002479  
3624.000000	0.002338  
3623.000000	0.002302  
3622.000000	0.002230  
3621.000000	0.002029  
3620.000000	0.001769  
3619.000000	0.001616  
3618.000000	0.001616  
3617.000000	0.001666  
3616.000000	0.001679  
3615.000000	0.001681  
3614.000000	0.001776  
3613.000000	0.002034  
3612.000000	0.002405  
3611.000000	0.002764  
3610.000000	0.003004  
3609.000000	0.003060  
3608.000000	0.002932  
3607.000000	0.002681  
3606.000000	0.002386  
3605.000000	0.002105  
3604.000000	0.001870  
3603.000000	0.001722  
3602.000000	0.001730  
3601.000000	0.001943  
3600.000000	0.002304  
3599.000000	0.002653  
3598.000000	0.002839  
3597.000000	0.002811  
3596.000000	0.002635  
3595.000000	0.002450  
3594.000000	0.002361  
3593.000000	0.002354  
3592.000000	0.002327  
3591.000000	0.002199  
3590.000000	0.001996  
3589.000000	0.001861  
3588.000000	0.001940  
3587.000000	0.002195  
3586.000000	0.002408  
3585.000000	0.002422  
3584.000000	0.002255  
3583.000000	0.002015  
3582.000000	0.001809  
3581.000000	0.001718  
3580.000000	0.001762  
3579.000000	0.001872  
3578.000000	0.001921  
3577.000000	0.001834  
3576.000000	0.001659  
3575.000000	0.001509  
3574.000000	0.001446  
3573.000000	0.001437  
3572.000000	0.001424  
3571.000000	0.001409  
3570.000000	0.001447  
3569.000000	0.001570  
3568.000000	0.001734  
3567.000000	0.001852  
3566.000000	0.001897  
3565.000000	0.001914  
3564.000000	0.001939  
3563.000000	0.001951  
3562.000000	0.001904  
3561.000000	0.001815  
3560.000000	0.001779  
3559.000000	0.001871  
3558.000000	0.002053  
3557.000000	0.002192  
3556.000000	0.002169  
3555.000000	0.001971  
3554.000000	0.001692  
3553.000000	0.001470  
3552.000000	0.001390  
3551.000000	0.001426  
3550.000000	0.001476  
3549.000000	0.001451  
3548.000000	0.001334  
3547.000000	0.001199  
3546.000000	0.001161  
3545.000000	0.001280  
3544.000000	0.001503  
3543.000000	0.001728  
3542.000000	0.001902  
3541.000000	0.002038  
3540.000000	0.002158  
3539.000000	0.002223  
3538.000000	0.002150  
3537.000000	0.001913  
3536.000000	0.001607  
3535.000000	0.001390  
3534.000000	0.001361  
3533.000000	0.001504  
3532.000000	0.001728  
3531.000000	0.001935  
3530.000000	0.002071  
3529.000000	0.002118  
3528.000000	0.002085  
3527.000000	0.001980  
3526.000000	0.001820  
3525.000000	0.001638  
3524.000000	0.001493  
3523.000000	0.001442  
3522.000000	0.001496  
3521.000000	0.001603  
3520.000000	0.001691  
3519.000000	0.001730  
3518.000000	0.001736  
3517.000000	0.001737  
3516.000000	0.001743  
3515.000000	0.001758  
3514.000000	0.001799  
3513.000000	0.001874  
3512.000000	0.001969  
3511.000000	0.002057  
3510.000000	0.002118  
3509.000000	0.002128  
3508.000000	0.002069  
3507.000000	0.001951  
3506.000000	0.001834  
3505.000000	0.001787  
3504.000000	0.001832  
3503.000000	0.001917  
3502.000000	0.001974  
3501.000000	0.001965  
3500.000000	0.001897  
3499.000000	0.001809  
3498.000000	0.001758  
3497.000000	0.001786  
3496.000000	0.001888  
3495.000000	0.002012  
3494.000000	0.002099  
3493.000000	0.002101  
3492.000000	0.001987  
3491.000000	0.001788  
3490.000000	0.001609  
3489.000000	0.001564  
3488.000000	0.001664  
3487.000000	0.001807  
3486.000000	0.001901  
3485.000000	0.001953  
3484.000000	0.002014  
3483.000000	0.002068  
3482.000000	0.002038  
3481.000000	0.001894  
3480.000000	0.001708  
3479.000000	0.001583  
3478.000000	0.001559  
3477.000000	0.001603  
3476.000000	0.001668  
3475.000000	0.001736  
3474.000000	0.001817  
3473.000000	0.001903  
3472.000000	0.001949  
3471.000000	0.001910  
3470.000000	0.001784  
3469.000000	0.001625  
3468.000000	0.001500  
3467.000000	0.001446  
3466.000000	0.001461  
3465.000000	0.001507  
3464.000000	0.001525  
3463.000000	0.001469  
3462.000000	0.001366  
3461.000000	0.001296  
3460.000000	0.001328  
3459.000000	0.001454  
3458.000000	0.001627  
3457.000000	0.001808  
3456.000000	0.001959  
3455.000000	0.002033  
3454.000000	0.002021  
3453.000000	0.001999  
3452.000000	0.002053  
3451.000000	0.002162  
3450.000000	0.002201  
3449.000000	0.002104  
3448.000000	0.001965  
3447.000000	0.001927  
3446.000000	0.002026  
3445.000000	0.002173  
3444.000000	0.002272  
3443.000000	0.002291  
3442.000000	0.002243  
3441.000000	0.002170  
3440.000000	0.002142  
3439.000000	0.002213  
3438.000000	0.002355  
3437.000000	0.002448  
3436.000000	0.002372  
3435.000000	0.002127  
3434.000000	0.001859  
3433.000000	0.001750  
3432.000000	0.001880  
3431.000000	0.002165  
3430.000000	0.002427  
3429.000000	0.002524  
3428.000000	0.002412  
3427.000000	0.002139  
3426.000000	0.001817  
3425.000000	0.001579  
3424.000000	0.001511  
3423.000000	0.001588  
3422.000000	0.001712  
3421.000000	0.001811  
3420.000000	0.001885  
3419.000000	0.001959  
3418.000000	0.002024  
3417.000000	0.002057  
3416.000000	0.002070  
3415.000000	0.002089  
3414.000000	0.002118  
3413.000000	0.002148  
3412.000000	0.002198  
3411.000000	0.002286  
3410.000000	0.002372  
3409.000000	0.002360  
3408.000000	0.002189  
3407.000000	0.001908  
3406.000000	0.001644  
3405.000000	0.001508  
3404.000000	0.001525  
3403.000000	0.001659  
3402.000000	0.001865  
3401.000000	0.002095  
3400.000000	0.002270  
3399.000000	0.002295  
3398.000000	0.002153  
3397.000000	0.001970  
3396.000000	0.001936  
3395.000000	0.002144  
3394.000000	0.002502  
3393.000000	0.002811  
3392.000000	0.002919  
3391.000000	0.002799  
3390.000000	0.002541  
3389.000000	0.002273  
3388.000000	0.002088  
3387.000000	0.001987  
3386.000000	0.001913  
3385.000000	0.001848  
3384.000000	0.001867  
3383.000000	0.002048  
3382.000000	0.002358  
3381.000000	0.002656  
3380.000000	0.002818  
3379.000000	0.002806  
3378.000000	0.002636  
3377.000000	0.002327  
3376.000000	0.001937  
3375.000000	0.001600  
3374.000000	0.001472  
3373.000000	0.001599  
3372.000000	0.001889  
3371.000000	0.002197  
3370.000000	0.002442  
3369.000000	0.002613  
3368.000000	0.002712  
3367.000000	0.002726  
3366.000000	0.002660  
3365.000000	0.002569  
3364.000000	0.002507  
3363.000000	0.002471  
3362.000000	0.002419  
3361.000000	0.002356  
3360.000000	0.002339  
3359.000000	0.002403  
3358.000000	0.002498  
3357.000000	0.002548  
3356.000000	0.002547  
3355.000000	0.002540  
3354.000000	0.002543  
3353.000000	0.002523  
3352.000000	0.002455  
3351.000000	0.002354  
3350.000000	0.002245  
3349.000000	0.002142  
3348.000000	0.002080  
3347.000000	0.002109  
3346.000000	0.002230  
3345.000000	0.002356  
3344.000000	0.002380  
3343.000000	0.002298  
3342.000000	0.002207  
3341.000000	0.002191  
3340.000000	0.002233  
3339.000000	0.002247  
3338.000000	0.002187  
3337.000000	0.002097  
3336.000000	0.002055  
3335.000000	0.002088  
3334.000000	0.002160  
3333.000000	0.002218  
3332.000000	0.002247  
3331.000000	0.002264  
3330.000000	0.002289  
3329.000000	0.002336  
3328.000000	0.002413  
3327.000000	0.002502  
3326.000000	0.002547  
3325.000000	0.002503  
3324.000000	0.002397  
3323.000000	0.002322  
3322.000000	0.002338  
3321.000000	0.002409  
3320.000000	0.002455  
3319.000000	0.002454  
3318.000000	0.002454  
3317.000000	0.002494  
3316.000000	0.002547  
3315.000000	0.002552  
3314.000000	0.002483  
3313.000000	0.002376  
3312.000000	0.002304  
3311.000000	0.002328  
3310.000000	0.002451  
3309.000000	0.002595  
3308.000000	0.002633  
3307.000000	0.002496  
3306.000000	0.002259  
3305.000000	0.002096  
3304.000000	0.002128  
3303.000000	0.002315  
3302.000000	0.002518  
3301.000000	0.002647  
3300.000000	0.002697  
3299.000000	0.002688  
3298.000000	0.002615  
3297.000000	0.002494  
3296.000000	0.002391  
3295.000000	0.002359  
3294.000000	0.002375  
3293.000000	0.002393  
3292.000000	0.002426  
3291.000000	0.002523  
3290.000000	0.002658  
3289.000000	0.002714  
3288.000000	0.002610  
3287.000000	0.002391  
3286.000000	0.002169  
3285.000000	0.002006  
3284.000000	0.001891  
3283.000000	0.001813  
3282.000000	0.001798  
3281.000000	0.001859  
3280.000000	0.001960  
3279.000000	0.002041  
3278.000000	0.002083  
3277.000000	0.002131  
3276.000000	0.002248  
3275.000000	0.002468  
3274.000000	0.002758  
3273.000000	0.003038  
3272.000000	0.003204  
3271.000000	0.003179  
3270.000000	0.002960  
3269.000000	0.002631  
3268.000000	0.002315  
3267.000000	0.002094  
3266.000000	0.001982  
3265.000000	0.001973  
3264.000000	0.002069  
3263.000000	0.002246  
3262.000000	0.002431  
3261.000000	0.002560  
3260.000000	0.002652  
3259.000000	0.002779  
3258.000000	0.002950  
3257.000000	0.003066  
3256.000000	0.003015  
3255.000000	0.002799  
3254.000000	0.002557  
3253.000000	0.002449  
3252.000000	0.002525  
3251.000000	0.002685  
3250.000000	0.002784  
3249.000000	0.002768  
3248.000000	0.002710  
3247.000000	0.002694  
3246.000000	0.002709  
3245.000000	0.002684  
3244.000000	0.002614  
3243.000000	0.002571  
3242.000000	0.002594  
3241.000000	0.002622  
3240.000000	0.002582  
3239.000000	0.002470  
3238.000000	0.002338  
3237.000000	0.002219  
3236.000000	0.002114  
3235.000000	0.002025  
3234.000000	0.001959  
3233.000000	0.001930  
3232.000000	0.001963  
3231.000000	0.002071  
3230.000000	0.002214  
3229.000000	0.002310  
3228.000000	0.002331  
3227.000000	0.002344  
3226.000000	0.002430  
3225.000000	0.002581  
3224.000000	0.002715  
3223.000000	0.002771  
3222.000000	0.002743  
3221.000000	0.002653  
3220.000000	0.002542  
3219.000000	0.002471  
3218.000000	0.002490  
3217.000000	0.002586  
3216.000000	0.002696  
3215.000000	0.002778  
3214.000000	0.002829  
3213.000000	0.002855  
3212.000000	0.002856  
3211.000000	0.002847  
3210.000000	0.002849  
3209.000000	0.002857  
3208.000000	0.002845  
3207.000000	0.002818  
3206.000000	0.002816  
3205.000000	0.002867  
3204.000000	0.002970  
3203.000000	0.003110  
3202.000000	0.003255  
3201.000000	0.003329  
3200.000000	0.003247  
3199.000000	0.002996  
3198.000000	0.002670  
3197.000000	0.002382  
3196.000000	0.002185  
3195.000000	0.002072  
3194.000000	0.002030  
3193.000000	0.002057  
3192.000000	0.002154  
3191.000000	0.002320  
3190.000000	0.002554  
3189.000000	0.002826  
3188.000000	0.003059  
3187.000000	0.003179  
3186.000000	0.003183  
3185.000000	0.003144  
3184.000000	0.003118  
3183.000000	0.003084  
3182.000000	0.002978  
3181.000000	0.002788  
3180.000000	0.002587  
3179.000000	0.002461  
3178.000000	0.002432  
3177.000000	0.002466  
3176.000000	0.002533  
3175.000000	0.002632  
3174.000000	0.002746  
3173.000000	0.002813  
3172.000000	0.002777  
3171.000000	0.002655  
3170.000000	0.002537  
3169.000000	0.002510  
3168.000000	0.002588  
3167.000000	0.002708  
3166.000000	0.002783  
3165.000000	0.002774  
3164.000000	0.002709  
3163.000000	0.002637  
3162.000000	0.002581  
3161.000000	0.002539  
3160.000000	0.002527  
3159.000000	0.002585  
3158.000000	0.002718  
3157.000000	0.002862  
3156.000000	0.002937  
3155.000000	0.002932  
3154.000000	0.002924  
3153.000000	0.002995  
3152.000000	0.003129  
3151.000000	0.003206  
3150.000000	0.003102  
3149.000000	0.002817  
3148.000000	0.002484  
3147.000000	0.002254  
3146.000000	0.002161  
3145.000000	0.002143  
3144.000000	0.002157  
3143.000000	0.002219  
3142.000000	0.002330  
3141.000000	0.002430  
3140.000000	0.002474  
3139.000000	0.002497  
3138.000000	0.002570  
3137.000000	0.002694  
3136.000000	0.002795  
3135.000000	0.002808  
3134.000000	0.002728  
3133.000000	0.002612  
3132.000000	0.002551  
3131.000000	0.002624  
3130.000000	0.002816  
3129.000000	0.003005  
3128.000000	0.003057  
3127.000000	0.002950  
3126.000000	0.002779  
3125.000000	0.002662  
3124.000000	0.002661  
3123.000000	0.002779  
3122.000000	0.002959  
3121.000000	0.003093  
3120.000000	0.003087  
3119.000000	0.002933  
3118.000000	0.002716  
3117.000000	0.002539  
3116.000000	0.002467  
3115.000000	0.002514  
3114.000000	0.002645  
3113.000000	0.002781  
3112.000000	0.002858  
3111.000000	0.002889  
3110.000000	0.002927  
3109.000000	0.002971  
3108.000000	0.002949  
3107.000000	0.002814  
3106.000000	0.002614  
3105.000000	0.002455  
3104.000000	0.002419  
3103.000000	0.002526  
3102.000000	0.002736  
3101.000000	0.002947  
3100.000000	0.003037  
3099.000000	0.002945  
3098.000000	0.002723  
3097.000000	0.002512  
3096.000000	0.002439  
3095.000000	0.002544  
3094.000000	0.002754  
3093.000000	0.002941  
3092.000000	0.003019  
3091.000000	0.003004  
3090.000000	0.002975  
3089.000000	0.002979  
3088.000000	0.002995  
3087.000000	0.003004  
3086.000000	0.003031  
3085.000000	0.003097  
3084.000000	0.003162  
3083.000000	0.003164  
3082.000000	0.003106  
3081.000000	0.003069  
3080.000000	0.003136  
3079.000000	0.003318  
3078.000000	0.003555  
3077.000000	0.003755  
3076.000000	0.003851  
3075.000000	0.003830  
3074.000000	0.003734  
3073.000000	0.003634  
3072.000000	0.003591  
3071.000000	0.003637  
3070.000000	0.003755  
3069.000000	0.003880  
3068.000000	0.003932  
3067.000000	0.003879  
3066.000000	0.003773  
3065.000000	0.003708  
3064.000000	0.003749  
3063.000000	0.003881  
3062.000000	0.004025  
3061.000000	0.004093  
3060.000000	0.004061  
3059.000000	0.003991  
3058.000000	0.003968  
3057.000000	0.004014  
3056.000000	0.004080  
3055.000000	0.004124  
3054.000000	0.004152  
3053.000000	0.004179  
3052.000000	0.004176  
3051.000000	0.004121  
3050.000000	0.004052  
3049.000000	0.004043  
3048.000000	0.004127  
3047.000000	0.004267  
3046.000000	0.004408  
3045.000000	0.004515  
3044.000000	0.004561  
3043.000000	0.004530  
3042.000000	0.004445  
3041.000000	0.004378  
3040.000000	0.004404  
3039.000000	0.004530  
3038.000000	0.004688  
3037.000000	0.004785  
3036.000000	0.004780  
3035.000000	0.004712  
3034.000000	0.004652  
3033.000000	0.004655  
3032.000000	0.004743  
3031.000000	0.004921  
3030.000000	0.005161  
3029.000000	0.005389  
3028.000000	0.005532  
3027.000000	0.005602  
3026.000000	0.005692  
3025.000000	0.005878  
3024.000000	0.006147  
3023.000000	0.006428  
3022.000000	0.006654  
3021.000000	0.006777  
3020.000000	0.006780  
3019.000000	0.006721  
3018.000000	0.006738  
3017.000000	0.006939  
3016.000000	0.007287  
3015.000000	0.007631  
3014.000000	0.007869  
3013.000000	0.008011  
3012.000000	0.008119  
3011.000000	0.008221  
3010.000000	0.008319  
3009.000000	0.008432  
3008.000000	0.008577  
3007.000000	0.008742  
3006.000000	0.008880  
3005.000000	0.008939  
3004.000000	0.008887  
3003.000000	0.008747  
3002.000000	0.008610  
3001.000000	0.008598  
3000.000000	0.008768  
2999.000000	0.009064  
2998.000000	0.009374  
2997.000000	0.009618  
2996.000000	0.009778  
2995.000000	0.009882  
2994.000000	0.009995  
2993.000000	0.010208  
2992.000000	0.010592  
2991.000000	0.011128  
2990.000000	0.011729  
2989.000000	0.012313  
2988.000000	0.012881  
2987.000000	0.013500  
2986.000000	0.014245  
2985.000000	0.015151  
2984.000000	0.016200  
2983.000000	0.017348  
2982.000000	0.018557  
2981.000000	0.019837  
2980.000000	0.021251  
2979.000000	0.022876  
2978.000000	0.024764  
2977.000000	0.026945  
2976.000000	0.029447  
2975.000000	0.032309  
2974.000000	0.035550  
2973.000000	0.039150  
2972.000000	0.043056  
2971.000000	0.047231  
2970.000000	0.051695  
2969.000000	0.056517  
2968.000000	0.061741  
2967.000000	0.067298  
2966.000000	0.072996  
2965.000000	0.078630  
2964.000000	0.084085  
2963.000000	0.089338  
2962.000000	0.094373  
2961.000000	0.099136  
2960.000000	0.103568  
2959.000000	0.107605  
2958.000000	0.111135  
2957.000000	0.113987  
2956.000000	0.116011  
2955.000000	0.117130  
2954.000000	0.117330  
2953.000000	0.116643  
2952.000000	0.115180  
2951.000000	0.113148  
2950.000000	0.110786  
2949.000000	0.108306  
2948.000000	0.105905  
2947.000000	0.103800  
2946.000000	0.102212  
2945.000000	0.101309  
2944.000000	0.101194  
2943.000000	0.101929  
2942.000000	0.103551  
2941.000000	0.106062  
2940.000000	0.109439  
2939.000000	0.113665  
2938.000000	0.118724  
2937.000000	0.124538  
2936.000000	0.130934  
2935.000000	0.137697  
2934.000000	0.144668  
2933.000000	0.151807  
2932.000000	0.159164  
2931.000000	0.166770  
2930.000000	0.174546  
2929.000000	0.182294  
2928.000000	0.189765  
2927.000000	0.196714  
2926.000000	0.202916  
2925.000000	0.208148  
2924.000000	0.212184  
2923.000000	0.214787  
2922.000000	0.215765  
2921.000000	0.215092  
2920.000000	0.212976  
2919.000000	0.209733  
2918.000000	0.205615  
2917.000000	0.200798  
2916.000000	0.195491  
2915.000000	0.189960  
2914.000000	0.184411  
2913.000000	0.178925  
2912.000000	0.173555  
2911.000000	0.168422  
2910.000000	0.163661  
2909.000000	0.159272  
2908.000000	0.155071  
2907.000000	0.150828  
2906.000000	0.146439  
2905.000000	0.141990  
2904.000000	0.137655  
2903.000000	0.133563  
2902.000000	0.129727  
2901.000000	0.126075  
2900.000000	0.122499  
2899.000000	0.118902  
2898.000000	0.115237  
2897.000000	0.111536  
2896.000000	0.107894  
2895.000000	0.104396  
2894.000000	0.101062  
2893.000000	0.097832  
2892.000000	0.094627  
2891.000000	0.091413  
2890.000000	0.088249  
2889.000000	0.085255  
2888.000000	0.082546  
2887.000000	0.080186  
2886.000000	0.078194  
2885.000000	0.076591  
2884.000000	0.075415  
2883.000000	0.074705  
2882.000000	0.074501  
2881.000000	0.074859  
2880.000000	0.075858  
2879.000000	0.077568  
2878.000000	0.079987  
2877.000000	0.083001  
2876.000000	0.086377  
2875.000000	0.089802  
2874.000000	0.092945  
2873.000000	0.095525  
2872.000000	0.097371  
2871.000000	0.098453  
2870.000000	0.098903  
2869.000000	0.098984  
2868.000000	0.099000  
2867.000000	0.099197  
2866.000000	0.099754  
2865.000000	0.100863  
2864.000000	0.102726  
2863.000000	0.105430  
2862.000000	0.108845  
2861.000000	0.112729  
2860.000000	0.116928  
2859.000000	0.121407  
2858.000000	0.126051  
2857.000000	0.130525  
2856.000000	0.134330  
2855.000000	0.136971  
2854.000000	0.138066  
2853.000000	0.137397  
2852.000000	0.134974  
2851.000000	0.131015  
2850.000000	0.125833  
2849.000000	0.119721  
2848.000000	0.112951  
2847.000000	0.105834  
2846.000000	0.098704  
2845.000000	0.091797  
2844.000000	0.085155  
2843.000000	0.078678  
2842.000000	0.072287  
2841.000000	0.066051  
2840.000000	0.060143  
2839.000000	0.054722  
2838.000000	0.049859  
2837.000000	0.045547  
2836.000000	0.041725  
2835.000000	0.038291  
2834.000000	0.035142  
2833.000000	0.032239  
2832.000000	0.029635  
2831.000000	0.027413  
2830.000000	0.025592  
2829.000000	0.024091  
2828.000000	0.022785  
2827.000000	0.021587  
2826.000000	0.020464  
2825.000000	0.019408  
2824.000000	0.018408  
2823.000000	0.017468  
2822.000000	0.016625  
2821.000000	0.015920  
2820.000000	0.015353  
2819.000000	0.014865  
2818.000000	0.014395  
2817.000000	0.013923  
2816.000000	0.013467  
2815.000000	0.013031  
2814.000000	0.012584  
2813.000000	0.012101  
2812.000000	0.011603  
2811.000000	0.011161  
2810.000000	0.010839  
2809.000000	0.010644  
2808.000000	0.010521  
2807.000000	0.010405  
2806.000000	0.010258  
2805.000000	0.010073  
2804.000000	0.009847  
2803.000000	0.009576  
2802.000000	0.009280  
2801.000000	0.009006  
2800.000000	0.008797  
2799.000000	0.008652  
2798.000000	0.008528  
2797.000000	0.008398  
2796.000000	0.008277  
2795.000000	0.008187  
2794.000000	0.008093  
2793.000000	0.007908  
2792.000000	0.007578  
2791.000000	0.007168  
2790.000000	0.006830  
2789.000000	0.006678  
2788.000000	0.006700  
2787.000000	0.006784  
2786.000000	0.006814  
2785.000000	0.006740  
2784.000000	0.006585  
2783.000000	0.006405  
2782.000000	0.006267  
2781.000000	0.006215  
2780.000000	0.006251  
2779.000000	0.006318  
2778.000000	0.006325  
2777.000000	0.006199  
2776.000000	0.005937  
2775.000000	0.005622  
2774.000000	0.005376  
2773.000000	0.005277  
2772.000000	0.005313  
2771.000000	0.005405  
2770.000000	0.005465  
2769.000000	0.005446  
2768.000000	0.005336  
2767.000000	0.005160  
2766.000000	0.004979  
2765.000000	0.004862  
2764.000000	0.004843  
2763.000000	0.004892  
2762.000000	0.004943  
2761.000000	0.004956  
2760.000000	0.004931  
2759.000000	0.004882  
2758.000000	0.004811  
2757.000000	0.004726  
2756.000000	0.004656  
2755.000000	0.004633  
2754.000000	0.004652  
2753.000000	0.004670  
2752.000000	0.004649  
2751.000000	0.004602  
2750.000000	0.004577  
2749.000000	0.004604  
2748.000000	0.004655  
2747.000000	0.004671  
2746.000000	0.004624  
2745.000000	0.004551  
2744.000000	0.004519  
2743.000000	0.004554  
2742.000000	0.004628  
2741.000000	0.004709  
2740.000000	0.004795  
2739.000000	0.004903  
2738.000000	0.005017  
2737.000000	0.005104  
2736.000000	0.005163  
2735.000000	0.005234  
2734.000000	0.005346  
2733.000000	0.005465  
2732.000000	0.005519  
2731.000000	0.005481  
2730.000000	0.005393  
2729.000000	0.005338  
2728.000000	0.005364  
2727.000000	0.005445  
2726.000000	0.005500  
2725.000000	0.005458  
2724.000000	0.005315  
2723.000000	0.005133  
2722.000000	0.004992  
2721.000000	0.004933  
2720.000000	0.004958  
2719.000000	0.005040  
2718.000000	0.005134  
2717.000000	0.005191  
2716.000000	0.005189  
2715.000000	0.005139  
2714.000000	0.005048  
2713.000000	0.004892  
2712.000000	0.004666  
2711.000000	0.004439  
2710.000000	0.004307  
2709.000000	0.004301  
2708.000000	0.004358  
2707.000000	0.004405  
2706.000000	0.004421  
2705.000000	0.004406  
2704.000000	0.004337  
2703.000000	0.004197  
2702.000000	0.004026  
2701.000000	0.003894  
2700.000000	0.003830  
2699.000000	0.003810  
2698.000000	0.003813  
2697.000000	0.003855  
2696.000000	0.003944  
2695.000000	0.004050  
2694.000000	0.004130  
2693.000000	0.004167  
2692.000000	0.004170  
2691.000000	0.004161  
2690.000000	0.004182  
2689.000000	0.004283  
2688.000000	0.004464  
2687.000000	0.004637  
2686.000000	0.004693  
2685.000000	0.004615  
2684.000000	0.004503  
2683.000000	0.004475  
2682.000000	0.004551  
2681.000000	0.004661  
2680.000000	0.004727  
2679.000000	0.004722  
2678.000000	0.004679  
2677.000000	0.004664  
2676.000000	0.004729  
2675.000000	0.004870  
2674.000000	0.005019  
2673.000000	0.005091  
2672.000000	0.005055  
2671.000000	0.004948  
2670.000000	0.004829  
2669.000000	0.004743  
2668.000000	0.004712  
2667.000000	0.004745  
2666.000000	0.004824  
2665.000000	0.004911  
2664.000000	0.004968  
2663.000000	0.004956  
2662.000000	0.004845  
2661.000000	0.004643  
2660.000000	0.004427  
2659.000000	0.004291  
2658.000000	0.004244  
2657.000000	0.004208  
2656.000000	0.004126  
2655.000000	0.004041  
2654.000000	0.004025  
2653.000000	0.004068  
2652.000000	0.004095  
2651.000000	0.004082  
2650.000000	0.004089  
2649.000000	0.004156  
2648.000000	0.004243  
2647.000000	0.004278  
2646.000000	0.004225  
2645.000000	0.004109  
2644.000000	0.003981  
2643.000000	0.003910  
2642.000000	0.003944  
2641.000000	0.004068  
2640.000000	0.004194  
2639.000000	0.004230  
2638.000000	0.004142  
2637.000000	0.003962  
2636.000000	0.003764  
2635.000000	0.003649  
2634.000000	0.003693  
2633.000000	0.003873  
2632.000000	0.004067  
2631.000000	0.004160  
2630.000000	0.004127  
2629.000000	0.004016  
2628.000000	0.003885  
2627.000000	0.003793  
2626.000000	0.003788  
2625.000000	0.003850  
2624.000000	0.003870  
2623.000000	0.003760  
2622.000000	0.003551  
2621.000000	0.003363  
2620.000000	0.003253  
2619.000000	0.003188  
2618.000000	0.003139  
2617.000000	0.003148  
2616.000000	0.003252  
2615.000000	0.003415  
2614.000000	0.003558  
2613.000000	0.003635  
2612.000000	0.003659  
2611.000000	0.003672  
2610.000000	0.003721  
2609.000000	0.003836  
2608.000000	0.004001  
2607.000000	0.004156  
2606.000000	0.004239  
2605.000000	0.004225  
2604.000000	0.004122  
2603.000000	0.003955  
2602.000000	0.003782  
2601.000000	0.003685  
2600.000000	0.003698  
2599.000000	0.003748  
2598.000000	0.003717  
2597.000000	0.003569  
2596.000000	0.003391  
2595.000000	0.003289  
2594.000000	0.003261  
2593.000000	0.003209  
2592.000000	0.003070  
2591.000000	0.002894  
2590.000000	0.002800  
2589.000000	0.002845  
2588.000000	0.002983  
2587.000000	0.003121  
2586.000000	0.003208  
2585.000000	0.003237  
2584.000000	0.003208  
2583.000000	0.003118  
2582.000000	0.002993  
2581.000000	0.002889  
2580.000000	0.002856  
2579.000000	0.002906  
2578.000000	0.003015  
2577.000000	0.003133  
2576.000000	0.003193  
2575.000000	0.003132  
2574.000000	0.002958  
2573.000000	0.002773  
2572.000000	0.002700  
2571.000000	0.002771  
2570.000000	0.002892  
2569.000000	0.002934  
2568.000000	0.002841  
2567.000000	0.002668  
2566.000000	0.002517  
2565.000000	0.002451  
2564.000000	0.002452  
2563.000000	0.002450  
2562.000000	0.002390  
2561.000000	0.002289  
2560.000000	0.002212  
2559.000000	0.002204  
2558.000000	0.002263  
2557.000000	0.002374  
2556.000000	0.002526  
2555.000000	0.002680  
2554.000000	0.002753  
2553.000000	0.002698  
2552.000000	0.002602  
2551.000000	0.002618  
2550.000000	0.002790  
2549.000000	0.002997  
2548.000000	0.003089  
2547.000000	0.003032  
2546.000000	0.002880  
2545.000000	0.002673  
2544.000000	0.002440  
2543.000000	0.002253  
2542.000000	0.002190  
2541.000000	0.002225  
2540.000000	0.002257  
2539.000000	0.002245  
2538.000000	0.002252  
2537.000000	0.002321  
2536.000000	0.002383  
2535.000000	0.002331  
2534.000000	0.002151  
2533.000000	0.001939  
2532.000000	0.001800  
2531.000000	0.001771  
2530.000000	0.001804  
2529.000000	0.001813  
2528.000000	0.001764  
2527.000000	0.001715  
2526.000000	0.001759  
2525.000000	0.001908  
2524.000000	0.002095  
2523.000000	0.002269  
2522.000000	0.002419  
2521.000000	0.002501  
2520.000000	0.002439  
2519.000000	0.002246  
2518.000000	0.002088  
2517.000000	0.002122  
2516.000000	0.002326  
2515.000000	0.002535  
2514.000000	0.002633  
2513.000000	0.002626  
2512.000000	0.002572  
2511.000000	0.002491  
2510.000000	0.002386  
2509.000000	0.002272  
2508.000000	0.002183  
2507.000000	0.002168  
2506.000000	0.002259  
2505.000000	0.002407  
2504.000000	0.002482  
2503.000000	0.002392  
2502.000000	0.002203  
2501.000000	0.002086  
2500.000000	0.002130  
2499.000000	0.002256  
2498.000000	0.002308  
2497.000000	0.002194  
2496.000000	0.001932  
2495.000000	0.001615  
2494.000000	0.001373  
2493.000000	0.001319  
2492.000000	0.001488  
2491.000000	0.001816  
2490.000000	0.002174  
2489.000000	0.002432  
2488.000000	0.002512  
2487.000000	0.002418  
2486.000000	0.002215  
2485.000000	0.001980  
2484.000000	0.001770  
2483.000000	0.001660  
2482.000000	0.001735  
2481.000000	0.002007  
2480.000000	0.002356  
2479.000000	0.002595  
2478.000000	0.002624  
2477.000000	0.002470  
2476.000000	0.002228  
2475.000000	0.001994  
2474.000000	0.001857  
2473.000000	0.001859  
2472.000000	0.001954  
2471.000000	0.002015  
2470.000000	0.001944  
2469.000000	0.001757  
2468.000000	0.001577  
2467.000000	0.001541  
2466.000000	0.001695  
2465.000000	0.001942  
2464.000000	0.002117  
2463.000000	0.002138  
2462.000000	0.002068  
2461.000000	0.002009  
2460.000000	0.001987  
2459.000000	0.001985  
2458.000000	0.002050  
2457.000000	0.002226  
2456.000000	0.002418  
2455.000000	0.002437  
2454.000000	0.002218  
2453.000000	0.001908  
2452.000000	0.001672  
2451.000000	0.001510  
2450.000000	0.001334  
2449.000000	0.001153  
2448.000000	0.001086  
2447.000000	0.001201  
2446.000000	0.001440  
2445.000000	0.001691  
2444.000000	0.001874  
2443.000000	0.001970  
2442.000000	0.002010  
2441.000000	0.002038  
2440.000000	0.002053  
2439.000000	0.002013  
2438.000000	0.001910  
2437.000000	0.001829  
2436.000000	0.001856  
2435.000000	0.001953  
2434.000000	0.001995  
2433.000000	0.001927  
2432.000000	0.001822  
2431.000000	0.001764  
2430.000000	0.001749  
2429.000000	0.001731  
2428.000000	0.001724  
2427.000000	0.001792  
2426.000000	0.001950  
2425.000000	0.002129  
2424.000000	0.002242  
2423.000000	0.002258  
2422.000000	0.002211  
2421.000000	0.002155  
2420.000000	0.002126  
2419.000000	0.002122  
2418.000000	0.002108  
2417.000000	0.002051  
2416.000000	0.001974  
2415.000000	0.001957  
2414.000000	0.002057  
2413.000000	0.002226  
2412.000000	0.002334  
2411.000000	0.002303  
2410.000000	0.002193  
2409.000000	0.002141  
2408.000000	0.002209  
2407.000000	0.002314  
2406.000000	0.002309  
2405.000000	0.002123  
2404.000000	0.001821  
2403.000000	0.001548  
2402.000000	0.001418  
2401.000000	0.001435  
2400.000000	0.001528  
2399.000000	0.001635  
2398.000000	0.001755  
2397.000000	0.001906  
2396.000000	0.002064  
2395.000000	0.002189  
2394.000000	0.002286  
2393.000000	0.002403  
2392.000000	0.002567  
2391.000000	0.002738  
2390.000000	0.002843  
2389.000000	0.002861  
2388.000000	0.002861  
2387.000000	0.002981  
2386.000000	0.003341  
2385.000000	0.003924  
2384.000000	0.004520  
2383.000000	0.004823  
2382.000000	0.004630  
2381.000000	0.003987  
2380.000000	0.003148  
2379.000000	0.002398  
2378.000000	0.001875  
2377.000000	0.001539  
2376.000000	0.001315  
2375.000000	0.001243  
2374.000000	0.001467  
2373.000000	0.002065  
2372.000000	0.002937  
2371.000000	0.003870  
2370.000000	0.004658  
2369.000000	0.005123  
2368.000000	0.005159  
2367.000000	0.004869  
2366.000000	0.004548  
2365.000000	0.004374  
2364.000000	0.004228  
2363.000000	0.003967  
2362.000000	0.003615  
2361.000000	0.003373  
2360.000000	0.003591  
2359.000000	0.004325  
2358.000000	0.005119  
2357.000000	0.005318  
2356.000000	0.004774  
2355.000000	0.004049  
2354.000000	0.003592  
2353.000000	0.003484  
2352.000000	0.003581  
2351.000000	0.003756  
2350.000000	0.003977  
2349.000000	0.004081  
2348.000000	0.004033  
2347.000000	0.003918  
2346.000000	0.004145  
2345.000000	0.005021  
2344.000000	0.006066  
2343.000000	0.006467  
2342.000000	0.005676  
2341.000000	0.004209  
2340.000000	0.003057  
2339.000000	0.002598  
2338.000000	0.002376  
2337.000000	0.001928  
2336.000000	0.001378  
2335.000000	0.001117  
2334.000000	0.001187  
2333.000000	0.001444  
2332.000000	0.001832  
2331.000000	0.002407  
2330.000000	0.003226  
2329.000000	0.004081  
2328.000000	0.004866  
2327.000000	0.005382  
2326.000000	0.005519  
2325.000000	0.005321  
2324.000000	0.004886  
2323.000000	0.004397  
2322.000000	0.003887  
2321.000000	0.003596  
2320.000000	0.003775  
2319.000000	0.004442  
2318.000000	0.005171  
2317.000000	0.005431  
2316.000000	0.005072  
2315.000000	0.004409  
2314.000000	0.003977  
2313.000000	0.004055  
2312.000000	0.004523  
2311.000000	0.005000  
2310.000000	0.005264  
2309.000000	0.005362  
2308.000000	0.005436  
2307.000000	0.005481  
2306.000000	0.005371  
2305.000000	0.005090  
2304.000000	0.004782  
2303.000000	0.004605  
2302.000000	0.004570  
2301.000000	0.004582  
2300.000000	0.004591  
2299.000000	0.004631  
2298.000000	0.004772  
2297.000000	0.004978  
2296.000000	0.005112  
2295.000000	0.005017  
2294.000000	0.004683  
2293.000000	0.004259  
2292.000000	0.003917  
2291.000000	0.003699  
2290.000000	0.003533  
2289.000000	0.003357  
2288.000000	0.003137  
2287.000000	0.002834  
2286.000000	0.002429  
2285.000000	0.002029  
2284.000000	0.001810  
2283.000000	0.001834  
2282.000000	0.001963  
2281.000000	0.002042  
2280.000000	0.002087  
2279.000000	0.002225  
2278.000000	0.002454  
2277.000000	0.002605  
2276.000000	0.002570  
2275.000000	0.002484  
2274.000000	0.002604  
2273.000000	0.003000  
2272.000000	0.003454  
2271.000000	0.003684  
2270.000000	0.003623  
2269.000000	0.003415  
2268.000000	0.003180  
2267.000000	0.002886  
2266.000000	0.002497  
2265.000000	0.002127  
2264.000000	0.001945  
2263.000000	0.001974  
2262.000000	0.002098  
2261.000000	0.002233  
2260.000000	0.002383  
2259.000000	0.002533  
2258.000000	0.002627  
2257.000000	0.002680  
2256.000000	0.002784  
2255.000000	0.002955  
2254.000000	0.003075  
2253.000000	0.003052  
2252.000000	0.002947  
2251.000000	0.002851  
2250.000000	0.002749  
2249.000000	0.002567  
2248.000000	0.002294  
2247.000000	0.001965  
2246.000000	0.001610  
2245.000000	0.001290  
2244.000000	0.001131  
2243.000000	0.001202  
2242.000000	0.001414  
2241.000000	0.001630  
2240.000000	0.001836  
2239.000000	0.002077  
2238.000000	0.002279  
2237.000000	0.002286  
2236.000000	0.002074  
2235.000000	0.001805  
2234.000000	0.001643  
2233.000000	0.001605  
2232.000000	0.001617  
2231.000000	0.001615  
2230.000000	0.001560  
2229.000000	0.001441  
2228.000000	0.001312  
2227.000000	0.001269  
2226.000000	0.001336  
2225.000000	0.001414  
2224.000000	0.001353  
2223.000000	0.001083  
2222.000000	0.000690  
2221.000000	0.000426  
2220.000000	0.000556  
2219.000000	0.001076  
2218.000000	0.001632  
2217.000000	0.001858  
2216.000000	0.001785  
2215.000000	0.001760  
2214.000000	0.001943  
2213.000000	0.002104  
2212.000000	0.002006  
2211.000000	0.001754  
2210.000000	0.001603  
2209.000000	0.001549  
2208.000000	0.001392  
2207.000000	0.001125  
2206.000000	0.001031  
2205.000000	0.001336  
2204.000000	0.001944  
2203.000000	0.002604  
2202.000000	0.003162  
2201.000000	0.003569  
2200.000000	0.003791  
2199.000000	0.003849  
2198.000000	0.003873  
2197.000000	0.003966  
2196.000000	0.004028  
2195.000000	0.003839  
2194.000000	0.003339  
2193.000000	0.002720  
2192.000000	0.002187  
2191.000000	0.001744  
2190.000000	0.001315  
2189.000000	0.001000  
2188.000000	0.001023  
2187.000000	0.001406  
2186.000000	0.001838  
2185.000000	0.001998  
2184.000000	0.001908  
2183.000000	0.001857  
2182.000000	0.002038  
2181.000000	0.002402  
2180.000000	0.002803  
2179.000000	0.003124  
2178.000000	0.003224  
2177.000000	0.002992  
2176.000000	0.002518  
2175.000000	0.002038  
2174.000000	0.001655  
2173.000000	0.001271  
2172.000000	0.000896  
2171.000000	0.000794  
2170.000000	0.001148  
2169.000000	0.001696  
2168.000000	0.001971  
2167.000000	0.001898  
2166.000000	0.001894  
2165.000000	0.002279  
2164.000000	0.002813  
2163.000000	0.002966  
2162.000000	0.002527  
2161.000000	0.001797  
2160.000000	0.001234  
2159.000000	0.001057  
2158.000000	0.001188  
2157.000000	0.001466  
2156.000000	0.001792  
2155.000000	0.002111  
2154.000000	0.002370  
2153.000000	0.002523  
2152.000000	0.002566  
2151.000000	0.002532  
2150.000000	0.002446  
2149.000000	0.002304  
2148.000000	0.002117  
2147.000000	0.001961  
2146.000000	0.001935  
2145.000000	0.002084  
2144.000000	0.002344  
2143.000000	0.002553  
2142.000000	0.002513  
2141.000000	0.002121  
2140.000000	0.001497  
2139.000000	0.000960  
2138.000000	0.000817  
2137.000000	0.001132  
2136.000000	0.001667  
2135.000000	0.002075  
2134.000000	0.002145  
2133.000000	0.001940  
2132.000000	0.001729  
2131.000000	0.001757  
2130.000000	0.002044  
2129.000000	0.002385  
2128.000000	0.002563  
2127.000000	0.002515  
2126.000000	0.002296  
2125.000000	0.001967  
2124.000000	0.001606  
2123.000000	0.001373  
2122.000000	0.001442  
2121.000000	0.001827  
2120.000000	0.002313  
2119.000000	0.002624  
2118.000000	0.002620  
2117.000000	0.002390  
2116.000000	0.002170  
2115.000000	0.002157  
2114.000000	0.002319  
2113.000000	0.002396  
2112.000000	0.002177  
2111.000000	0.001771  
2110.000000	0.001514  
2109.000000	0.001584  
2108.000000	0.001811  
2107.000000	0.001924  
2106.000000	0.001860  
2105.000000	0.001743  
2104.000000	0.001653  
2103.000000	0.001555  
2102.000000	0.001425  
2101.000000	0.001297  
2100.000000	0.001191  
2099.000000	0.001078  
2098.000000	0.000962  
2097.000000	0.000895  
2096.000000	0.000889  
2095.000000	0.000888  
2094.000000	0.000854  
2093.000000	0.000842  
2092.000000	0.000917  
2091.000000	0.001059  
2090.000000	0.001182  
2089.000000	0.001256  
2088.000000	0.001369  
2087.000000	0.001644  
2086.000000	0.002083  
2085.000000	0.002482  
2084.000000	0.002569  
2083.000000	0.002254  
2082.000000	0.001750  
2081.000000	0.001407  
2080.000000	0.001436  
2079.000000	0.001769  
2078.000000	0.002159  
2077.000000	0.002355  
2076.000000	0.002260  
2075.000000	0.001989  
2074.000000	0.001789  
2073.000000	0.001833  
2072.000000	0.002061  
2071.000000	0.002277  
2070.000000	0.002363  
2069.000000	0.002331  
2068.000000	0.002207  
2067.000000	0.001982  
2066.000000	0.001731  
2065.000000	0.001647  
2064.000000	0.001843  
2063.000000	0.002201  
2062.000000	0.002484  
2061.000000	0.002543  
2060.000000	0.002374  
2059.000000	0.002050  
2058.000000	0.001703  
2057.000000	0.001488  
2056.000000	0.001448  
2055.000000	0.001432  
2054.000000	0.001263  
2053.000000	0.000961  
2052.000000	0.000717  
2051.000000	0.000656  
2050.000000	0.000793  
2049.000000	0.001182  
2048.000000	0.001899  
2047.000000	0.002747  
2046.000000	0.003192  
2045.000000	0.002844  
2044.000000	0.001952  
2043.000000	0.001205  
2042.000000	0.001050  
2041.000000	0.001350  
2040.000000	0.001725  
2039.000000	0.002001  
2038.000000	0.002205  
2037.000000	0.002316  
2036.000000	0.002270  
2035.000000	0.002140  
2034.000000	0.002128  
2033.000000	0.002322  
2032.000000	0.002573  
2031.000000	0.002625  
2030.000000	0.002319  
2029.000000	0.001684  
2028.000000	0.000941  
2027.000000	0.000398  
2026.000000	0.000224  
2025.000000	0.000297  
2024.000000	0.000373  
2023.000000	0.000430  
2022.000000	0.000704  
2021.000000	0.001301  
2020.000000	0.001931  
2019.000000	0.002178  
2018.000000	0.001934  
2017.000000	0.001435  
2016.000000	0.000924  
2015.000000	0.000486  
2014.000000	0.000235  
2013.000000	0.000378  
2012.000000	0.000886  
2011.000000	0.001300  
2010.000000	0.001123  
2009.000000	0.000387  
2008.000000	-0.000333 
2007.000000	-0.000551 
2006.000000	-0.000288 
2005.000000	0.000148  
2004.000000	0.000599  
2003.000000	0.001126  
2002.000000	0.001797  
2001.000000	0.002537  
2000.000000	0.003132  
1999.000000	0.003282  
1998.000000	0.002775  
1997.000000	0.001771  
1996.000000	0.000835  
1995.000000	0.000495  
1994.000000	0.000778  
1993.000000	0.001234  
1992.000000	0.001449  
1991.000000	0.001415  
1990.000000	0.001366  
1989.000000	0.001453  
1988.000000	0.001695  
1987.000000	0.002057  
1986.000000	0.002430  
1985.000000	0.002661  
1984.000000	0.002711  
1983.000000	0.002688  
1982.000000	0.002619  
1981.000000	0.002351  
1980.000000	0.001818  
1979.000000	0.001293  
1978.000000	0.001094  
1977.000000	0.001116  
1976.000000	0.000973  
1975.000000	0.000593  
1974.000000	0.000296  
1973.000000	0.000284  
1972.000000	0.000409  
1971.000000	0.000527  
1970.000000	0.000733  
1969.000000	0.001090  
1968.000000	0.001377  
1967.000000	0.001373  
1966.000000	0.001222  
1965.000000	0.001261  
1964.000000	0.001580  
1963.000000	0.001982  
1962.000000	0.002252  
1961.000000	0.002331  
1960.000000	0.002284  
1959.000000	0.002224  
1958.000000	0.002227  
1957.000000	0.002208  
1956.000000	0.001955  
1955.000000	0.001402  
1954.000000	0.000806  
1953.000000	0.000518  
1952.000000	0.000639  
1951.000000	0.001000  
1950.000000	0.001420  
1949.000000	0.001814  
1948.000000	0.002107  
1947.000000	0.002216  
1946.000000	0.002168  
1945.000000	0.002093  
1944.000000	0.002057  
1943.000000	0.002006  
1942.000000	0.001911  
1941.000000	0.001840  
1940.000000	0.001823  
1939.000000	0.001787  
1938.000000	0.001710  
1937.000000	0.001708  
1936.000000	0.001897  
1935.000000	0.002221  
1934.000000	0.002511  
1933.000000	0.002670  
1932.000000	0.002710  
1931.000000	0.002655  
1930.000000	0.002494  
1929.000000	0.002257  
1928.000000	0.002042  
1927.000000	0.001914  
1926.000000	0.001835  
1925.000000	0.001734  
1924.000000	0.001613  
1923.000000	0.001566  
1922.000000	0.001674  
1921.000000	0.001918  
1920.000000	0.002190  
1919.000000	0.002365  
1918.000000	0.002404  
1917.000000	0.002399  
1916.000000	0.002445  
1915.000000	0.002463  
1914.000000	0.002280  
1913.000000	0.001861  
1912.000000	0.001420  
1911.000000	0.001222  
1910.000000	0.001309  
1909.000000	0.001481  
1908.000000	0.001565  
1907.000000	0.001583  
1906.000000	0.001629  
1905.000000	0.001715  
1904.000000	0.001790  
1903.000000	0.001841  
1902.000000	0.001894  
1901.000000	0.001945  
1900.000000	0.001937  
1899.000000	0.001847  
1898.000000	0.001752  
1897.000000	0.001772  
1896.000000	0.001948  
1895.000000	0.002195  
1894.000000	0.002390  
1893.000000	0.002479  
1892.000000	0.002474  
1891.000000	0.002404  
1890.000000	0.002307  
1889.000000	0.002239  
1888.000000	0.002222  
1887.000000	0.002205  
1886.000000	0.002137  
1885.000000	0.002063  
1884.000000	0.002068  
1883.000000	0.002133  
1882.000000	0.002130  
1881.000000	0.001993  
1880.000000	0.001808  
1879.000000	0.001690  
1878.000000	0.001652  
1877.000000	0.001663  
1876.000000	0.001757  
1875.000000	0.001976  
1874.000000	0.002247  
1873.000000	0.002424  
1872.000000	0.002441  
1871.000000	0.002342  
1870.000000	0.002167  
1869.000000	0.001934  
1868.000000	0.001748  
1867.000000	0.001756  
1866.000000	0.001940  
1865.000000	0.002130  
1864.000000	0.002194  
1863.000000	0.002145  
1862.000000	0.002062  
1861.000000	0.001987  
1860.000000	0.001942  
1859.000000	0.001975  
1858.000000	0.002121  
1857.000000	0.002323  
1856.000000	0.002447  
1855.000000	0.002384  
1854.000000	0.002139  
1853.000000	0.001848  
1852.000000	0.001699  
1851.000000	0.001779  
1850.000000	0.001969  
1849.000000	0.002046  
1848.000000	0.001921  
1847.000000	0.001738  
1846.000000	0.001711  
1845.000000	0.001890  
1844.000000	0.002102  
1843.000000	0.002160  
1842.000000	0.002052  
1841.000000	0.001878  
1840.000000	0.001726  
1839.000000	0.001665  
1838.000000	0.001724  
1837.000000	0.001848  
1836.000000	0.001934  
1835.000000	0.001940  
1834.000000	0.001901  
1833.000000	0.001833  
1832.000000	0.001711  
1831.000000	0.001570  
1830.000000	0.001546  
1829.000000	0.001707  
1828.000000	0.001941  
1827.000000	0.002108  
1826.000000	0.002160  
1825.000000	0.002127  
1824.000000	0.002085  
1823.000000	0.002113  
1822.000000	0.002215  
1821.000000	0.002282  
1820.000000	0.002181  
1819.000000	0.001939  
1818.000000	0.001750  
1817.000000	0.001768  
1816.000000	0.001932  
1815.000000	0.002061  
1814.000000	0.002048  
1813.000000	0.001909  
1812.000000	0.001739  
1811.000000	0.001658  
1810.000000	0.001744  
1809.000000	0.001957  
1808.000000	0.002180  
1807.000000	0.002313  
1806.000000	0.002325  
1805.000000	0.002257  
1804.000000	0.002180  
1803.000000	0.002160  
1802.000000	0.002219  
1801.000000	0.002327  
1800.000000	0.002444  
1799.000000	0.002546  
1798.000000	0.002606  
1797.000000	0.002611  
1796.000000	0.002586  
1795.000000	0.002572  
1794.000000	0.002565  
1793.000000	0.002513  
1792.000000	0.002392  
1791.000000	0.002262  
1790.000000	0.002193  
1789.000000	0.002186  
1788.000000	0.002215  
1787.000000	0.002270  
1786.000000	0.002344  
1785.000000	0.002405  
1784.000000	0.002405  
1783.000000	0.002334  
1782.000000	0.002253  
1781.000000	0.002251  
1780.000000	0.002372  
1779.000000	0.002554  
1778.000000	0.002693  
1777.000000	0.002736  
1776.000000	0.002719  
1775.000000	0.002697  
1774.000000	0.002689  
1773.000000	0.002667  
1772.000000	0.002586  
1771.000000	0.002456  
1770.000000	0.002355  
1769.000000	0.002337  
1768.000000	0.002377  
1767.000000	0.002429  
1766.000000	0.002482  
1765.000000	0.002565  
1764.000000	0.002698  
1763.000000	0.002882  
1762.000000	0.003098  
1761.000000	0.003299  
1760.000000	0.003431  
1759.000000	0.003495  
1758.000000	0.003561  
1757.000000	0.003716  
1756.000000	0.003973  
1755.000000	0.004280  
1754.000000	0.004651  
1753.000000	0.005179  
1752.000000	0.005930  
1751.000000	0.006844  
1750.000000	0.007875  
1749.000000	0.009142  
1748.000000	0.010739  
1747.000000	0.012579  
1746.000000	0.014521  
1745.000000	0.016438  
1744.000000	0.018099  
1743.000000	0.019206  
1742.000000	0.019610  
1741.000000	0.019287  
1740.000000	0.018234  
1739.000000	0.016675  
1738.000000	0.015068  
1737.000000	0.013633  
1736.000000	0.012193  
1735.000000	0.010488  
1734.000000	0.008737  
1733.000000	0.007436  
1732.000000	0.006604  
1731.000000	0.006007  
1730.000000	0.005569  
1729.000000	0.005299  
1728.000000	0.005136  
1727.000000	0.004976  
1726.000000	0.004771  
1725.000000	0.004544  
1724.000000	0.004325  
1723.000000	0.004129  
1722.000000	0.003969  
1721.000000	0.003843  
1720.000000	0.003714  
1719.000000	0.003561  
1718.000000	0.003427  
1717.000000	0.003306  
1716.000000	0.003202  
1715.000000	0.003183  
1714.000000	0.003238  
1713.000000	0.003286  
1712.000000	0.003263  
1711.000000	0.003163  
1710.000000	0.003032  
1709.000000	0.002921  
1708.000000	0.002859  
1707.000000	0.002865  
1706.000000	0.002930  
1705.000000	0.003001  
1704.000000	0.003092  
1703.000000	0.003279  
1702.000000	0.003538  
1701.000000	0.003634  
1700.000000	0.003421  
1699.000000	0.003143  
1698.000000	0.003033  
1697.000000	0.003035  
1696.000000	0.003024  
1695.000000	0.003010  
1694.000000	0.003019  
1693.000000	0.003032  
1692.000000	0.003024  
1691.000000	0.002991  
1690.000000	0.002966  
1689.000000	0.002967  
1688.000000	0.002980  
1687.000000	0.002970  
1686.000000	0.002901  
1685.000000	0.002795  
1684.000000	0.002778  
1683.000000	0.002873  
1682.000000	0.002984  
1681.000000	0.003066  
1680.000000	0.003085  
1679.000000	0.003060  
1678.000000	0.003004  
1677.000000	0.002912  
1676.000000	0.002783  
1675.000000	0.002712  
1674.000000	0.002789  
1673.000000	0.002979  
1672.000000	0.003174  
1671.000000	0.003279  
1670.000000	0.003284  
1669.000000	0.003273  
1668.000000	0.003277  
1667.000000	0.003266  
1666.000000	0.003250  
1665.000000	0.003263  
1664.000000	0.003308  
1663.000000	0.003359  
1662.000000	0.003382  
1661.000000	0.003391  
1660.000000	0.003413  
1659.000000	0.003446  
1658.000000	0.003446  
1657.000000	0.003430  
1656.000000	0.003420  
1655.000000	0.003418  
1654.000000	0.003425  
1653.000000	0.003539  
1652.000000	0.003663  
1651.000000	0.003643  
1650.000000	0.003617  
1649.000000	0.003647  
1648.000000	0.003722  
1647.000000	0.003737  
1646.000000	0.003660  
1645.000000	0.003535  
1644.000000	0.003414  
1643.000000	0.003334  
1642.000000	0.003342  
1641.000000	0.003412  
1640.000000	0.003487  
1639.000000	0.003528  
1638.000000	0.003541  
1637.000000	0.003536  
1636.000000	0.003509  
1635.000000	0.003442  
1634.000000	0.003360  
1633.000000	0.003322  
1632.000000	0.003332  
1631.000000	0.003356  
1630.000000	0.003354  
1629.000000	0.003351  
1628.000000	0.003388  
1627.000000	0.003468  
1626.000000	0.003577  
1625.000000	0.003701  
1624.000000	0.003809  
1623.000000	0.003837  
1622.000000	0.003784  
1621.000000	0.003742  
1620.000000	0.003770  
1619.000000	0.003840  
1618.000000	0.003884  
1617.000000	0.003907  
1616.000000	0.003964  
1615.000000	0.004033  
1614.000000	0.004088  
1613.000000	0.004162  
1612.000000	0.004280  
1611.000000	0.004437  
1610.000000	0.004600  
1609.000000	0.004742  
1608.000000	0.004834  
1607.000000	0.004834  
1606.000000	0.004743  
1605.000000	0.004614  
1604.000000	0.004496  
1603.000000	0.004394  
1602.000000	0.004299  
1601.000000	0.004212  
1600.000000	0.004110  
1599.000000	0.003958  
1598.000000	0.003776  
1597.000000	0.003645  
1596.000000	0.003622  
1595.000000	0.003676  
1594.000000	0.003738  
1593.000000	0.003791  
1592.000000	0.003866  
1591.000000	0.003963  
1590.000000	0.004042  
1589.000000	0.004069  
1588.000000	0.004034  
1587.000000	0.003945  
1586.000000	0.003835  
1585.000000	0.003759  
1584.000000	0.003746  
1583.000000	0.003774  
1582.000000	0.003797  
1581.000000	0.003809  
1580.000000	0.003846  
1579.000000	0.003924  
1578.000000	0.003991  
1577.000000	0.003963  
1576.000000	0.003833  
1575.000000	0.003701  
1574.000000	0.003681  
1573.000000	0.003801  
1572.000000	0.003973  
1571.000000	0.004062  
1570.000000	0.004022  
1569.000000	0.003959  
1568.000000	0.003938  
1567.000000	0.003907  
1566.000000	0.003804  
1565.000000	0.003667  
1564.000000	0.003545  
1563.000000	0.003485  
1562.000000	0.003471  
1561.000000	0.003469  
1560.000000	0.003476  
1559.000000	0.003498  
1558.000000	0.003455  
1557.000000	0.003474  
1556.000000	0.003654  
1555.000000	0.003843  
1554.000000	0.004028  
1553.000000	0.004083  
1552.000000	0.004014  
1551.000000	0.003840  
1550.000000	0.003676  
1549.000000	0.003609  
1548.000000	0.003632  
1547.000000	0.003688  
1546.000000	0.003761  
1545.000000	0.003835  
1544.000000	0.003865  
1543.000000	0.003838  
1542.000000	0.003830  
1541.000000	0.003865  
1540.000000	0.003881  
1539.000000	0.003888  
1538.000000	0.003951  
1537.000000	0.004070  
1536.000000	0.004178  
1535.000000	0.004216  
1534.000000	0.004166  
1533.000000	0.004093  
1532.000000	0.004038  
1531.000000	0.003999  
1530.000000	0.003950  
1529.000000	0.003901  
1528.000000	0.003897  
1527.000000	0.003995  
1526.000000	0.004210  
1525.000000	0.004455  
1524.000000	0.004617  
1523.000000	0.004668  
1522.000000	0.004685  
1521.000000	0.004727  
1520.000000	0.004754  
1519.000000	0.004733  
1518.000000	0.004720  
1517.000000	0.004780  
1516.000000	0.004909  
1515.000000	0.005095  
1514.000000	0.005357  
1513.000000	0.005661  
1512.000000	0.005880  
1511.000000	0.005953  
1510.000000	0.005987  
1509.000000	0.006158  
1508.000000	0.006516  
1507.000000	0.006972  
1506.000000	0.007430  
1505.000000	0.007764  
1504.000000	0.007886  
1503.000000	0.007856  
1502.000000	0.007813  
1501.000000	0.007778  
1500.000000	0.007724  
1499.000000	0.007697  
1498.000000	0.007935  
1497.000000	0.008522  
1496.000000	0.009106  
1495.000000	0.009409  
1494.000000	0.009590  
1493.000000	0.009821  
1492.000000	0.010003  
1491.000000	0.009993  
1490.000000	0.009937  
1489.000000	0.010074  
1488.000000	0.010392  
1487.000000	0.010782  
1486.000000	0.011242  
1485.000000	0.011790  
1484.000000	0.012377  
1483.000000	0.013006  
1482.000000	0.013809  
1481.000000	0.014836  
1480.000000	0.015940  
1479.000000	0.017059  
1478.000000	0.018396  
1477.000000	0.020143  
1476.000000	0.022210  
1475.000000	0.024629  
1474.000000	0.028114  
1473.000000	0.033517  
1472.000000	0.040342  
1471.000000	0.047216  
1470.000000	0.053614  
1469.000000	0.059558  
1468.000000	0.064838  
1467.000000	0.069269  
1466.000000	0.072997  
1465.000000	0.076170  
1464.000000	0.078582  
1463.000000	0.080184  
1462.000000	0.081328  
1461.000000	0.082324  
1460.000000	0.083276  
1459.000000	0.084269  
1458.000000	0.085293  
1457.000000	0.085580  
1456.000000	0.084349  
1455.000000	0.082158  
1454.000000	0.079739  
1453.000000	0.077129  
1452.000000	0.074300  
1451.000000	0.071484  
1450.000000	0.068901  
1449.000000	0.066356  
1448.000000	0.063559  
1447.000000	0.060579  
1446.000000	0.057596  
1445.000000	0.054523  
1444.000000	0.051216  
1443.000000	0.047746  
1442.000000	0.044341  
1441.000000	0.041215  
1440.000000	0.038455  
1439.000000	0.035935  
1438.000000	0.033314  
1437.000000	0.030408  
1436.000000	0.027657  
1435.000000	0.025559  
1434.000000	0.023929  
1433.000000	0.022322  
1432.000000	0.020582  
1431.000000	0.018838  
1430.000000	0.017269  
1429.000000	0.015961  
1428.000000	0.014961  
1427.000000	0.014248  
1426.000000	0.013675  
1425.000000	0.013104  
1424.000000	0.012565  
1423.000000	0.012163  
1422.000000	0.011883  
1421.000000	0.011587  
1420.000000	0.011202  
1419.000000	0.010804  
1418.000000	0.010485  
1417.000000	0.010245  
1416.000000	0.010077  
1415.000000	0.009981  
1414.000000	0.009901  
1413.000000	0.009762  
1412.000000	0.009545  
1411.000000	0.009286  
1410.000000	0.009040  
1409.000000	0.008857  
1408.000000	0.008776  
1407.000000	0.008798  
1406.000000	0.008861  
1405.000000	0.008916  
1404.000000	0.008996  
1403.000000	0.009139  
1402.000000	0.009301  
1401.000000	0.009422  
1400.000000	0.009526  
1399.000000	0.009675  
1398.000000	0.009864  
1397.000000	0.010067  
1396.000000	0.010306  
1395.000000	0.010609  
1394.000000	0.010958  
1393.000000	0.011345  
1392.000000	0.011814  
1391.000000	0.012436  
1390.000000	0.013300  
1389.000000	0.014572  
1388.000000	0.016481  
1387.000000	0.019016  
1386.000000	0.021823  
1385.000000	0.024630  
1384.000000	0.027524  
1383.000000	0.030750  
1382.000000	0.034454  
1381.000000	0.038577  
1380.000000	0.042760  
1379.000000	0.046253  
1378.000000	0.048234  
1377.000000	0.048316  
1376.000000	0.046589  
1375.000000	0.043385  
1374.000000	0.039354  
1373.000000	0.035410  
1372.000000	0.032176  
1371.000000	0.029766  
1370.000000	0.028117  
1369.000000	0.027185  
1368.000000	0.026791  
1367.000000	0.026529  
1366.000000	0.025955  
1365.000000	0.024818  
1364.000000	0.023130  
1363.000000	0.021167  
1362.000000	0.019343  
1361.000000	0.017951  
1360.000000	0.017007  
1359.000000	0.016367  
1358.000000	0.015885  
1357.000000	0.015502  
1356.000000	0.015238  
1355.000000	0.015114  
1354.000000	0.015079  
1353.000000	0.015039  
1352.000000	0.014949  
1351.000000	0.014839  
1350.000000	0.014733  
1349.000000	0.014625  
1348.000000	0.014492  
1347.000000	0.014321  
1346.000000	0.014128  
1345.000000	0.013963  
1344.000000	0.013876  
1343.000000	0.013865  
1342.000000	0.013872  
1341.000000	0.013826  
1340.000000	0.013687  
1339.000000	0.013446  
1338.000000	0.013129  
1337.000000	0.012786  
1336.000000	0.012465  
1335.000000	0.012174  
1334.000000	0.011893  
1333.000000	0.011618  
1332.000000	0.011390  
1331.000000	0.011236  
1330.000000	0.011122  
1329.000000	0.010992  
1328.000000	0.010841  
1327.000000	0.010701  
1326.000000	0.010588  
1325.000000	0.010503  
1324.000000	0.010462  
1323.000000	0.010474  
1322.000000	0.010517  
1321.000000	0.010555  
1320.000000	0.010575  
1319.000000	0.010598  
1318.000000	0.010638  
1317.000000	0.010696  
1316.000000	0.010775  
1315.000000	0.010883  
1314.000000	0.011019  
1313.000000	0.011164  
1312.000000	0.011306  
1311.000000	0.011440  
1310.000000	0.011572  
1309.000000	0.011703  
1308.000000	0.011837  
1307.000000	0.011962  
1306.000000	0.012051  
1305.000000	0.012080  
1304.000000	0.012050  
1303.000000	0.011981  
1302.000000	0.011894  
1301.000000	0.011807  
1300.000000	0.011732  
1299.000000	0.011672  
1298.000000	0.011613  
1297.000000	0.011526  
1296.000000	0.011396  
1295.000000	0.011229  
1294.000000	0.011033  
1293.000000	0.010820  
1292.000000	0.010610  
1291.000000	0.010441  
1290.000000	0.010347  
1289.000000	0.010327  
1288.000000	0.010341  
1287.000000	0.010351  
1286.000000	0.010360  
1285.000000	0.010397  
1284.000000	0.010471  
1283.000000	0.010553  
1282.000000	0.010609  
1281.000000	0.010636  
1280.000000	0.010650  
1279.000000	0.010660  
1278.000000	0.010666  
1277.000000	0.010681  
1276.000000	0.010725  
1275.000000	0.010793  
1274.000000	0.010860  
1273.000000	0.010918  
1272.000000	0.010977  
1271.000000	0.011035  
1270.000000	0.011079  
1269.000000	0.011110  
1268.000000	0.011139  
1267.000000	0.011144  
1266.000000	0.011074  
1265.000000	0.010906  
1264.000000	0.010688  
1263.000000	0.010512  
1262.000000	0.010450  
1261.000000	0.010515  
1260.000000	0.010649  
1259.000000	0.010753  
1258.000000	0.010758  
1257.000000	0.010678  
1256.000000	0.010575  
1255.000000	0.010499  
1254.000000	0.010473  
1253.000000	0.010530  
1252.000000	0.010686  
1251.000000	0.010889  
1250.000000	0.011031  
1249.000000	0.011073  
1248.000000	0.011087  
1247.000000	0.011158  
1246.000000	0.011273  
1245.000000	0.011351  
1244.000000	0.011344  
1243.000000	0.011270  
1242.000000	0.011170  
1241.000000	0.011075  
1240.000000	0.011006  
1239.000000	0.010958  
1238.000000	0.010892  
1237.000000	0.010776  
1236.000000	0.010629  
1235.000000	0.010498  
1234.000000	0.010389  
1233.000000	0.010261  
1232.000000	0.010085  
1231.000000	0.009885  
1230.000000	0.009701  
1229.000000	0.009544  
1228.000000	0.009421  
1227.000000	0.009344  
1226.000000	0.009315  
1225.000000	0.009298  
1224.000000	0.009261  
1223.000000	0.009215  
1222.000000	0.009188  
1221.000000	0.009169  
1220.000000	0.009115  
1219.000000	0.009026  
1218.000000	0.008972  
1217.000000	0.009020  
1216.000000	0.009154  
1215.000000	0.009279  
1214.000000	0.009324  
1213.000000	0.009300  
1212.000000	0.009285  
1211.000000	0.009339  
1210.000000	0.009460  
1209.000000	0.009578  
1208.000000	0.009615  
1207.000000	0.009567  
1206.000000	0.009520  
1205.000000	0.009574  
1204.000000	0.009727  
1203.000000	0.009879  
1202.000000	0.009946  
1201.000000	0.009948  
1200.000000	0.009969  
1199.000000	0.010065  
1198.000000	0.010232  
1197.000000	0.010448  
1196.000000	0.010684  
1195.000000	0.010922  
1194.000000	0.011162  
1193.000000	0.011424  
1192.000000	0.011693  
1191.000000	0.011899  
1190.000000	0.012005  
1189.000000	0.012078  
1188.000000	0.012229  
1187.000000	0.012483  
1186.000000	0.012772  
1185.000000	0.013041  
1184.000000	0.013305  
1183.000000	0.013591  
1182.000000	0.013885  
1181.000000	0.014156  
1180.000000	0.014399  
1179.000000	0.014618  
1178.000000	0.014804  
1177.000000	0.014968  
1176.000000	0.015137  
1175.000000	0.015319  
1174.000000	0.015484  
1173.000000	0.015607  
1172.000000	0.015696  
1171.000000	0.015756  
1170.000000	0.015767  
1169.000000	0.015698  
1168.000000	0.015549  
1167.000000	0.015345  
1166.000000	0.015106  
1165.000000	0.014841  
1164.000000	0.014549  
1163.000000	0.014223  
1162.000000	0.013879  
1161.000000	0.013593  
1160.000000	0.013443  
1159.000000	0.013419  
1158.000000	0.013406  
1157.000000	0.013298  
1156.000000	0.013082  
1155.000000	0.012801  
1154.000000	0.012474  
1153.000000	0.012108  
1152.000000	0.011747  
1151.000000	0.011467  
1150.000000	0.011319  
1149.000000	0.011288  
1148.000000	0.011322  
1147.000000	0.011341  
1146.000000	0.011268  
1145.000000	0.011063  
1144.000000	0.010762  
1143.000000	0.010446  
1142.000000	0.010183  
1141.000000	0.009993  
1140.000000	0.009844  
1139.000000	0.009683  
1138.000000	0.009497  
1137.000000	0.009337  
1136.000000	0.009253  
1135.000000	0.009210  
1134.000000	0.009107  
1133.000000	0.008914  
1132.000000	0.008719  
1131.000000	0.008618  
1130.000000	0.008610  
1129.000000	0.008650  
1128.000000	0.008731  
1127.000000	0.008860  
1126.000000	0.008982  
1125.000000	0.009028  
1124.000000	0.009008  
1123.000000	0.008996  
1122.000000	0.009030  
1121.000000	0.009089  
1120.000000	0.009151  
1119.000000	0.009208  
1118.000000	0.009234  
1117.000000	0.009203  
1116.000000	0.009140  
1115.000000	0.009093  
1114.000000	0.009057  
1113.000000	0.008979  
1112.000000	0.008856  
1111.000000	0.008740  
1110.000000	0.008655  
1109.000000	0.008564  
1108.000000	0.008445  
1107.000000	0.008361  
1106.000000	0.008379  
1105.000000	0.008471  
1104.000000	0.008537  
1103.000000	0.008515  
1102.000000	0.008451  
1101.000000	0.008445  
1100.000000	0.008549  
1099.000000	0.008724  
1098.000000	0.008878  
1097.000000	0.008970  
1096.000000	0.009041  
1095.000000	0.009135  
1094.000000	0.009214  
1093.000000	0.009207  
1092.000000	0.009118  
1091.000000	0.009033  
1090.000000	0.008995  
1089.000000	0.008952  
1088.000000	0.008839  
1087.000000	0.008678  
1086.000000	0.008551  
1085.000000	0.008505  
1084.000000	0.008510  
1083.000000	0.008506  
1082.000000	0.008447  
1081.000000	0.008345  
1080.000000	0.008277  
1079.000000	0.008330  
1078.000000	0.008516  
1077.000000	0.008757  
1076.000000	0.008982  
1075.000000	0.009214  
1074.000000	0.009502  
1073.000000	0.009814  
1072.000000	0.010032  
1071.000000	0.010080  
1070.000000	0.010018  
1069.000000	0.009971  
1068.000000	0.009991  
1067.000000	0.010020  
1066.000000	0.009982  
1065.000000	0.009892  
1064.000000	0.009836  
1063.000000	0.009854  
1062.000000	0.009880  
1061.000000	0.009815  
1060.000000	0.009646  
1059.000000	0.009453  
1058.000000	0.009324  
1057.000000	0.009286  
1056.000000	0.009336  
1055.000000	0.009465  
1054.000000	0.009613  
1053.000000	0.009639  
1052.000000	0.009416  
1051.000000	0.009006  
1050.000000	0.008657  
1049.000000	0.008575  
1048.000000	0.008724  
1047.000000	0.008905  
1046.000000	0.008976  
1045.000000	0.008946  
1044.000000	0.008913  
1043.000000	0.008962  
1042.000000	0.009128  
1041.000000	0.009373  
1040.000000	0.009595  
1039.000000	0.009682  
1038.000000	0.009603  
1037.000000	0.009440  
1036.000000	0.009315  
1035.000000	0.009298  
1034.000000	0.009392  
1033.000000	0.009554  
1032.000000	0.009714  
1031.000000	0.009801  
1030.000000	0.009796  
1029.000000	0.009754  
1028.000000	0.009734  
1027.000000	0.009732  
1026.000000	0.009713  
1025.000000	0.009672  
1024.000000	0.009641  
1023.000000	0.009619  
1022.000000	0.009574  
1021.000000	0.009492  
1020.000000	0.009391  
1019.000000	0.009279  
1018.000000	0.009161  
1017.000000	0.009083  
1016.000000	0.009108  
1015.000000	0.009231  
1014.000000	0.009352  
1013.000000	0.009375  
1012.000000	0.009294  
1011.000000	0.009162  
1010.000000	0.009031  
1009.000000	0.008950  
1008.000000	0.008953  
1007.000000	0.009025  
1006.000000	0.009082  
1005.000000	0.009061  
1004.000000	0.008993  
1003.000000	0.008959  
1002.000000	0.008986  
1001.000000	0.009015  
1000.000000	0.008959  
999.000000	 0.008780  
998.000000	 0.008511  
997.000000	 0.008261  
996.000000	 0.008155  
995.000000	 0.008240  
994.000000	 0.008428  
993.000000	 0.008572  
992.000000	 0.008588  
991.000000	 0.008511  
990.000000	 0.008441  
989.000000	 0.008465  
988.000000	 0.008590  
987.000000	 0.008724  
986.000000	 0.008757  
985.000000	 0.008674  
984.000000	 0.008583  
983.000000	 0.008593  
982.000000	 0.008698  
981.000000	 0.008824  
980.000000	 0.008939  
979.000000	 0.009075  
978.000000	 0.009250  
977.000000	 0.009423  
976.000000	 0.009552  
975.000000	 0.009623  
974.000000	 0.009654  
973.000000	 0.009684  
972.000000	 0.009781  
971.000000	 0.009991  
970.000000	 0.010278  
969.000000	 0.010533  
968.000000	 0.010668  
967.000000	 0.010674  
966.000000	 0.010585  
965.000000	 0.010429  
964.000000	 0.010240  
963.000000	 0.010067  
962.000000	 0.009962  
961.000000	 0.009941  
960.000000	 0.009972  
959.000000	 0.009995  
958.000000	 0.009961  
957.000000	 0.009876  
956.000000	 0.009806  
955.000000	 0.009802  
954.000000	 0.009850  
953.000000	 0.009889  
952.000000	 0.009896  
951.000000	 0.009893  
950.000000	 0.009889  
949.000000	 0.009861  
948.000000	 0.009803  
947.000000	 0.009760  
946.000000	 0.009785  
945.000000	 0.009885  
944.000000	 0.010021  
943.000000	 0.010139  
942.000000	 0.010192  
941.000000	 0.010142  
940.000000	 0.009974  
939.000000	 0.009710  
938.000000	 0.009417  
937.000000	 0.009181  
936.000000	 0.009051  
935.000000	 0.009006  
934.000000	 0.008978  
933.000000	 0.008941  
932.000000	 0.008938  
931.000000	 0.008993  
930.000000	 0.009034  
929.000000	 0.008966  
928.000000	 0.008808  
927.000000	 0.008682  
926.000000	 0.008673  
925.000000	 0.008747  
924.000000	 0.008842  
923.000000	 0.008957  
922.000000	 0.009101  
921.000000	 0.009220  
920.000000	 0.009226  
919.000000	 0.009099  
918.000000	 0.008913  
917.000000	 0.008774  
916.000000	 0.008743  
915.000000	 0.008808  
914.000000	 0.008893  
913.000000	 0.008906  
912.000000	 0.008811  
911.000000	 0.008667  
910.000000	 0.008585  
909.000000	 0.008640  
908.000000	 0.008805  
907.000000	 0.008968  
906.000000	 0.009001  
905.000000	 0.008871  
904.000000	 0.008683  
903.000000	 0.008599  
902.000000	 0.008680  
901.000000	 0.008839  
900.000000	 0.008958  
899.000000	 0.009024  
898.000000	 0.009104  
897.000000	 0.009234  
896.000000	 0.009363  
895.000000	 0.009429  
894.000000	 0.009425  
893.000000	 0.009393  
892.000000	 0.009374  
891.000000	 0.009385  
890.000000	 0.009424  
889.000000	 0.009474  
888.000000	 0.009500  
887.000000	 0.009482  
886.000000	 0.009419  
885.000000	 0.009335  
884.000000	 0.009252  
883.000000	 0.009188  
882.000000	 0.009164  
881.000000	 0.009201  
880.000000	 0.009301  
879.000000	 0.009430  
878.000000	 0.009519  
877.000000	 0.009507  
876.000000	 0.009392  
875.000000	 0.009240  
874.000000	 0.009118  
873.000000	 0.009020  
872.000000	 0.008877  
871.000000	 0.008670  
870.000000	 0.008516  
869.000000	 0.008581  
868.000000	 0.008883  
867.000000	 0.009222  
866.000000	 0.009345  
865.000000	 0.009181  
864.000000	 0.008879  
863.000000	 0.008636  
862.000000	 0.008535  
861.000000	 0.008556  
860.000000	 0.008661  
859.000000	 0.008800  
858.000000	 0.008887  
857.000000	 0.008865  
856.000000	 0.008806  
855.000000	 0.008873  
854.000000	 0.009157  
853.000000	 0.009570  
852.000000	 0.009950  
851.000000	 0.010213  
850.000000	 0.010383  
849.000000	 0.010495  
848.000000	 0.010532  
847.000000	 0.010475  
846.000000	 0.010372  
845.000000	 0.010295  
844.000000	 0.010251  
843.000000	 0.010168  
842.000000	 0.010000  
841.000000	 0.009808  
840.000000	 0.009692  
839.000000	 0.009678  
838.000000	 0.009709  
837.000000	 0.009724  
836.000000	 0.009678  
835.000000	 0.009502  
834.000000	 0.009132  
833.000000	 0.008636  
832.000000	 0.008234  
831.000000	 0.008104  
830.000000	 0.008206  
829.000000	 0.008370  
828.000000	 0.008536  
827.000000	 0.008790  
826.000000	 0.009164  
825.000000	 0.009514  
824.000000	 0.009679  
823.000000	 0.009657  
822.000000	 0.009564  
821.000000	 0.009516  
820.000000	 0.009601  
819.000000	 0.009872  
818.000000	 0.010304  
817.000000	 0.010778  
816.000000	 0.011158  
815.000000	 0.011368  
814.000000	 0.011386  
813.000000	 0.011217  
812.000000	 0.010933  
811.000000	 0.010702  
810.000000	 0.010711  
809.000000	 0.011021  
808.000000	 0.011513  
807.000000	 0.011966  
806.000000	 0.012199  
805.000000	 0.012153  
804.000000	 0.011863  
803.000000	 0.011405  
802.000000	 0.010871  
801.000000	 0.010368  
800.000000	 0.009990  
799.000000	 0.009749  
798.000000	 0.009569  
797.000000	 0.009380  
796.000000	 0.009187  
795.000000	 0.009033  
794.000000	 0.008909  
793.000000	 0.008785  
792.000000	 0.008695  
791.000000	 0.008730  
790.000000	 0.008902  
789.000000	 0.009101  
788.000000	 0.009214  
787.000000	 0.009263  
786.000000	 0.009371  
785.000000	 0.009610  
784.000000	 0.009942  
783.000000	 0.010290  
782.000000	 0.010633  
781.000000	 0.011001  
780.000000	 0.011404  
779.000000	 0.011788  
778.000000	 0.012081  
777.000000	 0.012272  
776.000000	 0.012447  
775.000000	 0.012721  
774.000000	 0.013137  
773.000000	 0.013630  
772.000000	 0.014076  
771.000000	 0.014382  
770.000000	 0.014541  
769.000000	 0.014623  
768.000000	 0.014698  
767.000000	 0.014749  
766.000000	 0.014669  
765.000000	 0.014372  
764.000000	 0.013911  
763.000000	 0.013476  
762.000000	 0.013266  
761.000000	 0.013335  
760.000000	 0.013557  
759.000000	 0.013737  
758.000000	 0.013783  
757.000000	 0.013789  
756.000000	 0.013923  
755.000000	 0.014231  
754.000000	 0.014570  
753.000000	 0.014774  
752.000000	 0.014826  
751.000000	 0.014830  
750.000000	 0.014864  
749.000000	 0.014951  
748.000000	 0.015144  
747.000000	 0.015574  
746.000000	 0.016372  
745.000000	 0.017566  
744.000000	 0.019050  
743.000000	 0.020573  
742.000000	 0.021792  
741.000000	 0.022432  
740.000000	 0.022484  
739.000000	 0.022199  
738.000000	 0.021843  
737.000000	 0.021489  
736.000000	 0.021092  
735.000000	 0.020687  
734.000000	 0.020435  
733.000000	 0.020475  
732.000000	 0.020768  
731.000000	 0.021128  
730.000000	 0.021413  
729.000000	 0.021712  
728.000000	 0.022295  
727.000000	 0.023315  
726.000000	 0.024623  
725.000000	 0.025879  
724.000000	 0.026854  
723.000000	 0.027544  
722.000000	 0.027956  
721.000000	 0.027844  
720.000000	 0.026838  
719.000000	 0.024934  
718.000000	 0.022660  
717.000000	 0.020657  
716.000000	 0.019250  
715.000000	 0.018341  
714.000000	 0.017582  
713.000000	 0.016709  
712.000000	 0.015736  
711.000000	 0.014888  
710.000000	 0.014352  
709.000000	 0.014140  
708.000000	 0.014117  
707.000000	 0.014133  
706.000000	 0.014170  
705.000000	 0.014322  
704.000000	 0.014627  
703.000000	 0.014979  
702.000000	 0.015229  
701.000000	 0.015352  
700.000000	 0.015468  
699.000000	 0.015628  
698.000000	 0.015659  
697.000000	 0.015302  
696.000000	 0.014528  
695.000000	 0.013668  
694.000000	 0.013082  
693.000000	 0.012735  
692.000000	 0.012252  
691.000000	 0.011372  
690.000000	 0.010302  
689.000000	 0.009475  
688.000000	 0.008988  
687.000000	 0.008530  
686.000000	 0.007877  
685.000000	 0.007216  
684.000000	 0.006873  
683.000000	 0.006888  
682.000000	 0.007051  
681.000000	 0.007174  
680.000000	 0.007187  
679.000000	 0.007050  
678.000000	 0.006836  
677.000000	 0.006850  
676.000000	 0.007157  
675.000000	 0.007474  
674.000000	 0.007535  
673.000000	 0.007285  
672.000000	 0.006475  
671.000000	 0.004214  
670.000000	 -0.000377 
669.000000	 -0.007333 
668.000000	 -0.012706 
667.000000	 -0.010155 
666.000000	 -0.003250 
665.000000	 0.001972  
664.000000	 0.004730  
663.000000	 0.005997  
662.000000	 0.006502  
661.000000	 0.006481  
660.000000	 0.006232  
659.000000	 0.006189  
658.000000	 0.006357  
657.000000	 0.006243  
656.000000	 0.005391  
655.000000	 0.004138  
654.000000	 0.003378  
653.000000	 0.003599  
652.000000	 0.004412  
651.000000	 0.005063  
650.000000	 0.005185  

