PE IR                   SPECTRUM    ASCII       PEDS        1.60        
  -1
NB4-02~3.ASC
17/04/10
13:14:36.00
17/04/10
13:14:36.00
Admin

650.000000
6









SPECTRUM ONE,CPU32 MAIN 00.02.5000 17-APRIL-2002 13:00:00
MIR TGS
MIR
OPTKBR
68128
0.200000

4.000000
STRONG
RATIO
SPECTRUM
MAGNITUDE

DOUBLE

COMBINED


0


#HDR
-1
-1
#GR
CM-1
A
0.00000011920928955078
0.0
4000.000000
-1.000000
3351
8
0.218837
-0.004826
#DATA
4000.000000	0.001213  
3999.000000	0.001242  
3998.000000	0.001333  
3997.000000	0.001496  
3996.000000	0.001607  
3995.000000	0.001750  
3994.000000	0.001807  
3993.000000	0.001773  
3992.000000	0.001681  
3991.000000	0.001575  
3990.000000	0.001492  
3989.000000	0.001443  
3988.000000	0.001414  
3987.000000	0.001385  
3986.000000	0.001363  
3985.000000	0.001378  
3984.000000	0.001432  
3983.000000	0.001465  
3982.000000	0.001403  
3981.000000	0.001240  
3980.000000	0.001069  
3979.000000	0.001004  
3978.000000	0.001089  
3977.000000	0.001274  
3976.000000	0.001478  
3975.000000	0.001645  
3974.000000	0.001739  
3973.000000	0.001735  
3972.000000	0.001637  
3971.000000	0.001502  
3970.000000	0.001414  
3969.000000	0.001408  
3968.000000	0.001433  
3967.000000	0.001410  
3966.000000	0.001317  
3965.000000	0.001225  
3964.000000	0.001222  
3963.000000	0.001326  
3962.000000	0.001469  
3961.000000	0.001572  
3960.000000	0.001608  
3959.000000	0.001600  
3958.000000	0.001575  
3957.000000	0.001533  
3956.000000	0.001464  
3955.000000	0.001378  
3954.000000	0.001307  
3953.000000	0.001282  
3952.000000	0.001312  
3951.000000	0.001383  
3950.000000	0.001476  
3949.000000	0.001579  
3948.000000	0.001676  
3947.000000	0.001739  
3946.000000	0.001737  
3945.000000	0.001665  
3944.000000	0.001557  
3943.000000	0.001458  
3942.000000	0.001385  
3941.000000	0.001324  
3940.000000	0.001281  
3939.000000	0.001292  
3938.000000	0.001380  
3937.000000	0.001512  
3936.000000	0.001612  
3935.000000	0.001632  
3934.000000	0.001591  
3933.000000	0.001550  
3932.000000	0.001538  
3931.000000	0.001529  
3930.000000	0.001491  
3929.000000	0.001441  
3928.000000	0.001430  
3927.000000	0.001498  
3926.000000	0.001628  
3925.000000	0.001765  
3924.000000	0.001862  
3923.000000	0.001912  
3922.000000	0.001941  
3921.000000	0.001965  
3920.000000	0.001960  
3919.000000	0.001892  
3918.000000	0.001766  
3917.000000	0.001635  
3916.000000	0.001552  
3915.000000	0.001524  
3914.000000	0.001521  
3913.000000	0.001506  
3912.000000	0.001458  
3911.000000	0.001384  
3910.000000	0.001319  
3909.000000	0.001307  
3908.000000	0.001368  
3907.000000	0.001488  
3906.000000	0.001624  
3905.000000	0.001745  
3904.000000	0.001827  
3903.000000	0.001835  
3902.000000	0.001741  
3901.000000	0.001595  
3900.000000	0.001509  
3899.000000	0.001553  
3898.000000	0.001675  
3897.000000	0.001764  
3896.000000	0.001758  
3895.000000	0.001673  
3894.000000	0.001566  
3893.000000	0.001488  
3892.000000	0.001456  
3891.000000	0.001430  
3890.000000	0.001356  
3889.000000	0.001238  
3888.000000	0.001141  
3887.000000	0.001137  
3886.000000	0.001233  
3885.000000	0.001345  
3884.000000	0.001375  
3883.000000	0.001317  
3882.000000	0.001252  
3881.000000	0.001259  
3880.000000	0.001320  
3879.000000	0.001350  
3878.000000	0.001308  
3877.000000	0.001256  
3876.000000	0.001291  
3875.000000	0.001469  
3874.000000	0.001750  
3873.000000	0.002016  
3872.000000	0.002166  
3871.000000	0.002191  
3870.000000	0.002166  
3869.000000	0.002133  
3868.000000	0.002063  
3867.000000	0.001934  
3866.000000	0.001769  
3865.000000	0.001616  
3864.000000	0.001523  
3863.000000	0.001510  
3862.000000	0.001544  
3861.000000	0.001558  
3860.000000	0.001515  
3859.000000	0.001454  
3858.000000	0.001454  
3857.000000	0.001546  
3856.000000	0.001656  
3855.000000	0.001658  
3854.000000	0.001604  
3853.000000	0.001668  
3852.000000	0.001814  
3851.000000	0.001925  
3850.000000	0.002008  
3849.000000	0.002111  
3848.000000	0.002235  
3847.000000	0.002343  
3846.000000	0.002409  
3845.000000	0.002450  
3844.000000	0.002508  
3843.000000	0.002594  
3842.000000	0.002669  
3841.000000	0.002672  
3840.000000	0.002565  
3839.000000	0.002357  
3838.000000	0.002096  
3837.000000	0.001858  
3836.000000	0.001728  
3835.000000	0.001758  
3834.000000	0.001927  
3833.000000	0.002127  
3832.000000	0.002235  
3831.000000	0.002203  
3830.000000	0.002076  
3829.000000	0.001930  
3828.000000	0.001798  
3827.000000	0.001673  
3826.000000	0.001571  
3825.000000	0.001558  
3824.000000	0.001721  
3823.000000	0.002072  
3822.000000	0.002466  
3821.000000	0.002663  
3820.000000	0.002517  
3819.000000	0.002102  
3818.000000	0.001657  
3817.000000	0.001419  
3816.000000	0.001457  
3815.000000	0.001617  
3814.000000	0.001711  
3813.000000	0.001702  
3812.000000	0.001639  
3811.000000	0.001548  
3810.000000	0.001417  
3809.000000	0.001262  
3808.000000	0.001183  
3807.000000	0.001287  
3806.000000	0.001543  
3805.000000	0.001818  
3804.000000	0.002007  
3803.000000	0.002058  
3802.000000	0.001993  
3801.000000	0.001878  
3800.000000	0.001737  
3799.000000	0.001603  
3798.000000	0.001554  
3797.000000	0.001652  
3796.000000	0.001870  
3795.000000	0.002101  
3794.000000	0.002250  
3793.000000	0.002294  
3792.000000	0.002253  
3791.000000	0.002152  
3790.000000	0.002009  
3789.000000	0.001847  
3788.000000	0.001701  
3787.000000	0.001607  
3786.000000	0.001575  
3785.000000	0.001573  
3784.000000	0.001540  
3783.000000	0.001433  
3782.000000	0.001269  
3781.000000	0.001127  
3780.000000	0.001095  
3779.000000	0.001200  
3778.000000	0.001371  
3777.000000	0.001517  
3776.000000	0.001586  
3775.000000	0.001574  
3774.000000	0.001489  
3773.000000	0.001359  
3772.000000	0.001252  
3771.000000	0.001275  
3770.000000	0.001478  
3769.000000	0.001765  
3768.000000	0.001952  
3767.000000	0.001926  
3766.000000	0.001715  
3765.000000	0.001457  
3764.000000	0.001283  
3763.000000	0.001246  
3762.000000	0.001327  
3761.000000	0.001462  
3760.000000	0.001571  
3759.000000	0.001616  
3758.000000	0.001605  
3757.000000	0.001557  
3756.000000	0.001486  
3755.000000	0.001453  
3754.000000	0.001596  
3753.000000	0.002026  
3752.000000	0.002616  
3751.000000	0.002965  
3750.000000	0.002795  
3749.000000	0.002280  
3748.000000	0.001820  
3747.000000	0.001698  
3746.000000	0.001945  
3745.000000	0.002334  
3744.000000	0.002532  
3743.000000	0.002397  
3742.000000	0.002099  
3741.000000	0.001924  
3740.000000	0.002040  
3739.000000	0.002421  
3738.000000	0.002869  
3737.000000	0.003135  
3736.000000	0.003106  
3735.000000	0.002906  
3734.000000	0.002755  
3733.000000	0.002731  
3732.000000	0.002742  
3731.000000	0.002665  
3730.000000	0.002472  
3729.000000	0.002232  
3728.000000	0.002026  
3727.000000	0.001905  
3726.000000	0.001865  
3725.000000	0.001867  
3724.000000	0.001869  
3723.000000	0.001842  
3722.000000	0.001765  
3721.000000	0.001628  
3720.000000	0.001458  
3719.000000	0.001297  
3718.000000	0.001181  
3717.000000	0.001109  
3716.000000	0.001043  
3715.000000	0.000950  
3714.000000	0.000834  
3713.000000	0.000761  
3712.000000	0.000815  
3711.000000	0.000979  
3710.000000	0.001133  
3709.000000	0.001214  
3708.000000	0.001294  
3707.000000	0.001479  
3706.000000	0.001778  
3705.000000	0.002064  
3704.000000	0.002167  
3703.000000	0.002024  
3702.000000	0.001761  
3701.000000	0.001566  
3700.000000	0.001506  
3699.000000	0.001516  
3698.000000	0.001513  
3697.000000	0.001482  
3696.000000	0.001460  
3695.000000	0.001481  
3694.000000	0.001532  
3693.000000	0.001559  
3692.000000	0.001518  
3691.000000	0.001458  
3690.000000	0.001511  
3689.000000	0.001721  
3688.000000	0.001932  
3687.000000	0.001970  
3686.000000	0.001847  
3685.000000	0.001709  
3684.000000	0.001677  
3683.000000	0.001735  
3682.000000	0.001754  
3681.000000	0.001624  
3680.000000	0.001383  
3679.000000	0.001189  
3678.000000	0.001194  
3677.000000	0.001438  
3676.000000	0.001811  
3675.000000	0.002105  
3674.000000	0.002195  
3673.000000	0.002152  
3672.000000	0.002146  
3671.000000	0.002265  
3670.000000	0.002457  
3669.000000	0.002577  
3668.000000	0.002514  
3667.000000	0.002279  
3666.000000	0.001955  
3665.000000	0.001614  
3664.000000	0.001294  
3663.000000	0.001012  
3662.000000	0.000773  
3661.000000	0.000588  
3660.000000	0.000473  
3659.000000	0.000469  
3658.000000	0.000640  
3657.000000	0.001010  
3656.000000	0.001487  
3655.000000	0.001882  
3654.000000	0.002055  
3653.000000	0.001980  
3652.000000	0.001703  
3651.000000	0.001336  
3650.000000	0.001066  
3649.000000	0.001032  
3648.000000	0.001202  
3647.000000	0.001442  
3646.000000	0.001646  
3645.000000	0.001776  
3644.000000	0.001851  
3643.000000	0.001923  
3642.000000	0.002027  
3641.000000	0.002122  
3640.000000	0.002115  
3639.000000	0.001945  
3638.000000	0.001662  
3637.000000	0.001403  
3636.000000	0.001306  
3635.000000	0.001415  
3634.000000	0.001658  
3633.000000	0.001894  
3632.000000	0.002004  
3631.000000	0.001967  
3630.000000	0.001890  
3629.000000	0.001923  
3628.000000	0.002024  
3627.000000	0.002011  
3626.000000	0.001857  
3625.000000	0.001691  
3624.000000	0.001619  
3623.000000	0.001635  
3622.000000	0.001634  
3621.000000	0.001527  
3620.000000	0.001349  
3619.000000	0.001228  
3618.000000	0.001222  
3617.000000	0.001267  
3616.000000	0.001286  
3615.000000	0.001286  
3614.000000	0.001343  
3613.000000	0.001518  
3612.000000	0.001782  
3611.000000	0.002039  
3610.000000	0.002200  
3609.000000	0.002215  
3608.000000	0.002078  
3607.000000	0.001826  
3606.000000	0.001521  
3605.000000	0.001244  
3604.000000	0.001072  
3603.000000	0.001062  
3602.000000	0.001233  
3601.000000	0.001549  
3600.000000	0.001913  
3599.000000	0.002193  
3598.000000	0.002284  
3597.000000	0.002163  
3596.000000	0.001919  
3595.000000	0.001701  
3594.000000	0.001608  
3593.000000	0.001602  
3592.000000	0.001570  
3591.000000	0.001449  
3590.000000	0.001289  
3589.000000	0.001217  
3588.000000	0.001326  
3587.000000	0.001550  
3586.000000	0.001726  
3585.000000	0.001760  
3584.000000	0.001672  
3583.000000	0.001536  
3582.000000	0.001425  
3581.000000	0.001405  
3580.000000	0.001492  
3579.000000	0.001627  
3578.000000	0.001697  
3577.000000	0.001627  
3576.000000	0.001444  
3575.000000	0.001227  
3574.000000	0.001028  
3573.000000	0.000847  
3572.000000	0.000694  
3571.000000	0.000626  
3570.000000	0.000715  
3569.000000	0.000955  
3568.000000	0.001224  
3567.000000	0.001367  
3566.000000	0.001352  
3565.000000	0.001275  
3564.000000	0.001235  
3563.000000	0.001252  
3562.000000	0.001299  
3561.000000	0.001363  
3560.000000	0.001467  
3559.000000	0.001622  
3558.000000	0.001773  
3557.000000	0.001825  
3556.000000	0.001720  
3555.000000	0.001495  
3554.000000	0.001257  
3553.000000	0.001117  
3552.000000	0.001125  
3551.000000	0.001243  
3550.000000	0.001384  
3549.000000	0.001457  
3548.000000	0.001412  
3547.000000	0.001280  
3546.000000	0.001166  
3545.000000	0.001161  
3544.000000	0.001265  
3543.000000	0.001419  
3542.000000	0.001580  
3541.000000	0.001749  
3540.000000	0.001910  
3539.000000	0.001985  
3538.000000	0.001873  
3537.000000	0.001570  
3536.000000	0.001216  
3535.000000	0.000994  
3534.000000	0.000986  
3533.000000	0.001127  
3532.000000	0.001299  
3531.000000	0.001426  
3530.000000	0.001496  
3529.000000	0.001508  
3528.000000	0.001439  
3527.000000	0.001272  
3526.000000	0.001042  
3525.000000	0.000842  
3524.000000	0.000769  
3523.000000	0.000857  
3522.000000	0.001042  
3521.000000	0.001216  
3520.000000	0.001306  
3519.000000	0.001322  
3518.000000	0.001321  
3517.000000	0.001342  
3516.000000	0.001392  
3515.000000	0.001479  
3514.000000	0.001620  
3513.000000	0.001792  
3512.000000	0.001923  
3511.000000	0.001943  
3510.000000	0.001846  
3509.000000	0.001683  
3508.000000	0.001500  
3507.000000	0.001336  
3506.000000	0.001240  
3505.000000	0.001248  
3504.000000	0.001343  
3503.000000	0.001456  
3502.000000	0.001534  
3501.000000	0.001577  
3500.000000	0.001598  
3499.000000	0.001598  
3498.000000	0.001580  
3497.000000	0.001555  
3496.000000	0.001534  
3495.000000	0.001514  
3494.000000	0.001498  
3493.000000	0.001480  
3492.000000	0.001433  
3491.000000	0.001328  
3490.000000	0.001197  
3489.000000	0.001131  
3488.000000	0.001201  
3487.000000	0.001381  
3486.000000	0.001581  
3485.000000	0.001721  
3484.000000	0.001765  
3483.000000	0.001710  
3482.000000	0.001578  
3481.000000	0.001419  
3480.000000	0.001286  
3479.000000	0.001205  
3478.000000	0.001173  
3477.000000	0.001187  
3476.000000	0.001252  
3475.000000	0.001362  
3474.000000	0.001484  
3473.000000	0.001558  
3472.000000	0.001522  
3471.000000	0.001357  
3470.000000	0.001122  
3469.000000	0.000935  
3468.000000	0.000888  
3467.000000	0.000986  
3466.000000	0.001157  
3465.000000	0.001303  
3464.000000	0.001333  
3463.000000	0.001196  
3462.000000	0.000936  
3461.000000	0.000693  
3460.000000	0.000606  
3459.000000	0.000695  
3458.000000	0.000868  
3457.000000	0.001016  
3456.000000	0.001102  
3455.000000	0.001143  
3454.000000	0.001170  
3453.000000	0.001207  
3452.000000	0.001259  
3451.000000	0.001313  
3450.000000	0.001348  
3449.000000	0.001370  
3448.000000	0.001408  
3447.000000	0.001476  
3446.000000	0.001559  
3445.000000	0.001642  
3444.000000	0.001711  
3443.000000	0.001740  
3442.000000	0.001703  
3441.000000	0.001640  
3440.000000	0.001655  
3439.000000	0.001805  
3438.000000	0.002003  
3437.000000	0.002056  
3436.000000	0.001847  
3435.000000	0.001458  
3434.000000	0.001118  
3433.000000	0.001020  
3432.000000	0.001176  
3431.000000	0.001424  
3430.000000	0.001569  
3429.000000	0.001525  
3428.000000	0.001340  
3427.000000	0.001122  
3426.000000	0.000950  
3425.000000	0.000855  
3424.000000	0.000832  
3423.000000	0.000862  
3422.000000	0.000939  
3421.000000	0.001061  
3420.000000	0.001202  
3419.000000	0.001297  
3418.000000	0.001300  
3417.000000	0.001234  
3416.000000	0.001184  
3415.000000	0.001202  
3414.000000	0.001277  
3413.000000	0.001381  
3412.000000	0.001516  
3411.000000	0.001678  
3410.000000	0.001800  
3409.000000	0.001782  
3408.000000	0.001588  
3407.000000	0.001293  
3406.000000	0.001038  
3405.000000	0.000925  
3404.000000	0.000962  
3403.000000	0.001081  
3402.000000	0.001204  
3401.000000	0.001293  
3400.000000	0.001339  
3399.000000	0.001332  
3398.000000	0.001271  
3397.000000	0.001210  
3396.000000	0.001252  
3395.000000	0.001459  
3394.000000	0.001769  
3393.000000	0.002032  
3392.000000	0.002114  
3391.000000	0.001986  
3390.000000	0.001728  
3389.000000	0.001473  
3388.000000	0.001321  
3387.000000	0.001283  
3386.000000	0.001292  
3385.000000	0.001295  
3384.000000	0.001326  
3383.000000	0.001454  
3382.000000	0.001673  
3381.000000	0.001887  
3380.000000	0.001998  
3379.000000	0.001978  
3378.000000	0.001848  
3377.000000	0.001622  
3376.000000	0.001323  
3375.000000	0.001033  
3374.000000	0.000868  
3373.000000	0.000882  
3372.000000	0.001020  
3371.000000	0.001185  
3370.000000	0.001340  
3369.000000	0.001517  
3368.000000	0.001728  
3367.000000	0.001918  
3366.000000	0.002017  
3365.000000	0.002022  
3364.000000	0.001973  
3363.000000	0.001889  
3362.000000	0.001762  
3361.000000	0.001619  
3360.000000	0.001536  
3359.000000	0.001547  
3358.000000	0.001597  
3357.000000	0.001613  
3356.000000	0.001596  
3355.000000	0.001597  
3354.000000	0.001611  
3353.000000	0.001574  
3352.000000	0.001453  
3351.000000	0.001294  
3350.000000	0.001169  
3349.000000	0.001117  
3348.000000	0.001160  
3347.000000	0.001315  
3346.000000	0.001549  
3345.000000	0.001747  
3344.000000	0.001795  
3343.000000	0.001689  
3342.000000	0.001534  
3341.000000	0.001426  
3340.000000	0.001367  
3339.000000	0.001303  
3338.000000	0.001216  
3337.000000	0.001169  
3336.000000	0.001236  
3335.000000	0.001410  
3334.000000	0.001594  
3333.000000	0.001678  
3332.000000	0.001634  
3331.000000	0.001530  
3330.000000	0.001454  
3329.000000	0.001445  
3328.000000	0.001481  
3327.000000	0.001511  
3326.000000	0.001495  
3325.000000	0.001424  
3324.000000	0.001336  
3323.000000	0.001291  
3322.000000	0.001321  
3321.000000	0.001407  
3320.000000	0.001514  
3319.000000	0.001628  
3318.000000	0.001745  
3317.000000	0.001832  
3316.000000	0.001840  
3315.000000	0.001759  
3314.000000	0.001636  
3313.000000	0.001539  
3312.000000	0.001497  
3311.000000	0.001507  
3310.000000	0.001555  
3309.000000	0.001605  
3308.000000	0.001588  
3307.000000	0.001460  
3306.000000	0.001276  
3305.000000	0.001179  
3304.000000	0.001270  
3303.000000	0.001502  
3302.000000	0.001728  
3301.000000	0.001846  
3300.000000	0.001858  
3299.000000	0.001809  
3298.000000	0.001729  
3297.000000	0.001651  
3296.000000	0.001633  
3295.000000	0.001709  
3294.000000	0.001841  
3293.000000	0.001960  
3292.000000	0.002042  
3291.000000	0.002101  
3290.000000	0.002124  
3289.000000	0.002064  
3288.000000	0.001911  
3287.000000	0.001729  
3286.000000	0.001588  
3285.000000	0.001502  
3284.000000	0.001447  
3283.000000	0.001417  
3282.000000	0.001421  
3281.000000	0.001441  
3280.000000	0.001426  
3279.000000	0.001354  
3278.000000	0.001276  
3277.000000	0.001273  
3276.000000	0.001395  
3275.000000	0.001626  
3274.000000	0.001898  
3273.000000	0.002121  
3272.000000	0.002205  
3271.000000	0.002107  
3270.000000	0.001865  
3269.000000	0.001585  
3268.000000	0.001368  
3267.000000	0.001255  
3266.000000	0.001243  
3265.000000	0.001334  
3264.000000	0.001522  
3263.000000	0.001748  
3262.000000	0.001908  
3261.000000	0.001956  
3260.000000	0.001955  
3259.000000	0.002005  
3258.000000	0.002118  
3257.000000	0.002215  
3256.000000	0.002211  
3255.000000	0.002110  
3254.000000	0.001996  
3253.000000	0.001964  
3252.000000	0.002033  
3251.000000	0.002120  
3250.000000	0.002111  
3249.000000	0.001985  
3248.000000	0.001849  
3247.000000	0.001807  
3246.000000	0.001830  
3245.000000	0.001814  
3244.000000	0.001746  
3243.000000	0.001734  
3242.000000	0.001852  
3241.000000	0.002034  
3240.000000	0.002147  
3239.000000	0.002121  
3238.000000	0.001976  
3237.000000	0.001773  
3236.000000	0.001579  
3235.000000	0.001457  
3234.000000	0.001424  
3233.000000	0.001453  
3232.000000	0.001524  
3231.000000	0.001646  
3230.000000	0.001801  
3229.000000	0.001907  
3228.000000	0.001894  
3227.000000	0.001804  
3226.000000	0.001755  
3225.000000	0.001827  
3224.000000	0.001997  
3223.000000	0.002182  
3222.000000	0.002280  
3221.000000	0.002211  
3220.000000	0.001979  
3219.000000	0.001697  
3218.000000	0.001519  
3217.000000	0.001512  
3216.000000	0.001628  
3215.000000	0.001771  
3214.000000	0.001882  
3213.000000	0.001951  
3212.000000	0.002001  
3211.000000	0.002070  
3210.000000	0.002166  
3209.000000	0.002250  
3208.000000	0.002276  
3207.000000	0.002259  
3206.000000	0.002259  
3205.000000	0.002312  
3204.000000	0.002406  
3203.000000	0.002523  
3202.000000	0.002648  
3201.000000	0.002712  
3200.000000	0.002607  
3199.000000	0.002295  
3198.000000	0.001883  
3197.000000	0.001535  
3196.000000	0.001332  
3195.000000	0.001249  
3194.000000	0.001242  
3193.000000	0.001299  
3192.000000	0.001418  
3191.000000	0.001580  
3190.000000	0.001767  
3189.000000	0.001970  
3188.000000	0.002163  
3187.000000	0.002305  
3186.000000	0.002378  
3185.000000	0.002408  
3184.000000	0.002422  
3183.000000	0.002400  
3182.000000	0.002311  
3181.000000	0.002177  
3180.000000	0.002071  
3179.000000	0.002030  
3178.000000	0.002028  
3177.000000	0.002034  
3176.000000	0.002079  
3175.000000	0.002206  
3174.000000	0.002376  
3173.000000	0.002474  
3172.000000	0.002423  
3171.000000	0.002268  
3170.000000	0.002121  
3169.000000	0.002052  
3168.000000	0.002056  
3167.000000	0.002087  
3166.000000	0.002104  
3165.000000	0.002096  
3164.000000	0.002078  
3163.000000	0.002078  
3162.000000	0.002095  
3161.000000	0.002108  
3160.000000	0.002115  
3159.000000	0.002157  
3158.000000	0.002261  
3157.000000	0.002388  
3156.000000	0.002463  
3155.000000	0.002466  
3154.000000	0.002456  
3153.000000	0.002489  
3152.000000	0.002537  
3151.000000	0.002507  
3150.000000	0.002339  
3149.000000	0.002081  
3148.000000	0.001862  
3147.000000	0.001776  
3146.000000	0.001800  
3145.000000	0.001845  
3144.000000	0.001870  
3143.000000	0.001911  
3142.000000	0.001996  
3141.000000	0.002077  
3140.000000	0.002108  
3139.000000	0.002123  
3138.000000	0.002196  
3137.000000	0.002321  
3136.000000	0.002390  
3135.000000	0.002317  
3134.000000	0.002134  
3133.000000	0.001969  
3132.000000	0.001941  
3131.000000	0.002076  
3130.000000	0.002295  
3129.000000	0.002470  
3128.000000	0.002519  
3127.000000	0.002457  
3126.000000	0.002359  
3125.000000	0.002285  
3124.000000	0.002261  
3123.000000	0.002308  
3122.000000	0.002431  
3121.000000	0.002581  
3120.000000	0.002667  
3119.000000	0.002633  
3118.000000	0.002498  
3117.000000	0.002322  
3116.000000	0.002163  
3115.000000	0.002064  
3114.000000	0.002049  
3113.000000	0.002106  
3112.000000	0.002201  
3111.000000	0.002311  
3110.000000	0.002427  
3109.000000	0.002519  
3108.000000	0.002531  
3107.000000	0.002441  
3106.000000	0.002298  
3105.000000	0.002187  
3104.000000	0.002175  
3103.000000	0.002275  
3102.000000	0.002444  
3101.000000	0.002587  
3100.000000	0.002610  
3099.000000	0.002496  
3098.000000	0.002322  
3097.000000	0.002190  
3096.000000	0.002160  
3095.000000	0.002230  
3094.000000	0.002361  
3093.000000	0.002486  
3092.000000	0.002550  
3091.000000	0.002553  
3090.000000	0.002553  
3089.000000	0.002590  
3088.000000	0.002647  
3087.000000	0.002691  
3086.000000	0.002730  
3085.000000	0.002792  
3084.000000	0.002864  
3083.000000	0.002901  
3082.000000	0.002901  
3081.000000	0.002910  
3080.000000	0.002968  
3079.000000	0.003071  
3078.000000	0.003188  
3077.000000	0.003301  
3076.000000	0.003389  
3075.000000	0.003422  
3074.000000	0.003377  
3073.000000	0.003273  
3072.000000	0.003171  
3071.000000	0.003133  
3070.000000	0.003176  
3069.000000	0.003262  
3068.000000	0.003329  
3067.000000	0.003350  
3066.000000	0.003355  
3065.000000	0.003398  
3064.000000	0.003516  
3063.000000	0.003694  
3062.000000	0.003867  
3061.000000	0.003957  
3060.000000	0.003937  
3059.000000	0.003850  
3058.000000	0.003768  
3057.000000	0.003720  
3056.000000	0.003693  
3055.000000	0.003693  
3054.000000	0.003748  
3053.000000	0.003828  
3052.000000	0.003838  
3051.000000	0.003723  
3050.000000	0.003564  
3049.000000	0.003518  
3048.000000	0.003644  
3047.000000	0.003861  
3046.000000	0.004047  
3045.000000	0.004151  
3044.000000	0.004177  
3043.000000	0.004133  
3042.000000	0.004045  
3041.000000	0.003976  
3040.000000	0.004005  
3039.000000	0.004144  
3038.000000	0.004321  
3037.000000	0.004441  
3036.000000	0.004468  
3035.000000	0.004433  
3034.000000	0.004391  
3033.000000	0.004377  
3032.000000	0.004407  
3031.000000	0.004502  
3030.000000	0.004667  
3029.000000	0.004862  
3028.000000	0.005025  
3027.000000	0.005124  
3026.000000	0.005188  
3025.000000	0.005278  
3024.000000	0.005441  
3023.000000	0.005685  
3022.000000	0.005961  
3021.000000	0.006169  
3020.000000	0.006225  
3019.000000	0.006165  
3018.000000	0.006137  
3017.000000	0.006268  
3016.000000	0.006531  
3015.000000	0.006793  
3014.000000	0.006957  
3013.000000	0.007031  
3012.000000	0.007063  
3011.000000	0.007087  
3010.000000	0.007131  
3009.000000	0.007233  
3008.000000	0.007416  
3007.000000	0.007659  
3006.000000	0.007905  
3005.000000	0.008080  
3004.000000	0.008115  
3003.000000	0.007998  
3002.000000	0.007834  
3001.000000	0.007799  
3000.000000	0.008014  
2999.000000	0.008430  
2998.000000	0.008875  
2997.000000	0.009197  
2996.000000	0.009360  
2995.000000	0.009440  
2994.000000	0.009557  
2993.000000	0.009807  
2992.000000	0.010221  
2991.000000	0.010764  
2990.000000	0.011368  
2989.000000	0.011985  
2988.000000	0.012619  
2987.000000	0.013311  
2986.000000	0.014094  
2985.000000	0.014968  
2984.000000	0.015919  
2983.000000	0.016954  
2982.000000	0.018123  
2981.000000	0.019476  
2980.000000	0.021015  
2979.000000	0.022715  
2978.000000	0.024590  
2977.000000	0.026718  
2976.000000	0.029195  
2975.000000	0.032079  
2974.000000	0.035374  
2973.000000	0.039043  
2972.000000	0.043012  
2971.000000	0.047212  
2970.000000	0.051660  
2969.000000	0.056474  
2968.000000	0.061749  
2967.000000	0.067412  
2966.000000	0.073216  
2965.000000	0.078920  
2964.000000	0.084441  
2963.000000	0.089814  
2962.000000	0.095052  
2961.000000	0.100082  
2960.000000	0.104792  
2959.000000	0.109062  
2958.000000	0.112752  
2957.000000	0.115714  
2956.000000	0.117841  
2955.000000	0.119074  
2954.000000	0.119365  
2953.000000	0.118699  
2952.000000	0.117168  
2951.000000	0.115000  
2950.000000	0.112486  
2949.000000	0.109888  
2948.000000	0.107396  
2947.000000	0.105155  
2946.000000	0.103324  
2945.000000	0.102113  
2944.000000	0.101748  
2943.000000	0.102385  
2942.000000	0.104044  
2941.000000	0.106633  
2940.000000	0.110040  
2939.000000	0.114200  
2938.000000	0.119101  
2937.000000	0.124732  
2936.000000	0.131022  
2935.000000	0.137798  
2934.000000	0.144850  
2933.000000	0.152077  
2932.000000	0.159552  
2931.000000	0.167381  
2930.000000	0.175486  
2929.000000	0.183595  
2928.000000	0.191414  
2927.000000	0.198722  
2926.000000	0.205281  
2925.000000	0.210790  
2924.000000	0.214980  
2923.000000	0.217693  
2922.000000	0.218837  
2921.000000	0.218377  
2920.000000	0.216433  
2919.000000	0.213286  
2918.000000	0.209237  
2917.000000	0.204500  
2916.000000	0.199268  
2915.000000	0.193775  
2914.000000	0.188225  
2913.000000	0.182706  
2912.000000	0.177265  
2911.000000	0.172016  
2910.000000	0.167112  
2909.000000	0.162574  
2908.000000	0.158239  
2907.000000	0.153896  
2906.000000	0.149462  
2905.000000	0.145004  
2904.000000	0.140640  
2903.000000	0.136452  
2902.000000	0.132467  
2901.000000	0.128675  
2900.000000	0.125015  
2899.000000	0.121391  
2898.000000	0.117732  
2897.000000	0.114043  
2896.000000	0.110402  
2895.000000	0.106882  
2894.000000	0.103496  
2893.000000	0.100191  
2892.000000	0.096894  
2891.000000	0.093570  
2890.000000	0.090268  
2889.000000	0.087112  
2888.000000	0.084251  
2887.000000	0.081782  
2886.000000	0.079725  
2885.000000	0.078065  
2884.000000	0.076807  
2883.000000	0.075993  
2882.000000	0.075690  
2881.000000	0.075964  
2880.000000	0.076885  
2879.000000	0.078530  
2878.000000	0.080948  
2877.000000	0.084072  
2876.000000	0.087662  
2875.000000	0.091336  
2874.000000	0.094685  
2873.000000	0.097399  
2872.000000	0.099315  
2871.000000	0.100422  
2870.000000	0.100849  
2869.000000	0.100854  
2868.000000	0.100756  
2867.000000	0.100844  
2866.000000	0.101327  
2865.000000	0.102375  
2864.000000	0.104137  
2863.000000	0.106688  
2862.000000	0.109967  
2861.000000	0.113818  
2860.000000	0.118087  
2859.000000	0.122657  
2858.000000	0.127353  
2857.000000	0.131866  
2856.000000	0.135764  
2855.000000	0.138575  
2854.000000	0.139870  
2853.000000	0.139375  
2852.000000	0.137056  
2851.000000	0.133116  
2850.000000	0.127883  
2849.000000	0.121695  
2848.000000	0.114862  
2847.000000	0.107701  
2846.000000	0.100520  
2845.000000	0.093530  
2844.000000	0.086768  
2843.000000	0.080142  
2842.000000	0.073588  
2841.000000	0.067196  
2840.000000	0.061156  
2839.000000	0.055625  
2838.000000	0.050648  
2837.000000	0.046198  
2836.000000	0.042222  
2835.000000	0.038642  
2834.000000	0.035373  
2833.000000	0.032378  
2832.000000	0.029698  
2831.000000	0.027398  
2830.000000	0.025483  
2829.000000	0.023873  
2828.000000	0.022454  
2827.000000	0.021154  
2826.000000	0.019956  
2825.000000	0.018864  
2824.000000	0.017872  
2823.000000	0.016980  
2822.000000	0.016212  
2821.000000	0.015594  
2820.000000	0.015098  
2819.000000	0.014642  
2818.000000	0.014157  
2817.000000	0.013639  
2816.000000	0.013122  
2815.000000	0.012621  
2814.000000	0.012122  
2813.000000	0.011626  
2812.000000	0.011172  
2811.000000	0.010800  
2810.000000	0.010515  
2809.000000	0.010295  
2808.000000	0.010119  
2807.000000	0.009970  
2806.000000	0.009828  
2805.000000	0.009670  
2804.000000	0.009466  
2803.000000	0.009199  
2802.000000	0.008878  
2801.000000	0.008553  
2800.000000	0.008296  
2799.000000	0.008147  
2798.000000	0.008081  
2797.000000	0.008042  
2796.000000	0.007992  
2795.000000	0.007918  
2794.000000	0.007787  
2793.000000	0.007548  
2792.000000	0.007188  
2791.000000	0.006775  
2790.000000	0.006430  
2789.000000	0.006233  
2788.000000	0.006174  
2787.000000	0.006171  
2786.000000	0.006140  
2785.000000	0.006035  
2784.000000	0.005866  
2783.000000	0.005684  
2782.000000	0.005557  
2781.000000	0.005532  
2780.000000	0.005606  
2779.000000	0.005718  
2778.000000	0.005769  
2777.000000	0.005682  
2776.000000	0.005450  
2775.000000	0.005155  
2774.000000	0.004927  
2773.000000	0.004852  
2772.000000	0.004910  
2771.000000	0.004994  
2770.000000	0.004996  
2769.000000	0.004890  
2768.000000	0.004719  
2767.000000	0.004538  
2766.000000	0.004383  
2765.000000	0.004293  
2764.000000	0.004311  
2763.000000	0.004438  
2762.000000	0.004596  
2761.000000	0.004685  
2760.000000	0.004667  
2759.000000	0.004587  
2758.000000	0.004509  
2757.000000	0.004455  
2756.000000	0.004416  
2755.000000	0.004390  
2754.000000	0.004382  
2753.000000	0.004384  
2752.000000	0.004382  
2751.000000	0.004378  
2750.000000	0.004397  
2749.000000	0.004448  
2748.000000	0.004495  
2747.000000	0.004485  
2746.000000	0.004405  
2745.000000	0.004299  
2744.000000	0.004226  
2743.000000	0.004214  
2742.000000	0.004254  
2741.000000	0.004338  
2740.000000	0.004467  
2739.000000	0.004624  
2738.000000	0.004757  
2737.000000	0.004822  
2736.000000	0.004845  
2735.000000	0.004894  
2734.000000	0.005001  
2733.000000	0.005115  
2732.000000	0.005162  
2731.000000	0.005129  
2730.000000	0.005077  
2729.000000	0.005081  
2728.000000	0.005154  
2727.000000	0.005242  
2726.000000	0.005265  
2725.000000	0.005187  
2724.000000	0.005049  
2723.000000	0.004927  
2722.000000	0.004870  
2721.000000	0.004864  
2720.000000	0.004870  
2719.000000	0.004871  
2718.000000	0.004872  
2717.000000	0.004872  
2716.000000	0.004860  
2715.000000	0.004833  
2714.000000	0.004784  
2713.000000	0.004693  
2712.000000	0.004550  
2711.000000	0.004382  
2710.000000	0.004237  
2709.000000	0.004140  
2708.000000	0.004075  
2707.000000	0.004023  
2706.000000	0.003983  
2705.000000	0.003954  
2704.000000	0.003919  
2703.000000	0.003864  
2702.000000	0.003800  
2701.000000	0.003736  
2700.000000	0.003658  
2699.000000	0.003556  
2698.000000	0.003469  
2697.000000	0.003467  
2696.000000	0.003580  
2695.000000	0.003762  
2694.000000	0.003922  
2693.000000	0.004001  
2692.000000	0.003996  
2691.000000	0.003952  
2690.000000	0.003933  
2689.000000	0.003999  
2688.000000	0.004157  
2687.000000	0.004340  
2686.000000	0.004447  
2685.000000	0.004432  
2684.000000	0.004354  
2683.000000	0.004317  
2682.000000	0.004362  
2681.000000	0.004441  
2680.000000	0.004480  
2679.000000	0.004457  
2678.000000	0.004414  
2677.000000	0.004411  
2676.000000	0.004486  
2675.000000	0.004630  
2674.000000	0.004787  
2673.000000	0.004885  
2672.000000	0.004886  
2671.000000	0.004808  
2670.000000	0.004700  
2669.000000	0.004615  
2668.000000	0.004593  
2667.000000	0.004653  
2666.000000	0.004768  
2665.000000	0.004871  
2664.000000	0.004898  
2663.000000	0.004830  
2662.000000	0.004680  
2661.000000	0.004477  
2660.000000	0.004273  
2659.000000	0.004126  
2658.000000	0.004050  
2657.000000	0.004002  
2656.000000	0.003944  
2655.000000	0.003904  
2654.000000	0.003919  
2653.000000	0.003962  
2652.000000	0.003967  
2651.000000	0.003935  
2650.000000	0.003941  
2649.000000	0.004025  
2648.000000	0.004132  
2647.000000	0.004174  
2646.000000	0.004125  
2645.000000	0.004023  
2644.000000	0.003924  
2643.000000	0.003887  
2642.000000	0.003958  
2641.000000	0.004117  
2640.000000	0.004270  
2639.000000	0.004313  
2638.000000	0.004223  
2637.000000	0.004052  
2636.000000	0.003877  
2635.000000	0.003762  
2634.000000	0.003753  
2633.000000	0.003853  
2632.000000	0.003999  
2631.000000	0.004099  
2630.000000	0.004092  
2629.000000	0.003989  
2628.000000	0.003855  
2627.000000	0.003779  
2626.000000	0.003804  
2625.000000	0.003878  
2624.000000	0.003887  
2623.000000	0.003766  
2622.000000	0.003573  
2621.000000	0.003413  
2620.000000	0.003333  
2619.000000	0.003303  
2618.000000	0.003288  
2617.000000	0.003292  
2616.000000	0.003321  
2615.000000	0.003373  
2614.000000	0.003451  
2613.000000	0.003559  
2612.000000	0.003672  
2611.000000	0.003754  
2610.000000	0.003793  
2609.000000	0.003824  
2608.000000	0.003881  
2607.000000	0.003968  
2606.000000	0.004060  
2605.000000	0.004110  
2604.000000	0.004061  
2603.000000	0.003892  
2602.000000	0.003672  
2601.000000	0.003535  
2600.000000	0.003557  
2599.000000	0.003677  
2598.000000	0.003748  
2597.000000	0.003681  
2596.000000	0.003519  
2595.000000	0.003372  
2594.000000	0.003276  
2593.000000	0.003161  
2592.000000	0.002962  
2591.000000	0.002736  
2590.000000	0.002621  
2589.000000	0.002678  
2588.000000	0.002824  
2587.000000	0.002937  
2586.000000	0.002980  
2585.000000	0.002987  
2584.000000	0.002973  
2583.000000	0.002912  
2582.000000	0.002809  
2581.000000	0.002720  
2580.000000	0.002709  
2579.000000	0.002804  
2578.000000	0.002983  
2577.000000	0.003180  
2576.000000	0.003286  
2575.000000	0.003213  
2574.000000	0.002981  
2573.000000	0.002726  
2572.000000	0.002581  
2571.000000	0.002561  
2570.000000	0.002576  
2569.000000	0.002533  
2568.000000	0.002425  
2567.000000	0.002320  
2566.000000	0.002276  
2565.000000	0.002288  
2564.000000	0.002297  
2563.000000	0.002264  
2562.000000	0.002216  
2561.000000	0.002210  
2560.000000	0.002257  
2559.000000	0.002303  
2558.000000	0.002300  
2557.000000	0.002282  
2556.000000	0.002322  
2555.000000	0.002430  
2554.000000	0.002521  
2553.000000	0.002517  
2552.000000	0.002476  
2551.000000	0.002550  
2550.000000	0.002801  
2549.000000	0.003095  
2548.000000	0.003233  
2547.000000	0.003136  
2546.000000	0.002880  
2545.000000	0.002568  
2544.000000	0.002254  
2543.000000	0.001999  
2542.000000	0.001880  
2541.000000	0.001898  
2540.000000	0.001953  
2539.000000	0.001963  
2538.000000	0.001969  
2537.000000	0.002051  
2536.000000	0.002177  
2535.000000	0.002223  
2534.000000	0.002147  
2533.000000	0.002041  
2532.000000	0.002006  
2531.000000	0.002022  
2530.000000	0.001994  
2529.000000	0.001883  
2528.000000	0.001755  
2527.000000	0.001715  
2526.000000	0.001816  
2525.000000	0.002013  
2524.000000	0.002215  
2523.000000	0.002354  
2522.000000	0.002411  
2521.000000	0.002387  
2520.000000	0.002287  
2519.000000	0.002156  
2518.000000	0.002086  
2517.000000	0.002144  
2516.000000	0.002299  
2515.000000	0.002455  
2514.000000	0.002550  
2513.000000	0.002590  
2512.000000	0.002602  
2511.000000	0.002589  
2510.000000	0.002535  
2509.000000	0.002437  
2508.000000	0.002323  
2507.000000	0.002253  
2506.000000	0.002281  
2505.000000	0.002386  
2504.000000	0.002456  
2503.000000	0.002393  
2502.000000	0.002233  
2501.000000	0.002125  
2500.000000	0.002167  
2499.000000	0.002289  
2498.000000	0.002311  
2497.000000	0.002114  
2496.000000	0.001745  
2495.000000	0.001388  
2494.000000	0.001230  
2493.000000	0.001329  
2492.000000	0.001608  
2491.000000	0.001945  
2490.000000	0.002253  
2489.000000	0.002480  
2488.000000	0.002571  
2487.000000	0.002491  
2486.000000	0.002261  
2485.000000	0.001961  
2484.000000	0.001682  
2483.000000	0.001511  
2482.000000	0.001525  
2481.000000	0.001750  
2480.000000	0.002103  
2479.000000	0.002424  
2478.000000	0.002582  
2477.000000	0.002551  
2476.000000	0.002388  
2475.000000	0.002172  
2474.000000	0.001955  
2473.000000	0.001767  
2472.000000	0.001636  
2471.000000	0.001598  
2470.000000	0.001660  
2469.000000	0.001772  
2468.000000	0.001870  
2467.000000	0.001957  
2466.000000	0.002091  
2465.000000	0.002266  
2464.000000	0.002364  
2463.000000	0.002294  
2462.000000	0.002117  
2461.000000	0.001981  
2460.000000	0.001950  
2459.000000	0.001988  
2458.000000	0.002070  
2457.000000	0.002188  
2456.000000	0.002266  
2455.000000	0.002189  
2454.000000	0.001959  
2453.000000	0.001724  
2452.000000	0.001597  
2451.000000	0.001526  
2450.000000	0.001425  
2449.000000	0.001346  
2448.000000	0.001416  
2447.000000	0.001642  
2446.000000	0.001864  
2445.000000	0.001925  
2444.000000	0.001823  
2443.000000	0.001686  
2442.000000	0.001652  
2441.000000	0.001766  
2440.000000	0.001960  
2439.000000	0.002103  
2438.000000	0.002123  
2437.000000	0.002054  
2436.000000	0.001977  
2435.000000	0.001910  
2434.000000	0.001819  
2433.000000	0.001699  
2432.000000	0.001610  
2431.000000	0.001602  
2430.000000	0.001658  
2429.000000	0.001733  
2428.000000	0.001809  
2427.000000	0.001899  
2426.000000	0.001996  
2425.000000	0.002062  
2424.000000	0.002049  
2423.000000	0.001947  
2422.000000	0.001801  
2421.000000	0.001695  
2420.000000	0.001694  
2419.000000	0.001796  
2418.000000	0.001925  
2417.000000	0.001999  
2416.000000	0.001998  
2415.000000	0.001979  
2414.000000	0.002023  
2413.000000	0.002158  
2412.000000	0.002328  
2411.000000	0.002433  
2410.000000	0.002421  
2409.000000	0.002344  
2408.000000	0.002308  
2407.000000	0.002347  
2406.000000	0.002373  
2405.000000	0.002271  
2404.000000	0.002034  
2403.000000	0.001776  
2402.000000	0.001606  
2401.000000	0.001536  
2400.000000	0.001531  
2399.000000	0.001597  
2398.000000	0.001764  
2397.000000	0.001989  
2396.000000	0.002150  
2395.000000	0.002161  
2394.000000	0.002075  
2393.000000	0.002021  
2392.000000	0.002073  
2391.000000	0.002184  
2390.000000	0.002257  
2389.000000	0.002240  
2388.000000	0.002178  
2387.000000	0.002191  
2386.000000	0.002375  
2385.000000	0.002709  
2384.000000	0.003045  
2383.000000	0.003215  
2382.000000	0.003147  
2381.000000	0.002907  
2380.000000	0.002626  
2379.000000	0.002413  
2378.000000	0.002280  
2377.000000	0.002136  
2376.000000	0.001882  
2375.000000	0.001570  
2374.000000	0.001416  
2373.000000	0.001583  
2372.000000	0.001989  
2371.000000	0.002425  
2370.000000	0.002801  
2369.000000	0.003129  
2368.000000	0.003320  
2367.000000	0.003240  
2366.000000	0.002974  
2365.000000	0.002762  
2364.000000	0.002636  
2363.000000	0.002464  
2362.000000	0.002270  
2361.000000	0.002284  
2360.000000	0.002690  
2359.000000	0.003276  
2358.000000	0.003644  
2357.000000	0.003552  
2356.000000	0.003032  
2355.000000	0.002431  
2354.000000	0.002095  
2353.000000	0.002168  
2352.000000	0.002459  
2351.000000	0.002657  
2350.000000	0.002725  
2349.000000	0.002716  
2348.000000	0.002721  
2347.000000	0.002724  
2346.000000	0.002773  
2345.000000	0.003008  
2344.000000	0.003285  
2343.000000	0.003353  
2342.000000	0.003065  
2341.000000	0.002733  
2340.000000	0.002720  
2339.000000	0.002874  
2338.000000	0.002750  
2337.000000	0.002218  
2336.000000	0.001637  
2335.000000	0.001386  
2334.000000	0.001485  
2333.000000	0.001762  
2332.000000	0.002117  
2331.000000	0.002502  
2330.000000	0.002948  
2329.000000	0.003345  
2328.000000	0.003667  
2327.000000	0.003855  
2326.000000	0.003883  
2325.000000	0.003801  
2324.000000	0.003573  
2323.000000	0.003212  
2322.000000	0.002711  
2321.000000	0.002296  
2320.000000	0.002225  
2319.000000	0.002542  
2318.000000	0.002976  
2317.000000	0.003124  
2316.000000	0.002822  
2315.000000	0.002228  
2314.000000	0.001760  
2313.000000	0.001729  
2312.000000	0.002118  
2311.000000	0.002599  
2310.000000	0.002905  
2309.000000	0.003037  
2308.000000	0.003147  
2307.000000	0.003274  
2306.000000	0.003301  
2305.000000	0.003153  
2304.000000	0.002898  
2303.000000	0.002675  
2302.000000	0.002536  
2301.000000	0.002433  
2300.000000	0.002312  
2299.000000	0.002198  
2298.000000	0.002197  
2297.000000	0.002371  
2296.000000	0.002645  
2295.000000	0.002838  
2294.000000	0.002831  
2293.000000	0.002680  
2292.000000	0.002521  
2291.000000	0.002423  
2290.000000	0.002351  
2289.000000	0.002271  
2288.000000	0.002164  
2287.000000	0.001995  
2286.000000	0.001733  
2285.000000	0.001470  
2284.000000	0.001380  
2283.000000	0.001526  
2282.000000	0.001746  
2281.000000	0.001836  
2280.000000	0.001793  
2279.000000	0.001783  
2278.000000	0.001867  
2277.000000	0.001913  
2276.000000	0.001832  
2275.000000	0.001776  
2274.000000	0.002001  
2273.000000	0.002511  
2272.000000	0.002996  
2271.000000	0.003150  
2270.000000	0.002981  
2269.000000	0.002729  
2268.000000	0.002540  
2267.000000	0.002344  
2266.000000	0.002069  
2265.000000	0.001827  
2264.000000	0.001796  
2263.000000	0.001990  
2262.000000	0.002254  
2261.000000	0.002458  
2260.000000	0.002573  
2259.000000	0.002614  
2258.000000	0.002607  
2257.000000	0.002638  
2256.000000	0.002811  
2255.000000	0.003085  
2254.000000	0.003249  
2253.000000	0.003137  
2252.000000	0.002835  
2251.000000	0.002585  
2250.000000	0.002507  
2249.000000	0.002474  
2248.000000	0.002270  
2247.000000	0.001827  
2246.000000	0.001312  
2245.000000	0.000990  
2244.000000	0.001004  
2243.000000	0.001289  
2242.000000	0.001663  
2241.000000	0.001985  
2240.000000	0.002184  
2239.000000	0.002202  
2238.000000	0.002001  
2237.000000	0.001638  
2236.000000	0.001287  
2235.000000	0.001115  
2234.000000	0.001176  
2233.000000	0.001413  
2232.000000	0.001708  
2231.000000	0.001919  
2230.000000	0.001924  
2229.000000	0.001714  
2228.000000	0.001428  
2227.000000	0.001235  
2226.000000	0.001187  
2225.000000	0.001176  
2224.000000	0.001030  
2223.000000	0.000666  
2222.000000	0.000220  
2221.000000	0.000022  
2220.000000	0.000339  
2219.000000	0.001064  
2218.000000	0.001755  
2217.000000	0.002065  
2216.000000	0.002074  
2215.000000	0.002095  
2214.000000	0.002227  
2213.000000	0.002280  
2212.000000	0.002148  
2211.000000	0.002024  
2210.000000	0.002128  
2209.000000	0.002341  
2208.000000	0.002322  
2207.000000	0.001966  
2206.000000	0.001595  
2205.000000	0.001617  
2204.000000	0.002090  
2203.000000	0.002708  
2202.000000	0.003145  
2201.000000	0.003318  
2200.000000	0.003336  
2199.000000	0.003329  
2198.000000	0.003370  
2197.000000	0.003476  
2196.000000	0.003555  
2195.000000	0.003421  
2194.000000	0.002956  
2193.000000	0.002291  
2192.000000	0.001690  
2191.000000	0.001257  
2190.000000	0.000900  
2189.000000	0.000590  
2188.000000	0.000502  
2187.000000	0.000763  
2186.000000	0.001204  
2185.000000	0.001529  
2184.000000	0.001690  
2183.000000	0.001900  
2182.000000	0.002293  
2181.000000	0.002750  
2180.000000	0.003092  
2179.000000	0.003264  
2178.000000	0.003279  
2177.000000	0.003138  
2176.000000	0.002882  
2175.000000	0.002583  
2174.000000	0.002225  
2173.000000	0.001747  
2172.000000	0.001259  
2171.000000	0.001063  
2170.000000	0.001302  
2169.000000	0.001701  
2168.000000	0.001849  
2167.000000	0.001719  
2166.000000	0.001718  
2165.000000	0.002143  
2164.000000	0.002771  
2163.000000	0.003092  
2162.000000	0.002852  
2161.000000	0.002254  
2160.000000	0.001717  
2159.000000	0.001500  
2158.000000	0.001575  
2157.000000	0.001748  
2156.000000	0.001832  
2155.000000	0.001728  
2154.000000	0.001470  
2153.000000	0.001230  
2152.000000	0.001208  
2151.000000	0.001449  
2150.000000	0.001771  
2149.000000	0.001933  
2148.000000	0.001894  
2147.000000	0.001847  
2146.000000	0.001994  
2145.000000	0.002352  
2144.000000	0.002775  
2143.000000	0.003071  
2142.000000	0.003054  
2141.000000	0.002596  
2140.000000	0.001789  
2139.000000	0.001003  
2138.000000	0.000664  
2137.000000	0.000899  
2136.000000	0.001415  
2135.000000	0.001775  
2134.000000	0.001758  
2133.000000	0.001491  
2132.000000	0.001290  
2131.000000	0.001396  
2130.000000	0.001806  
2129.000000	0.002304  
2128.000000	0.002650  
2127.000000	0.002741  
2126.000000	0.002599  
2125.000000	0.002280  
2124.000000	0.001888  
2123.000000	0.001616  
2122.000000	0.001675  
2121.000000	0.002083  
2120.000000	0.002578  
2119.000000	0.002812  
2118.000000	0.002649  
2117.000000	0.002286  
2116.000000	0.002088  
2115.000000	0.002263  
2114.000000	0.002649  
2113.000000	0.002833  
2112.000000	0.002548  
2111.000000	0.001972  
2110.000000	0.001557  
2109.000000	0.001564  
2108.000000	0.001835  
2107.000000	0.002046  
2106.000000	0.002068  
2105.000000	0.001983  
2104.000000	0.001864  
2103.000000	0.001686  
2102.000000	0.001450  
2101.000000	0.001241  
2100.000000	0.001125  
2099.000000	0.001070  
2098.000000	0.001027  
2097.000000	0.001004  
2096.000000	0.001017  
2095.000000	0.001034  
2094.000000	0.001019  
2093.000000	0.001003  
2092.000000	0.001039  
2091.000000	0.001117  
2090.000000	0.001170  
2089.000000	0.001185  
2088.000000	0.001261  
2087.000000	0.001521  
2086.000000	0.001949  
2085.000000	0.002343  
2084.000000	0.002460  
2083.000000	0.002240  
2082.000000	0.001866  
2081.000000	0.001608  
2080.000000	0.001602  
2079.000000	0.001774  
2078.000000	0.001939  
2077.000000	0.001947  
2076.000000	0.001781  
2075.000000	0.001586  
2074.000000	0.001564  
2073.000000	0.001776  
2072.000000	0.002058  
2071.000000	0.002189  
2070.000000	0.002124  
2069.000000	0.001990  
2068.000000	0.001891  
2067.000000	0.001816  
2066.000000	0.001764  
2065.000000	0.001807  
2064.000000	0.001983  
2063.000000	0.002197  
2062.000000	0.002334  
2061.000000	0.002365  
2060.000000	0.002305  
2059.000000	0.002144  
2058.000000	0.001917  
2057.000000	0.001751  
2056.000000	0.001701  
2055.000000	0.001626  
2054.000000	0.001357  
2053.000000	0.000981  
2052.000000	0.000777  
2051.000000	0.000895  
2050.000000	0.001239  
2049.000000	0.001693  
2048.000000	0.002250  
2047.000000	0.002816  
2046.000000	0.003068  
2045.000000	0.002773  
2044.000000	0.002136  
2043.000000	0.001622  
2042.000000	0.001454  
2041.000000	0.001496  
2040.000000	0.001603  
2039.000000	0.001836  
2038.000000	0.002221  
2037.000000	0.002535  
2036.000000	0.002529  
2035.000000	0.002301  
2034.000000	0.002223  
2033.000000	0.002502  
2032.000000	0.002943  
2031.000000	0.003176  
2030.000000	0.002970  
2029.000000	0.002332  
2028.000000	0.001476  
2027.000000	0.000735  
2026.000000	0.000402  
2025.000000	0.000534  
2024.000000	0.000911  
2023.000000	0.001283  
2022.000000	0.001582  
2021.000000	0.001840  
2020.000000	0.001996  
2019.000000	0.001908  
2018.000000	0.001564  
2017.000000	0.001127  
2016.000000	0.000759  
2015.000000	0.000504  
2014.000000	0.000436  
2013.000000	0.000689  
2012.000000	0.001189  
2011.000000	0.001489  
2010.000000	0.001118  
2009.000000	0.000128  
2008.000000	-0.000848 
2007.000000	-0.001202 
2006.000000	-0.000868 
2005.000000	-0.000195 
2004.000000	0.000501  
2003.000000	0.001150  
2002.000000	0.001805  
2001.000000	0.002456  
2000.000000	0.002935  
1999.000000	0.002960  
1998.000000	0.002352  
1997.000000	0.001335  
1996.000000	0.000489  
1995.000000	0.000279  
1994.000000	0.000664  
1993.000000	0.001226  
1992.000000	0.001612  
1991.000000	0.001777  
1990.000000	0.001829  
1989.000000	0.001862  
1988.000000	0.001972  
1987.000000	0.002232  
1986.000000	0.002551  
1985.000000	0.002733  
1984.000000	0.002728  
1983.000000	0.002679  
1982.000000	0.002652  
1981.000000	0.002519  
1980.000000	0.002230  
1979.000000	0.001991  
1978.000000	0.001959  
1977.000000	0.001922  
1976.000000	0.001583  
1975.000000	0.001045  
1974.000000	0.000657  
1973.000000	0.000512  
1972.000000	0.000405  
1971.000000	0.000250  
1970.000000	0.000213  
1969.000000	0.000375  
1968.000000	0.000540  
1967.000000	0.000537  
1966.000000	0.000499  
1965.000000	0.000661  
1964.000000	0.001043  
1963.000000	0.001471  
1962.000000	0.001789  
1961.000000	0.001925  
1960.000000	0.001873  
1959.000000	0.001716  
1958.000000	0.001593  
1957.000000	0.001530  
1956.000000	0.001373  
1955.000000	0.000992  
1954.000000	0.000508  
1953.000000	0.000234  
1952.000000	0.000390  
1951.000000	0.000948  
1950.000000	0.001677  
1949.000000	0.002256  
1948.000000	0.002423  
1947.000000	0.002166  
1946.000000	0.001767  
1945.000000	0.001584  
1944.000000	0.001729  
1943.000000	0.001997  
1942.000000	0.002117  
1941.000000	0.002025  
1940.000000	0.001835  
1939.000000	0.001677  
1938.000000	0.001653  
1937.000000	0.001829  
1936.000000	0.002167  
1935.000000	0.002506  
1934.000000	0.002680  
1933.000000	0.002653  
1932.000000	0.002523  
1931.000000	0.002391  
1930.000000	0.002272  
1929.000000	0.002126  
1928.000000	0.001937  
1927.000000	0.001729  
1926.000000	0.001541  
1925.000000	0.001401  
1924.000000	0.001326  
1923.000000	0.001336  
1922.000000	0.001461  
1921.000000	0.001713  
1920.000000	0.002037  
1919.000000	0.002298  
1918.000000	0.002374  
1917.000000	0.002292  
1916.000000	0.002185  
1915.000000	0.002090  
1914.000000	0.001924  
1913.000000	0.001658  
1912.000000	0.001419  
1911.000000	0.001361  
1910.000000	0.001475  
1909.000000	0.001616  
1908.000000	0.001702  
1907.000000	0.001775  
1906.000000	0.001859  
1905.000000	0.001886  
1904.000000	0.001806  
1903.000000	0.001695  
1902.000000	0.001685  
1901.000000	0.001815  
1900.000000	0.001987  
1899.000000	0.002075  
1898.000000	0.002035  
1897.000000	0.001916  
1896.000000	0.001822  
1895.000000	0.001829  
1894.000000	0.001933  
1893.000000	0.002077  
1892.000000	0.002218  
1891.000000	0.002357  
1890.000000	0.002486  
1889.000000	0.002551  
1888.000000	0.002511  
1887.000000	0.002382  
1886.000000	0.002226  
1885.000000	0.002116  
1884.000000	0.002084  
1883.000000	0.002089  
1882.000000	0.002055  
1881.000000	0.001954  
1880.000000	0.001842  
1879.000000	0.001777  
1878.000000	0.001743  
1877.000000	0.001707  
1876.000000	0.001720  
1875.000000	0.001870  
1874.000000	0.002136  
1873.000000	0.002364  
1872.000000	0.002419  
1871.000000	0.002295  
1870.000000	0.002070  
1869.000000	0.001816  
1868.000000	0.001618  
1867.000000	0.001570  
1866.000000	0.001683  
1865.000000	0.001854  
1864.000000	0.001978  
1863.000000	0.002038  
1862.000000	0.002073  
1861.000000	0.002090  
1860.000000	0.002071  
1859.000000	0.002049  
1858.000000	0.002094  
1857.000000	0.002213  
1856.000000	0.002314  
1855.000000	0.002292  
1854.000000	0.002123  
1853.000000	0.001900  
1852.000000	0.001768  
1851.000000	0.001803  
1850.000000	0.001925  
1849.000000	0.001960  
1848.000000	0.001814  
1847.000000	0.001591  
1846.000000	0.001483  
1845.000000	0.001588  
1844.000000	0.001802  
1843.000000	0.001939  
1842.000000	0.001930  
1841.000000	0.001810  
1840.000000	0.001650  
1839.000000	0.001551  
1838.000000	0.001594  
1837.000000	0.001739  
1836.000000	0.001863  
1835.000000	0.001900  
1834.000000	0.001879  
1833.000000	0.001816  
1832.000000	0.001679  
1831.000000	0.001502  
1830.000000	0.001429  
1829.000000	0.001551  
1828.000000	0.001773  
1827.000000	0.001945  
1826.000000	0.002013  
1825.000000	0.002015  
1824.000000	0.002032  
1823.000000	0.002119  
1822.000000	0.002248  
1821.000000	0.002286  
1820.000000	0.002102  
1819.000000	0.001747  
1818.000000	0.001470  
1817.000000	0.001469  
1816.000000	0.001678  
1815.000000	0.001872  
1814.000000	0.001919  
1813.000000	0.001852  
1812.000000	0.001778  
1811.000000	0.001773  
1810.000000	0.001852  
1809.000000	0.001976  
1808.000000	0.002087  
1807.000000	0.002157  
1806.000000	0.002194  
1805.000000	0.002218  
1804.000000	0.002240  
1803.000000	0.002271  
1802.000000	0.002330  
1801.000000	0.002413  
1800.000000	0.002494  
1799.000000	0.002544  
1798.000000	0.002559  
1797.000000	0.002543  
1796.000000	0.002500  
1795.000000	0.002419  
1794.000000	0.002280  
1793.000000	0.002087  
1792.000000	0.001891  
1791.000000	0.001770  
1790.000000	0.001768  
1789.000000	0.001856  
1788.000000	0.001973  
1787.000000	0.002074  
1786.000000	0.002146  
1785.000000	0.002175  
1784.000000	0.002134  
1783.000000	0.002022  
1782.000000	0.001904  
1781.000000	0.001885  
1780.000000	0.002012  
1779.000000	0.002211  
1778.000000	0.002368  
1777.000000	0.002425  
1776.000000	0.002392  
1775.000000	0.002290  
1774.000000	0.002130  
1773.000000	0.001944  
1772.000000	0.001784  
1771.000000	0.001682  
1770.000000	0.001662  
1769.000000	0.001721  
1768.000000	0.001817  
1767.000000	0.001901  
1766.000000	0.001962  
1765.000000	0.002023  
1764.000000	0.002100  
1763.000000	0.002196  
1762.000000	0.002305  
1761.000000	0.002408  
1760.000000	0.002486  
1759.000000	0.002530  
1758.000000	0.002549  
1757.000000	0.002566  
1756.000000	0.002593  
1755.000000	0.002630  
1754.000000	0.002704  
1753.000000	0.002857  
1752.000000	0.003117  
1751.000000	0.003430  
1750.000000	0.003715  
1749.000000	0.004004  
1748.000000	0.004389  
1747.000000	0.004896  
1746.000000	0.005468  
1745.000000	0.006013  
1744.000000	0.006418  
1743.000000	0.006602  
1742.000000	0.006561  
1741.000000	0.006337  
1740.000000	0.005958  
1739.000000	0.005486  
1738.000000	0.005027  
1737.000000	0.004615  
1736.000000	0.004177  
1735.000000	0.003693  
1734.000000	0.003301  
1733.000000	0.003057  
1732.000000	0.002873  
1731.000000	0.002728  
1730.000000	0.002673  
1729.000000	0.002728  
1728.000000	0.002827  
1727.000000	0.002891  
1726.000000	0.002895  
1725.000000	0.002860  
1724.000000	0.002807  
1723.000000	0.002742  
1722.000000	0.002677  
1721.000000	0.002626  
1720.000000	0.002581  
1719.000000	0.002533  
1718.000000	0.002488  
1717.000000	0.002412  
1716.000000	0.002310  
1715.000000	0.002263  
1714.000000	0.002304  
1713.000000	0.002380  
1712.000000	0.002403  
1711.000000	0.002338  
1710.000000	0.002222  
1709.000000	0.002119  
1708.000000	0.002073  
1707.000000	0.002104  
1706.000000	0.002217  
1705.000000	0.002377  
1704.000000	0.002560  
1703.000000	0.002756  
1702.000000	0.002883  
1701.000000	0.002850  
1700.000000	0.002720  
1699.000000	0.002646  
1698.000000	0.002667  
1697.000000	0.002687  
1696.000000	0.002639  
1695.000000	0.002589  
1694.000000	0.002570  
1693.000000	0.002545  
1692.000000	0.002495  
1691.000000	0.002437  
1690.000000	0.002423  
1689.000000	0.002480  
1688.000000	0.002575  
1687.000000	0.002636  
1686.000000	0.002584  
1685.000000	0.002473  
1684.000000	0.002440  
1683.000000	0.002485  
1682.000000	0.002565  
1681.000000	0.002649  
1680.000000	0.002683  
1679.000000	0.002652  
1678.000000	0.002540  
1677.000000	0.002345  
1676.000000	0.002122  
1675.000000	0.002032  
1674.000000	0.002143  
1673.000000	0.002348  
1672.000000	0.002530  
1671.000000	0.002656  
1670.000000	0.002751  
1669.000000	0.002817  
1668.000000	0.002816  
1667.000000	0.002759  
1666.000000	0.002712  
1665.000000	0.002720  
1664.000000	0.002776  
1663.000000	0.002825  
1662.000000	0.002815  
1661.000000	0.002766  
1660.000000	0.002722  
1659.000000	0.002690  
1658.000000	0.002655  
1657.000000	0.002638  
1656.000000	0.002643  
1655.000000	0.002610  
1654.000000	0.002554  
1653.000000	0.002630  
1652.000000	0.002768  
1651.000000	0.002792  
1650.000000	0.002777  
1649.000000	0.002832  
1648.000000	0.002975  
1647.000000	0.003084  
1646.000000	0.003038  
1645.000000	0.002854  
1644.000000	0.002624  
1643.000000	0.002439  
1642.000000	0.002375  
1641.000000	0.002407  
1640.000000	0.002460  
1639.000000	0.002487  
1638.000000	0.002490  
1637.000000	0.002494  
1636.000000	0.002501  
1635.000000	0.002486  
1634.000000	0.002468  
1633.000000	0.002480  
1632.000000	0.002509  
1631.000000	0.002534  
1630.000000	0.002551  
1629.000000	0.002580  
1628.000000	0.002623  
1627.000000	0.002663  
1626.000000	0.002705  
1625.000000	0.002769  
1624.000000	0.002858  
1623.000000	0.002950  
1622.000000	0.003039  
1621.000000	0.003154  
1620.000000	0.003295  
1619.000000	0.003411  
1618.000000	0.003454  
1617.000000	0.003478  
1616.000000	0.003566  
1615.000000	0.003690  
1614.000000	0.003809  
1613.000000	0.003922  
1612.000000	0.004032  
1611.000000	0.004143  
1610.000000	0.004258  
1609.000000	0.004367  
1608.000000	0.004433  
1607.000000	0.004424  
1606.000000	0.004358  
1605.000000	0.004278  
1604.000000	0.004201  
1603.000000	0.004116  
1602.000000	0.004022  
1601.000000	0.003925  
1600.000000	0.003804  
1599.000000	0.003631  
1598.000000	0.003436  
1597.000000	0.003302  
1596.000000	0.003282  
1595.000000	0.003349  
1594.000000	0.003434  
1593.000000	0.003497  
1592.000000	0.003546  
1591.000000	0.003598  
1590.000000	0.003649  
1589.000000	0.003675  
1588.000000	0.003655  
1587.000000	0.003585  
1586.000000	0.003496  
1585.000000	0.003419  
1584.000000	0.003363  
1583.000000	0.003326  
1582.000000	0.003311  
1581.000000	0.003329  
1580.000000	0.003393  
1579.000000	0.003490  
1578.000000	0.003546  
1577.000000	0.003465  
1576.000000	0.003253  
1575.000000	0.003065  
1574.000000	0.003042  
1573.000000	0.003184  
1572.000000	0.003365  
1571.000000	0.003437  
1570.000000	0.003368  
1569.000000	0.003266  
1568.000000	0.003215  
1567.000000	0.003186  
1566.000000	0.003122  
1565.000000	0.003030  
1564.000000	0.002953  
1563.000000	0.002937  
1562.000000	0.002972  
1561.000000	0.002975  
1560.000000	0.002986  
1559.000000	0.003016  
1558.000000	0.002965  
1557.000000	0.003029  
1556.000000	0.003250  
1555.000000	0.003461  
1554.000000	0.003614  
1553.000000	0.003634  
1552.000000	0.003540  
1551.000000	0.003367  
1550.000000	0.003220  
1549.000000	0.003172  
1548.000000	0.003200  
1547.000000	0.003239  
1546.000000	0.003286  
1545.000000	0.003355  
1544.000000	0.003408  
1543.000000	0.003417  
1542.000000	0.003455  
1541.000000	0.003578  
1540.000000	0.003679  
1539.000000	0.003701  
1538.000000	0.003743  
1537.000000	0.003827  
1536.000000	0.003886  
1535.000000	0.003857  
1534.000000	0.003756  
1533.000000	0.003680  
1532.000000	0.003661  
1531.000000	0.003641  
1530.000000	0.003567  
1529.000000	0.003454  
1528.000000	0.003376  
1527.000000	0.003418  
1526.000000	0.003625  
1525.000000	0.003927  
1524.000000	0.004186  
1523.000000	0.004335  
1522.000000	0.004443  
1521.000000	0.004579  
1520.000000	0.004683  
1519.000000	0.004711  
1518.000000	0.004730  
1517.000000	0.004800  
1516.000000	0.004897  
1515.000000	0.005006  
1514.000000	0.005170  
1513.000000	0.005390  
1512.000000	0.005584  
1511.000000	0.005692  
1510.000000	0.005782  
1509.000000	0.005975  
1508.000000	0.006330  
1507.000000	0.006765  
1506.000000	0.007177  
1505.000000	0.007497  
1504.000000	0.007635  
1503.000000	0.007619  
1502.000000	0.007576  
1501.000000	0.007554  
1500.000000	0.007543  
1499.000000	0.007590  
1498.000000	0.007892  
1497.000000	0.008512  
1496.000000	0.009103  
1495.000000	0.009362  
1494.000000	0.009431  
1493.000000	0.009513  
1492.000000	0.009580  
1491.000000	0.009569  
1490.000000	0.009632  
1489.000000	0.009919  
1488.000000	0.010312  
1487.000000	0.010672  
1486.000000	0.011056  
1485.000000	0.011547  
1484.000000	0.012113  
1483.000000	0.012734  
1482.000000	0.013515  
1481.000000	0.014503  
1480.000000	0.015559  
1479.000000	0.016623  
1478.000000	0.017904  
1477.000000	0.019617  
1476.000000	0.021695  
1475.000000	0.024154  
1474.000000	0.027689  
1473.000000	0.033160  
1472.000000	0.040072  
1471.000000	0.047020  
1470.000000	0.053456  
1469.000000	0.059400  
1468.000000	0.064647  
1467.000000	0.069026  
1466.000000	0.072727  
1465.000000	0.075943  
1464.000000	0.078459  
1463.000000	0.080174  
1462.000000	0.081413  
1461.000000	0.082489  
1460.000000	0.083512  
1459.000000	0.084547  
1458.000000	0.085592  
1457.000000	0.085954  
1456.000000	0.084887  
1455.000000	0.082828  
1454.000000	0.080436  
1453.000000	0.077797  
1452.000000	0.074932  
1451.000000	0.072088  
1450.000000	0.069468  
1449.000000	0.066880  
1448.000000	0.064049  
1447.000000	0.061035  
1446.000000	0.058003  
1445.000000	0.054867  
1444.000000	0.051476  
1443.000000	0.047886  
1442.000000	0.044329  
1441.000000	0.041044  
1440.000000	0.038130  
1439.000000	0.035447  
1438.000000	0.032652  
1437.000000	0.029599  
1436.000000	0.026759  
1435.000000	0.024596  
1434.000000	0.022883  
1433.000000	0.021184  
1432.000000	0.019373  
1431.000000	0.017600  
1430.000000	0.016026  
1429.000000	0.014718  
1428.000000	0.013722  
1427.000000	0.013014  
1426.000000	0.012439  
1425.000000	0.011859  
1424.000000	0.011314  
1423.000000	0.010908  
1422.000000	0.010600  
1421.000000	0.010244  
1420.000000	0.009811  
1419.000000	0.009427  
1418.000000	0.009157  
1417.000000	0.008965  
1416.000000	0.008837  
1415.000000	0.008767  
1414.000000	0.008697  
1413.000000	0.008581  
1412.000000	0.008428  
1411.000000	0.008260  
1410.000000	0.008075  
1409.000000	0.007895  
1408.000000	0.007794  
1407.000000	0.007805  
1406.000000	0.007855  
1405.000000	0.007866  
1404.000000	0.007871  
1403.000000	0.007924  
1402.000000	0.007981  
1401.000000	0.007980  
1400.000000	0.007969  
1399.000000	0.008033  
1398.000000	0.008161  
1397.000000	0.008312  
1396.000000	0.008529  
1395.000000	0.008858  
1394.000000	0.009258  
1393.000000	0.009691  
1392.000000	0.010213  
1391.000000	0.010900  
1390.000000	0.011825  
1389.000000	0.013153  
1388.000000	0.015146  
1387.000000	0.017824  
1386.000000	0.020805  
1385.000000	0.023770  
1384.000000	0.026803  
1383.000000	0.030179  
1382.000000	0.034078  
1381.000000	0.038449  
1380.000000	0.042906  
1379.000000	0.046652  
1378.000000	0.048817  
1377.000000	0.048999  
1376.000000	0.047290  
1375.000000	0.044013  
1374.000000	0.039810  
1373.000000	0.035623  
1372.000000	0.032144  
1371.000000	0.029541  
1370.000000	0.027759  
1369.000000	0.026736  
1368.000000	0.026278  
1367.000000	0.025970  
1366.000000	0.025349  
1365.000000	0.024136  
1364.000000	0.022330  
1363.000000	0.020225  
1362.000000	0.018281  
1361.000000	0.016800  
1360.000000	0.015780  
1359.000000	0.015067  
1358.000000	0.014533  
1357.000000	0.014125  
1356.000000	0.013842  
1355.000000	0.013683  
1354.000000	0.013609  
1353.000000	0.013563  
1352.000000	0.013511  
1351.000000	0.013457  
1350.000000	0.013404  
1349.000000	0.013340  
1348.000000	0.013235  
1347.000000	0.013066  
1346.000000	0.012861  
1345.000000	0.012700  
1344.000000	0.012650  
1343.000000	0.012688  
1342.000000	0.012713  
1341.000000	0.012649  
1340.000000	0.012493  
1339.000000	0.012275  
1338.000000	0.012010  
1337.000000	0.011708  
1336.000000	0.011401  
1335.000000	0.011116  
1334.000000	0.010845  
1333.000000	0.010580  
1332.000000	0.010344  
1331.000000	0.010168  
1330.000000	0.010036  
1329.000000	0.009910  
1328.000000	0.009781  
1327.000000	0.009664  
1326.000000	0.009554  
1325.000000	0.009442  
1324.000000	0.009336  
1323.000000	0.009258  
1322.000000	0.009215  
1321.000000	0.009199  
1320.000000	0.009215  
1319.000000	0.009263  
1318.000000	0.009318  
1317.000000	0.009357  
1316.000000	0.009397  
1315.000000	0.009476  
1314.000000	0.009602  
1313.000000	0.009739  
1312.000000	0.009854  
1311.000000	0.009946  
1310.000000	0.010030  
1309.000000	0.010118  
1308.000000	0.010224  
1307.000000	0.010356  
1306.000000	0.010491  
1305.000000	0.010581  
1304.000000	0.010582  
1303.000000	0.010489  
1302.000000	0.010350  
1301.000000	0.010236  
1300.000000	0.010182  
1299.000000	0.010163  
1298.000000	0.010119  
1297.000000	0.010017  
1296.000000	0.009875  
1295.000000	0.009726  
1294.000000	0.009575  
1293.000000	0.009409  
1292.000000	0.009239  
1291.000000	0.009103  
1290.000000	0.009028  
1289.000000	0.008999  
1288.000000	0.008977  
1287.000000	0.008940  
1286.000000	0.008897  
1285.000000	0.008872  
1284.000000	0.008865  
1283.000000	0.008855  
1282.000000	0.008823  
1281.000000	0.008782  
1280.000000	0.008750  
1279.000000	0.008724  
1278.000000	0.008687  
1277.000000	0.008645  
1276.000000	0.008631  
1275.000000	0.008662  
1274.000000	0.008717  
1273.000000	0.008772  
1272.000000	0.008822  
1271.000000	0.008858  
1270.000000	0.008858  
1269.000000	0.008821  
1268.000000	0.008774  
1267.000000	0.008737  
1266.000000	0.008678  
1265.000000	0.008551  
1264.000000	0.008368  
1263.000000	0.008205  
1262.000000	0.008136  
1261.000000	0.008171  
1260.000000	0.008253  
1259.000000	0.008306  
1258.000000	0.008287  
1257.000000	0.008198  
1256.000000	0.008071  
1255.000000	0.007942  
1254.000000	0.007859  
1253.000000	0.007872  
1252.000000	0.007987  
1251.000000	0.008126  
1250.000000	0.008171  
1249.000000	0.008087  
1248.000000	0.007959  
1247.000000	0.007899  
1246.000000	0.007927  
1245.000000	0.007972  
1244.000000	0.007962  
1243.000000	0.007885  
1242.000000	0.007784  
1241.000000	0.007715  
1240.000000	0.007707  
1239.000000	0.007734  
1238.000000	0.007737  
1237.000000	0.007679  
1236.000000	0.007584  
1235.000000	0.007493  
1234.000000	0.007403  
1233.000000	0.007282  
1232.000000	0.007138  
1231.000000	0.007013  
1230.000000	0.006929  
1229.000000	0.006864  
1228.000000	0.006796  
1227.000000	0.006746  
1226.000000	0.006738  
1225.000000	0.006767  
1224.000000	0.006807  
1223.000000	0.006846  
1222.000000	0.006875  
1221.000000	0.006864  
1220.000000	0.006791  
1219.000000	0.006689  
1218.000000	0.006644  
1217.000000	0.006710  
1216.000000	0.006846  
1215.000000	0.006956  
1214.000000	0.006973  
1213.000000	0.006913  
1212.000000	0.006843  
1211.000000	0.006826  
1210.000000	0.006872  
1209.000000	0.006931  
1208.000000	0.006934  
1207.000000	0.006853  
1206.000000	0.006743  
1205.000000	0.006684  
1204.000000	0.006691  
1203.000000	0.006705  
1202.000000	0.006682  
1201.000000	0.006644  
1200.000000	0.006640  
1199.000000	0.006677  
1198.000000	0.006731  
1197.000000	0.006798  
1196.000000	0.006894  
1195.000000	0.007023  
1194.000000	0.007183  
1193.000000	0.007373  
1192.000000	0.007570  
1191.000000	0.007702  
1190.000000	0.007704  
1189.000000	0.007606  
1188.000000	0.007512  
1187.000000	0.007490  
1186.000000	0.007532  
1185.000000	0.007610  
1184.000000	0.007721  
1183.000000	0.007865  
1182.000000	0.008014  
1181.000000	0.008144  
1180.000000	0.008263  
1179.000000	0.008383  
1178.000000	0.008502  
1177.000000	0.008621  
1176.000000	0.008762  
1175.000000	0.008930  
1174.000000	0.009100  
1173.000000	0.009249  
1172.000000	0.009387  
1171.000000	0.009526  
1170.000000	0.009645  
1169.000000	0.009707  
1168.000000	0.009694  
1167.000000	0.009615  
1166.000000	0.009497  
1165.000000	0.009371  
1164.000000	0.009256  
1163.000000	0.009149  
1162.000000	0.009049  
1161.000000	0.009001  
1160.000000	0.009055  
1159.000000	0.009192  
1158.000000	0.009305  
1157.000000	0.009298  
1156.000000	0.009170  
1155.000000	0.008978  
1154.000000	0.008766  
1153.000000	0.008548  
1152.000000	0.008344  
1151.000000	0.008179  
1150.000000	0.008073  
1149.000000	0.008042  
1148.000000	0.008095  
1147.000000	0.008203  
1146.000000	0.008297  
1145.000000	0.008314  
1144.000000	0.008230  
1143.000000	0.008063  
1142.000000	0.007843  
1141.000000	0.007612  
1140.000000	0.007408  
1139.000000	0.007251  
1138.000000	0.007147  
1137.000000	0.007120  
1136.000000	0.007182  
1135.000000	0.007257  
1134.000000	0.007226  
1133.000000	0.007053  
1132.000000	0.006848  
1131.000000	0.006735  
1130.000000	0.006721  
1129.000000	0.006736  
1128.000000	0.006749  
1127.000000	0.006775  
1126.000000	0.006796  
1125.000000	0.006768  
1124.000000	0.006695  
1123.000000	0.006639  
1122.000000	0.006630  
1121.000000	0.006641  
1120.000000	0.006640  
1119.000000	0.006635  
1118.000000	0.006655  
1117.000000	0.006710  
1116.000000	0.006792  
1115.000000	0.006870  
1114.000000	0.006891  
1113.000000	0.006830  
1112.000000	0.006729  
1111.000000	0.006654  
1110.000000	0.006606  
1109.000000	0.006537  
1108.000000	0.006444  
1107.000000	0.006403  
1106.000000	0.006472  
1105.000000	0.006604  
1104.000000	0.006683  
1103.000000	0.006643  
1102.000000	0.006523  
1101.000000	0.006435  
1100.000000	0.006465  
1099.000000	0.006609  
1098.000000	0.006777  
1097.000000	0.006894  
1096.000000	0.006969  
1095.000000	0.007051  
1094.000000	0.007130  
1093.000000	0.007140  
1092.000000	0.007062  
1091.000000	0.006958  
1090.000000	0.006888  
1089.000000	0.006832  
1088.000000	0.006733  
1087.000000	0.006594  
1086.000000	0.006485  
1085.000000	0.006458  
1084.000000	0.006491  
1083.000000	0.006516  
1082.000000	0.006490  
1081.000000	0.006433  
1080.000000	0.006420  
1079.000000	0.006515  
1078.000000	0.006703  
1077.000000	0.006907  
1076.000000	0.007069  
1075.000000	0.007211  
1074.000000	0.007384  
1073.000000	0.007574  
1072.000000	0.007699  
1071.000000	0.007694  
1070.000000	0.007590  
1069.000000	0.007482  
1068.000000	0.007426  
1067.000000	0.007398  
1066.000000	0.007361  
1065.000000	0.007330  
1064.000000	0.007362  
1063.000000	0.007466  
1062.000000	0.007566  
1061.000000	0.007573  
1060.000000	0.007472  
1059.000000	0.007333  
1058.000000	0.007234  
1057.000000	0.007217  
1056.000000	0.007301  
1055.000000	0.007480  
1054.000000	0.007670  
1053.000000	0.007701  
1052.000000	0.007446  
1051.000000	0.006985  
1050.000000	0.006597  
1049.000000	0.006509  
1048.000000	0.006687  
1047.000000	0.006919  
1046.000000	0.007044  
1045.000000	0.007063  
1044.000000	0.007068  
1043.000000	0.007133  
1042.000000	0.007277  
1041.000000	0.007464  
1040.000000	0.007625  
1039.000000	0.007688  
1038.000000	0.007623  
1037.000000	0.007469  
1036.000000	0.007316  
1035.000000	0.007259  
1034.000000	0.007354  
1033.000000	0.007583  
1032.000000	0.007847  
1031.000000	0.008021  
1030.000000	0.008048  
1029.000000	0.007979  
1028.000000	0.007905  
1027.000000	0.007873  
1026.000000	0.007875  
1025.000000	0.007888  
1024.000000	0.007895  
1023.000000	0.007878  
1022.000000	0.007834  
1021.000000	0.007786  
1020.000000	0.007745  
1019.000000	0.007695  
1018.000000	0.007619  
1017.000000	0.007557  
1016.000000	0.007566  
1015.000000	0.007644  
1014.000000	0.007725  
1013.000000	0.007748  
1012.000000	0.007708  
1011.000000	0.007638  
1010.000000	0.007573  
1009.000000	0.007549  
1008.000000	0.007592  
1007.000000	0.007683  
1006.000000	0.007768  
1005.000000	0.007803  
1004.000000	0.007798  
1003.000000	0.007790  
1002.000000	0.007807  
1001.000000	0.007845  
1000.000000	0.007847  
999.000000	 0.007736  
998.000000	 0.007487  
997.000000	 0.007205  
996.000000	 0.007059  
995.000000	 0.007131  
994.000000	 0.007329  
993.000000	 0.007485  
992.000000	 0.007505  
991.000000	 0.007424  
990.000000	 0.007352  
989.000000	 0.007385  
988.000000	 0.007539  
987.000000	 0.007724  
986.000000	 0.007819  
985.000000	 0.007787  
984.000000	 0.007713  
983.000000	 0.007701  
982.000000	 0.007767  
981.000000	 0.007852  
980.000000	 0.007922  
979.000000	 0.007994  
978.000000	 0.008101  
977.000000	 0.008247  
976.000000	 0.008410  
975.000000	 0.008555  
974.000000	 0.008659  
973.000000	 0.008728  
972.000000	 0.008807  
971.000000	 0.008939  
970.000000	 0.009119  
969.000000	 0.009299  
968.000000	 0.009428  
967.000000	 0.009471  
966.000000	 0.009414  
965.000000	 0.009274  
964.000000	 0.009102  
963.000000	 0.008953  
962.000000	 0.008864  
961.000000	 0.008847  
960.000000	 0.008889  
959.000000	 0.008942  
958.000000	 0.008951  
957.000000	 0.008908  
956.000000	 0.008866  
955.000000	 0.008857  
954.000000	 0.008835  
953.000000	 0.008746  
952.000000	 0.008623  
951.000000	 0.008568  
950.000000	 0.008625  
949.000000	 0.008735  
948.000000	 0.008812  
947.000000	 0.008841  
946.000000	 0.008872  
945.000000	 0.008953  
944.000000	 0.009084  
943.000000	 0.009220  
942.000000	 0.009294  
941.000000	 0.009252  
940.000000	 0.009080  
939.000000	 0.008815  
938.000000	 0.008537  
937.000000	 0.008332  
936.000000	 0.008234  
935.000000	 0.008206  
934.000000	 0.008183  
933.000000	 0.008156  
932.000000	 0.008174  
931.000000	 0.008251  
930.000000	 0.008308  
929.000000	 0.008263  
928.000000	 0.008153  
927.000000	 0.008109  
926.000000	 0.008196  
925.000000	 0.008343  
924.000000	 0.008443  
923.000000	 0.008481  
922.000000	 0.008512  
921.000000	 0.008554  
920.000000	 0.008550  
919.000000	 0.008451  
918.000000	 0.008297  
917.000000	 0.008195  
916.000000	 0.008209  
915.000000	 0.008298  
914.000000	 0.008347  
913.000000	 0.008274  
912.000000	 0.008101  
911.000000	 0.007932  
910.000000	 0.007872  
909.000000	 0.007961  
908.000000	 0.008146  
907.000000	 0.008311  
906.000000	 0.008342  
905.000000	 0.008224  
904.000000	 0.008064  
903.000000	 0.007998  
902.000000	 0.008068  
901.000000	 0.008201  
900.000000	 0.008317  
899.000000	 0.008412  
898.000000	 0.008524  
897.000000	 0.008661  
896.000000	 0.008786  
895.000000	 0.008866  
894.000000	 0.008900  
893.000000	 0.008910  
892.000000	 0.008926  
891.000000	 0.008981  
890.000000	 0.009095  
889.000000	 0.009242  
888.000000	 0.009355  
887.000000	 0.009361  
886.000000	 0.009235  
885.000000	 0.009016  
884.000000	 0.008771  
883.000000	 0.008570  
882.000000	 0.008468  
881.000000	 0.008484  
880.000000	 0.008592  
879.000000	 0.008731  
878.000000	 0.008840  
877.000000	 0.008890  
876.000000	 0.008873  
875.000000	 0.008800  
874.000000	 0.008690  
873.000000	 0.008557  
872.000000	 0.008389  
871.000000	 0.008182  
870.000000	 0.008001  
869.000000	 0.007968  
868.000000	 0.008126  
867.000000	 0.008351  
866.000000	 0.008453  
865.000000	 0.008373  
864.000000	 0.008218  
863.000000	 0.008106  
862.000000	 0.008041  
861.000000	 0.007989  
860.000000	 0.007972  
859.000000	 0.008035  
858.000000	 0.008139  
857.000000	 0.008200  
856.000000	 0.008230  
855.000000	 0.008356  
854.000000	 0.008662  
853.000000	 0.009069  
852.000000	 0.009421  
851.000000	 0.009655  
850.000000	 0.009815  
849.000000	 0.009935  
848.000000	 0.009967  
847.000000	 0.009861  
846.000000	 0.009656  
845.000000	 0.009443  
844.000000	 0.009261  
843.000000	 0.009087  
842.000000	 0.008906  
841.000000	 0.008755  
840.000000	 0.008676  
839.000000	 0.008688  
838.000000	 0.008797  
837.000000	 0.008975  
836.000000	 0.009092  
835.000000	 0.008954  
834.000000	 0.008502  
833.000000	 0.007952  
832.000000	 0.007628  
831.000000	 0.007644  
830.000000	 0.007817  
829.000000	 0.007926  
828.000000	 0.007982  
827.000000	 0.008159  
826.000000	 0.008524  
825.000000	 0.008945  
824.000000	 0.009243  
823.000000	 0.009343  
822.000000	 0.009286  
821.000000	 0.009186  
820.000000	 0.009177  
819.000000	 0.009331  
818.000000	 0.009613  
817.000000	 0.009931  
816.000000	 0.010215  
815.000000	 0.010418  
814.000000	 0.010496  
813.000000	 0.010434  
812.000000	 0.010297  
811.000000	 0.010210  
810.000000	 0.010277  
809.000000	 0.010536  
808.000000	 0.010959  
807.000000	 0.011448  
806.000000	 0.011837  
805.000000	 0.011959  
804.000000	 0.011759  
803.000000	 0.011317  
802.000000	 0.010772  
801.000000	 0.010229  
800.000000	 0.009748  
799.000000	 0.009362  
798.000000	 0.009079  
797.000000	 0.008893  
796.000000	 0.008783  
795.000000	 0.008710  
794.000000	 0.008617  
793.000000	 0.008493  
792.000000	 0.008423  
791.000000	 0.008521  
790.000000	 0.008778  
789.000000	 0.009016  
788.000000	 0.009056  
787.000000	 0.008918  
786.000000	 0.008819  
785.000000	 0.008961  
784.000000	 0.009340  
783.000000	 0.009790  
782.000000	 0.010179  
781.000000	 0.010516  
780.000000	 0.010861  
779.000000	 0.011204  
778.000000	 0.011481  
777.000000	 0.011701  
776.000000	 0.011970  
775.000000	 0.012369  
774.000000	 0.012852  
773.000000	 0.013299  
772.000000	 0.013643  
771.000000	 0.013893  
770.000000	 0.014077  
769.000000	 0.014198  
768.000000	 0.014250  
767.000000	 0.014206  
766.000000	 0.013997  
765.000000	 0.013568  
764.000000	 0.012989  
763.000000	 0.012470  
762.000000	 0.012220  
761.000000	 0.012276  
760.000000	 0.012491  
759.000000	 0.012675  
758.000000	 0.012759  
757.000000	 0.012812  
756.000000	 0.012943  
755.000000	 0.013185  
754.000000	 0.013467  
753.000000	 0.013675  
752.000000	 0.013738  
751.000000	 0.013664  
750.000000	 0.013528  
749.000000	 0.013452  
748.000000	 0.013563  
747.000000	 0.013983  
746.000000	 0.014818  
745.000000	 0.016122  
744.000000	 0.017804  
743.000000	 0.019561  
742.000000	 0.020939  
741.000000	 0.021584  
740.000000	 0.021464  
739.000000	 0.020866  
738.000000	 0.020145  
737.000000	 0.019502  
736.000000	 0.018957  
735.000000	 0.018480  
734.000000	 0.018098  
733.000000	 0.017894  
732.000000	 0.017919  
731.000000	 0.018139  
730.000000	 0.018483  
729.000000	 0.018953  
728.000000	 0.019630  
727.000000	 0.020561  
726.000000	 0.021659  
725.000000	 0.022743  
724.000000	 0.023671  
723.000000	 0.024386  
722.000000	 0.024792  
721.000000	 0.024623  
720.000000	 0.023570  
719.000000	 0.021650  
718.000000	 0.019343  
717.000000	 0.017285  
716.000000	 0.015848  
715.000000	 0.014970  
714.000000	 0.014308  
713.000000	 0.013591  
712.000000	 0.012802  
711.000000	 0.012087  
710.000000	 0.011572  
709.000000	 0.011301  
708.000000	 0.011245  
707.000000	 0.011315  
706.000000	 0.011437  
705.000000	 0.011649  
704.000000	 0.012031  
703.000000	 0.012521  
702.000000	 0.012895  
701.000000	 0.013017  
700.000000	 0.013004  
699.000000	 0.013000  
698.000000	 0.012864  
697.000000	 0.012291  
696.000000	 0.011276  
695.000000	 0.010279  
694.000000	 0.009775  
693.000000	 0.009734  
692.000000	 0.009671  
691.000000	 0.009174  
690.000000	 0.008281  
689.000000	 0.007331  
688.000000	 0.006559  
687.000000	 0.005936  
686.000000	 0.005375  
685.000000	 0.004944  
684.000000	 0.004777  
683.000000	 0.004892  
682.000000	 0.005169  
681.000000	 0.005455  
680.000000	 0.005620  
679.000000	 0.005578  
678.000000	 0.005380  
677.000000	 0.005259  
676.000000	 0.005332  
675.000000	 0.005423  
674.000000	 0.005322  
673.000000	 0.005038  
672.000000	 0.004575  
671.000000	 0.003527  
670.000000	 0.001380  
669.000000	 -0.001961 
668.000000	 -0.004826 
667.000000	 -0.004100 
666.000000	 -0.000793 
665.000000	 0.002085  
664.000000	 0.003741  
663.000000	 0.004608  
662.000000	 0.005071  
661.000000	 0.005175  
660.000000	 0.005069  
659.000000	 0.005115  
658.000000	 0.005331  
657.000000	 0.005189  
656.000000	 0.004247  
655.000000	 0.002884  
654.000000	 0.002046  
653.000000	 0.002224  
652.000000	 0.003035  
651.000000	 0.003778  
650.000000	 0.004145  

