PE IR                   SPECTRUM    ASCII       PEDS        1.60        
  -1
NB4-00~4.ASC
17/04/10
13:04:46.00
17/04/10
13:04:46.00
Admin

650.000000
6









SPECTRUM ONE,CPU32 MAIN 00.02.5000 17-APRIL-2002 13:00:00
MIR TGS
MIR
OPTKBR
68128
0.200000

4.000000
STRONG
RATIO
SPECTRUM
MAGNITUDE

DOUBLE

COMBINED


0


#HDR
-1
-1
#GR
CM-1
A
0.00000011920928955078
0.0
4000.000000
-1.000000
3351
8
0.220366
-0.001246
#DATA
4000.000000	0.000656  
3999.000000	0.000851  
3998.000000	0.001046  
3997.000000	0.001241  
3996.000000	0.001436  
3995.000000	0.001594  
3994.000000	0.001681  
3993.000000	0.001714  
3992.000000	0.001648  
3991.000000	0.001525  
3990.000000	0.001378  
3989.000000	0.001235  
3988.000000	0.001106  
3987.000000	0.001003  
3986.000000	0.000950  
3985.000000	0.000969  
3984.000000	0.001033  
3983.000000	0.001058  
3982.000000	0.000978  
3981.000000	0.000820  
3980.000000	0.000690  
3979.000000	0.000680  
3978.000000	0.000793  
3977.000000	0.000957  
3976.000000	0.001109  
3975.000000	0.001237  
3974.000000	0.001343  
3973.000000	0.001398  
3972.000000	0.001346  
3971.000000	0.001183  
3970.000000	0.000984  
3969.000000	0.000844  
3968.000000	0.000792  
3967.000000	0.000782  
3966.000000	0.000767  
3965.000000	0.000759  
3964.000000	0.000808  
3963.000000	0.000933  
3962.000000	0.001097  
3961.000000	0.001241  
3960.000000	0.001337  
3959.000000	0.001379  
3958.000000	0.001371  
3957.000000	0.001313  
3956.000000	0.001221  
3955.000000	0.001131  
3954.000000	0.001082  
3953.000000	0.001087  
3952.000000	0.001126  
3951.000000	0.001163  
3950.000000	0.001181  
3949.000000	0.001197  
3948.000000	0.001248  
3947.000000	0.001343  
3946.000000	0.001445  
3945.000000	0.001491  
3944.000000	0.001443  
3943.000000	0.001306  
3942.000000	0.001136  
3941.000000	0.001000  
3940.000000	0.000946  
3939.000000	0.000984  
3938.000000	0.001086  
3937.000000	0.001204  
3936.000000	0.001294  
3935.000000	0.001348  
3934.000000	0.001392  
3933.000000	0.001461  
3932.000000	0.001552  
3931.000000	0.001629  
3930.000000	0.001667  
3929.000000	0.001679  
3928.000000	0.001700  
3927.000000	0.001738  
3926.000000	0.001753  
3925.000000	0.001697  
3924.000000	0.001573  
3923.000000	0.001457  
3922.000000	0.001430  
3921.000000	0.001508  
3920.000000	0.001625  
3919.000000	0.001684  
3918.000000	0.001634  
3917.000000	0.001505  
3916.000000	0.001378  
3915.000000	0.001320  
3914.000000	0.001329  
3913.000000	0.001349  
3912.000000	0.001312  
3911.000000	0.001203  
3910.000000	0.001093  
3909.000000	0.001074  
3908.000000	0.001181  
3907.000000	0.001370  
3906.000000	0.001560  
3905.000000	0.001691  
3904.000000	0.001748  
3903.000000	0.001725  
3902.000000	0.001637  
3901.000000	0.001551  
3900.000000	0.001562  
3899.000000	0.001689  
3898.000000	0.001832  
3897.000000	0.001865  
3896.000000	0.001751  
3895.000000	0.001550  
3894.000000	0.001366  
3893.000000	0.001268  
3892.000000	0.001247  
3891.000000	0.001225  
3890.000000	0.001156  
3889.000000	0.001070  
3888.000000	0.001059  
3887.000000	0.001177  
3886.000000	0.001364  
3885.000000	0.001499  
3884.000000	0.001526  
3883.000000	0.001483  
3882.000000	0.001424  
3881.000000	0.001329  
3880.000000	0.001166  
3879.000000	0.000973  
3878.000000	0.000851  
3877.000000	0.000894  
3876.000000	0.001117  
3875.000000	0.001423  
3874.000000	0.001675  
3873.000000	0.001826  
3872.000000	0.001932  
3871.000000	0.002050  
3870.000000	0.002147  
3869.000000	0.002154  
3868.000000	0.002053  
3867.000000	0.001909  
3866.000000	0.001801  
3865.000000	0.001718  
3864.000000	0.001609  
3863.000000	0.001485  
3862.000000	0.001396  
3861.000000	0.001332  
3860.000000	0.001242  
3859.000000	0.001137  
3858.000000	0.001098  
3857.000000	0.001177  
3856.000000	0.001327  
3855.000000	0.001453  
3854.000000	0.001548  
3853.000000	0.001717  
3852.000000	0.001961  
3851.000000	0.002192  
3850.000000	0.002398  
3849.000000	0.002532  
3848.000000	0.002510  
3847.000000	0.002343  
3846.000000	0.002142  
3845.000000	0.002020  
3844.000000	0.002033  
3843.000000	0.002173  
3842.000000	0.002373  
3841.000000	0.002530  
3840.000000	0.002566  
3839.000000	0.002462  
3838.000000	0.002270  
3837.000000	0.002083  
3836.000000	0.001971  
3835.000000	0.001952  
3834.000000	0.001998  
3833.000000	0.002036  
3832.000000	0.001994  
3831.000000	0.001863  
3830.000000	0.001712  
3829.000000	0.001618  
3828.000000	0.001585  
3827.000000	0.001540  
3826.000000	0.001422  
3825.000000	0.001286  
3824.000000	0.001288  
3823.000000	0.001555  
3822.000000	0.001975  
3821.000000	0.002204  
3820.000000	0.002010  
3819.000000	0.001501  
3818.000000	0.001015  
3817.000000	0.000840  
3816.000000	0.001028  
3815.000000	0.001402  
3814.000000	0.001738  
3813.000000	0.001931  
3812.000000	0.001965  
3811.000000	0.001819  
3810.000000	0.001499  
3809.000000	0.001123  
3808.000000	0.000871  
3807.000000	0.000850  
3806.000000	0.001022  
3805.000000	0.001273  
3804.000000	0.001535  
3803.000000	0.001754  
3802.000000	0.001850  
3801.000000	0.001809  
3800.000000	0.001714  
3799.000000	0.001661  
3798.000000	0.001697  
3797.000000	0.001775  
3796.000000	0.001793  
3795.000000	0.001725  
3794.000000	0.001635  
3793.000000	0.001586  
3792.000000	0.001569  
3791.000000	0.001531  
3790.000000	0.001447  
3789.000000	0.001359  
3788.000000	0.001315  
3787.000000	0.001322  
3786.000000	0.001339  
3785.000000	0.001321  
3784.000000	0.001260  
3783.000000	0.001186  
3782.000000	0.001128  
3781.000000	0.001088  
3780.000000	0.001037  
3779.000000	0.000961  
3778.000000	0.000901  
3777.000000	0.000926  
3776.000000	0.001051  
3775.000000	0.001205  
3774.000000	0.001273  
3773.000000	0.001195  
3772.000000	0.001047  
3771.000000	0.000995  
3770.000000	0.001142  
3769.000000	0.001405  
3768.000000	0.001600  
3767.000000	0.001602  
3766.000000	0.001425  
3765.000000	0.001189  
3764.000000	0.001025  
3763.000000	0.001006  
3762.000000	0.001126  
3761.000000	0.001307  
3760.000000	0.001436  
3759.000000	0.001458  
3758.000000	0.001409  
3757.000000	0.001350  
3756.000000	0.001307  
3755.000000	0.001327  
3754.000000	0.001535  
3753.000000	0.002033  
3752.000000	0.002676  
3751.000000	0.003085  
3750.000000	0.003048  
3749.000000	0.002753  
3748.000000	0.002502  
3747.000000	0.002478  
3746.000000	0.002683  
3745.000000	0.002903  
3744.000000	0.002906  
3743.000000	0.002673  
3742.000000	0.002360  
3741.000000	0.002193  
3740.000000	0.002266  
3739.000000	0.002473  
3738.000000	0.002718  
3737.000000	0.002906  
3736.000000	0.002896  
3735.000000	0.002668  
3734.000000	0.002390  
3733.000000	0.002221  
3732.000000	0.002131  
3731.000000	0.002006  
3730.000000	0.001837  
3729.000000	0.001722  
3728.000000	0.001721  
3727.000000	0.001779  
3726.000000	0.001809  
3725.000000	0.001783  
3724.000000	0.001736  
3723.000000	0.001694  
3722.000000	0.001623  
3721.000000	0.001475  
3720.000000	0.001267  
3719.000000	0.001075  
3718.000000	0.000965  
3717.000000	0.000940  
3716.000000	0.000934  
3715.000000	0.000871  
3714.000000	0.000726  
3713.000000	0.000561  
3712.000000	0.000502  
3711.000000	0.000619  
3710.000000	0.000848  
3709.000000	0.001083  
3708.000000	0.001286  
3707.000000	0.001485  
3706.000000	0.001704  
3705.000000	0.001887  
3704.000000	0.001905  
3703.000000	0.001675  
3702.000000	0.001274  
3701.000000	0.000897  
3700.000000	0.000706  
3699.000000	0.000729  
3698.000000	0.000891  
3697.000000	0.001068  
3696.000000	0.001154  
3695.000000	0.001120  
3694.000000	0.001020  
3693.000000	0.000920  
3692.000000	0.000831  
3691.000000	0.000750  
3690.000000	0.000732  
3689.000000	0.000862  
3688.000000	0.001128  
3687.000000	0.001391  
3686.000000	0.001531  
3685.000000	0.001558  
3684.000000	0.001548  
3683.000000	0.001511  
3682.000000	0.001395  
3681.000000	0.001152  
3680.000000	0.000804  
3679.000000	0.000484  
3678.000000	0.000389  
3677.000000	0.000658  
3676.000000	0.001185  
3675.000000	0.001671  
3674.000000	0.001938  
3673.000000	0.002078  
3672.000000	0.002268  
3671.000000	0.002520  
3670.000000	0.002673  
3669.000000	0.002616  
3668.000000	0.002408  
3667.000000	0.002164  
3666.000000	0.001929  
3665.000000	0.001663  
3664.000000	0.001323  
3663.000000	0.000926  
3662.000000	0.000555  
3661.000000	0.000300  
3660.000000	0.000194  
3659.000000	0.000229  
3658.000000	0.000391  
3657.000000	0.000658  
3656.000000	0.000966  
3655.000000	0.001217  
3654.000000	0.001353  
3653.000000	0.001387  
3652.000000	0.001340  
3651.000000	0.001210  
3650.000000	0.001025  
3649.000000	0.000888  
3648.000000	0.000919  
3647.000000	0.001126  
3646.000000	0.001355  
3645.000000	0.001470  
3644.000000	0.001505  
3643.000000	0.001571  
3642.000000	0.001709  
3641.000000	0.001856  
3640.000000	0.001915  
3639.000000	0.001840  
3638.000000	0.001670  
3637.000000	0.001488  
3636.000000	0.001370  
3635.000000	0.001344  
3634.000000	0.001368  
3633.000000	0.001365  
3632.000000	0.001308  
3631.000000	0.001276  
3630.000000	0.001401  
3629.000000	0.001694  
3628.000000	0.001963  
3627.000000	0.002032  
3626.000000	0.001948  
3625.000000	0.001865  
3624.000000	0.001870  
3623.000000	0.001948  
3622.000000	0.002016  
3621.000000	0.001966  
3620.000000	0.001747  
3619.000000	0.001449  
3618.000000	0.001230  
3617.000000	0.001173  
3616.000000	0.001243  
3615.000000	0.001356  
3614.000000	0.001442  
3613.000000	0.001489  
3612.000000	0.001536  
3611.000000	0.001634  
3610.000000	0.001775  
3609.000000	0.001875  
3608.000000	0.001841  
3607.000000	0.001659  
3606.000000	0.001395  
3605.000000	0.001130  
3604.000000	0.000920  
3603.000000	0.000826  
3602.000000	0.000919  
3601.000000	0.001219  
3600.000000	0.001643  
3599.000000	0.002023  
3598.000000	0.002200  
3597.000000	0.002120  
3596.000000	0.001879  
3595.000000	0.001661  
3594.000000	0.001584  
3593.000000	0.001604  
3592.000000	0.001594  
3591.000000	0.001506  
3590.000000	0.001425  
3589.000000	0.001485  
3588.000000	0.001707  
3587.000000	0.001953  
3586.000000	0.002072  
3585.000000	0.002010  
3584.000000	0.001779  
3583.000000	0.001451  
3582.000000	0.001166  
3581.000000	0.001062  
3580.000000	0.001175  
3579.000000	0.001387  
3578.000000	0.001505  
3577.000000	0.001423  
3576.000000	0.001202  
3575.000000	0.000982  
3574.000000	0.000819  
3573.000000	0.000658  
3572.000000	0.000447  
3571.000000	0.000256  
3570.000000	0.000250  
3569.000000	0.000532  
3568.000000	0.000992  
3567.000000	0.001377  
3566.000000	0.001563  
3565.000000	0.001631  
3564.000000	0.001659  
3563.000000	0.001636  
3562.000000	0.001545  
3561.000000	0.001440  
3560.000000	0.001427  
3559.000000	0.001565  
3558.000000	0.001784  
3557.000000	0.001921  
3556.000000	0.001855  
3555.000000	0.001604  
3554.000000	0.001296  
3553.000000	0.001068  
3552.000000	0.000970  
3551.000000	0.000959  
3550.000000	0.000956  
3549.000000	0.000919  
3548.000000	0.000865  
3547.000000	0.000858  
3546.000000	0.000956  
3545.000000	0.001149  
3544.000000	0.001355  
3543.000000	0.001490  
3542.000000	0.001540  
3541.000000	0.001562  
3540.000000	0.001595  
3539.000000	0.001609  
3538.000000	0.001525  
3537.000000	0.001318  
3536.000000	0.001074  
3535.000000	0.000935  
3534.000000	0.000983  
3533.000000	0.001183  
3532.000000	0.001424  
3531.000000	0.001603  
3530.000000	0.001663  
3529.000000	0.001609  
3528.000000	0.001487  
3527.000000	0.001354  
3526.000000	0.001241  
3525.000000	0.001130  
3524.000000	0.000998  
3523.000000	0.000869  
3522.000000	0.000805  
3521.000000	0.000837  
3520.000000	0.000925  
3519.000000	0.001004  
3518.000000	0.001046  
3517.000000	0.001071  
3516.000000	0.001101  
3515.000000	0.001139  
3514.000000	0.001174  
3513.000000	0.001200  
3512.000000	0.001221  
3511.000000	0.001253  
3510.000000	0.001306  
3509.000000	0.001359  
3508.000000	0.001365  
3507.000000	0.001303  
3506.000000	0.001214  
3505.000000	0.001169  
3504.000000	0.001204  
3503.000000	0.001285  
3502.000000	0.001360  
3501.000000	0.001398  
3500.000000	0.001393  
3499.000000	0.001360  
3498.000000	0.001332  
3497.000000	0.001332  
3496.000000	0.001344  
3495.000000	0.001328  
3494.000000	0.001259  
3493.000000	0.001135  
3492.000000	0.000965  
3491.000000	0.000773  
3490.000000	0.000626  
3489.000000	0.000597  
3488.000000	0.000710  
3487.000000	0.000919  
3486.000000	0.001167  
3485.000000	0.001416  
3484.000000	0.001607  
3483.000000	0.001652  
3482.000000	0.001509  
3481.000000	0.001260  
3480.000000	0.001051  
3479.000000	0.000964  
3478.000000	0.000963  
3477.000000	0.000967  
3476.000000	0.000944  
3475.000000	0.000930  
3474.000000	0.000969  
3473.000000	0.001055  
3472.000000	0.001120  
3471.000000	0.001093  
3470.000000	0.000960  
3469.000000	0.000764  
3468.000000	0.000568  
3467.000000	0.000425  
3466.000000	0.000375  
3465.000000	0.000411  
3464.000000	0.000460  
3463.000000	0.000427  
3462.000000	0.000293  
3461.000000	0.000151  
3460.000000	0.000112  
3459.000000	0.000206  
3458.000000	0.000396  
3457.000000	0.000640  
3456.000000	0.000886  
3455.000000	0.001052  
3454.000000	0.001072  
3453.000000	0.000974  
3452.000000	0.000862  
3451.000000	0.000807  
3450.000000	0.000805  
3449.000000	0.000830  
3448.000000	0.000888  
3447.000000	0.001001  
3446.000000	0.001156  
3445.000000	0.001311  
3444.000000	0.001417  
3443.000000	0.001439  
3442.000000	0.001372  
3441.000000	0.001276  
3440.000000	0.001248  
3439.000000	0.001325  
3438.000000	0.001420  
3437.000000	0.001388  
3436.000000	0.001155  
3435.000000	0.000806  
3434.000000	0.000534  
3433.000000	0.000499  
3432.000000	0.000709  
3431.000000	0.001004  
3430.000000	0.001178  
3429.000000	0.001116  
3428.000000	0.000848  
3427.000000	0.000500  
3426.000000	0.000218  
3425.000000	0.000112  
3424.000000	0.000214  
3423.000000	0.000451  
3422.000000	0.000692  
3421.000000	0.000834  
3420.000000	0.000868  
3419.000000	0.000842  
3418.000000	0.000807  
3417.000000	0.000790  
3416.000000	0.000798  
3415.000000	0.000821  
3414.000000	0.000852  
3413.000000	0.000913  
3412.000000	0.001047  
3411.000000	0.001247  
3410.000000	0.001417  
3409.000000	0.001427  
3408.000000	0.001234  
3407.000000	0.000930  
3406.000000	0.000669  
3405.000000	0.000554  
3404.000000	0.000592  
3403.000000	0.000722  
3402.000000	0.000879  
3401.000000	0.001021  
3400.000000	0.001103  
3399.000000	0.001083  
3398.000000	0.000965  
3397.000000	0.000838  
3396.000000	0.000842  
3395.000000	0.001049  
3394.000000	0.001397  
3393.000000	0.001720  
3392.000000	0.001865  
3391.000000	0.001790  
3390.000000	0.001577  
3389.000000	0.001360  
3388.000000	0.001219  
3387.000000	0.001133  
3386.000000	0.001043  
3385.000000	0.000955  
3384.000000	0.000960  
3383.000000	0.001124  
3382.000000	0.001394  
3381.000000	0.001635  
3380.000000	0.001747  
3379.000000	0.001709  
3378.000000	0.001536  
3377.000000	0.001249  
3376.000000	0.000905  
3375.000000	0.000621  
3374.000000	0.000514  
3373.000000	0.000602  
3372.000000	0.000793  
3371.000000	0.000969  
3370.000000	0.001084  
3369.000000	0.001177  
3368.000000	0.001291  
3367.000000	0.001407  
3366.000000	0.001473  
3365.000000	0.001473  
3364.000000	0.001438  
3363.000000	0.001386  
3362.000000	0.001313  
3361.000000	0.001232  
3360.000000	0.001189  
3359.000000	0.001201  
3358.000000	0.001221  
3357.000000	0.001193  
3356.000000	0.001130  
3355.000000	0.001089  
3354.000000	0.001083  
3353.000000	0.001070  
3352.000000	0.001019  
3351.000000	0.000942  
3350.000000	0.000863  
3349.000000	0.000801  
3348.000000	0.000796  
3347.000000	0.000897  
3346.000000	0.001085  
3345.000000	0.001257  
3344.000000	0.001309  
3343.000000	0.001241  
3342.000000	0.001147  
3341.000000	0.001104  
3340.000000	0.001095  
3339.000000	0.001061  
3338.000000	0.000989  
3337.000000	0.000942  
3336.000000	0.000982  
3335.000000	0.001096  
3334.000000	0.001201  
3333.000000	0.001228  
3332.000000	0.001174  
3331.000000	0.001087  
3330.000000	0.001015  
3329.000000	0.000990  
3328.000000	0.001035  
3327.000000	0.001148  
3326.000000	0.001288  
3325.000000	0.001400  
3324.000000	0.001463  
3323.000000	0.001491  
3322.000000	0.001482  
3321.000000	0.001409  
3320.000000	0.001283  
3319.000000	0.001188  
3318.000000	0.001209  
3317.000000	0.001329  
3316.000000	0.001424  
3315.000000	0.001376  
3314.000000	0.001190  
3313.000000	0.000982  
3312.000000	0.000876  
3311.000000	0.000925  
3310.000000	0.001093  
3309.000000	0.001286  
3308.000000	0.001388  
3307.000000	0.001326  
3306.000000	0.001134  
3305.000000	0.000954  
3304.000000	0.000915  
3303.000000	0.001024  
3302.000000	0.001175  
3301.000000	0.001261  
3300.000000	0.001260  
3299.000000	0.001199  
3298.000000	0.001105  
3297.000000	0.001008  
3296.000000	0.000950  
3295.000000	0.000951  
3294.000000	0.000981  
3293.000000	0.001007  
3292.000000	0.001051  
3291.000000	0.001149  
3290.000000	0.001263  
3289.000000	0.001295  
3288.000000	0.001200  
3287.000000	0.001034  
3286.000000	0.000881  
3285.000000	0.000766  
3284.000000	0.000667  
3283.000000	0.000585  
3282.000000	0.000558  
3281.000000	0.000615  
3280.000000	0.000736  
3279.000000	0.000868  
3278.000000	0.000962  
3277.000000	0.001005  
3276.000000	0.001043  
3275.000000	0.001147  
3274.000000	0.001352  
3273.000000	0.001604  
3272.000000	0.001793  
3271.000000	0.001837  
3270.000000	0.001735  
3269.000000	0.001546  
3268.000000	0.001315  
3267.000000	0.001066  
3266.000000	0.000835  
3265.000000	0.000707  
3264.000000	0.000753  
3263.000000	0.000943  
3262.000000	0.001146  
3261.000000	0.001255  
3260.000000	0.001291  
3259.000000	0.001354  
3258.000000	0.001484  
3257.000000	0.001608  
3256.000000	0.001612  
3255.000000	0.001469  
3254.000000	0.001263  
3253.000000	0.001130  
3252.000000	0.001141  
3251.000000	0.001250  
3250.000000	0.001349  
3249.000000	0.001384  
3248.000000	0.001399  
3247.000000	0.001449  
3246.000000	0.001504  
3245.000000	0.001489  
3244.000000	0.001410  
3243.000000	0.001359  
3242.000000	0.001397  
3241.000000	0.001477  
3240.000000	0.001511  
3239.000000	0.001447  
3238.000000	0.001279  
3237.000000	0.001027  
3236.000000	0.000764  
3235.000000	0.000590  
3234.000000	0.000560  
3233.000000	0.000638  
3232.000000	0.000760  
3231.000000	0.000901  
3230.000000	0.001042  
3229.000000	0.001140  
3228.000000	0.001171  
3227.000000	0.001188  
3226.000000	0.001265  
3225.000000	0.001401  
3224.000000	0.001527  
3223.000000	0.001600  
3222.000000	0.001620  
3221.000000	0.001584  
3220.000000	0.001472  
3219.000000	0.001308  
3218.000000	0.001170  
3217.000000	0.001127  
3216.000000	0.001183  
3215.000000	0.001298  
3214.000000	0.001428  
3213.000000	0.001540  
3212.000000	0.001618  
3211.000000	0.001676  
3210.000000	0.001735  
3209.000000	0.001786  
3208.000000	0.001803  
3207.000000	0.001785  
3206.000000	0.001775  
3205.000000	0.001812  
3204.000000	0.001895  
3203.000000	0.001994  
3202.000000	0.002073  
3201.000000	0.002084  
3200.000000	0.001976  
3199.000000	0.001747  
3198.000000	0.001461  
3197.000000	0.001202  
3196.000000	0.001017  
3195.000000	0.000913  
3194.000000	0.000894  
3193.000000	0.000957  
3192.000000	0.001078  
3191.000000	0.001239  
3190.000000	0.001444  
3189.000000	0.001694  
3188.000000	0.001928  
3187.000000	0.002046  
3186.000000	0.002020  
3185.000000	0.001928  
3184.000000	0.001868  
3183.000000	0.001839  
3182.000000	0.001762  
3181.000000	0.001605  
3180.000000	0.001431  
3179.000000	0.001327  
3178.000000	0.001315  
3177.000000	0.001369  
3176.000000	0.001471  
3175.000000	0.001612  
3174.000000	0.001743  
3173.000000	0.001791  
3172.000000	0.001737  
3171.000000	0.001652  
3170.000000	0.001628  
3169.000000	0.001691  
3168.000000	0.001799  
3167.000000	0.001896  
3166.000000	0.001957  
3165.000000	0.001983  
3164.000000	0.001994  
3163.000000	0.002004  
3162.000000	0.002002  
3161.000000	0.001960  
3160.000000	0.001879  
3159.000000	0.001805  
3158.000000	0.001794  
3157.000000	0.001851  
3156.000000	0.001935  
3155.000000	0.002011  
3154.000000	0.002080  
3153.000000	0.002152  
3152.000000	0.002214  
3151.000000	0.002224  
3150.000000	0.002147  
3149.000000	0.001990  
3148.000000	0.001811  
3147.000000	0.001669  
3146.000000	0.001576  
3145.000000	0.001517  
3144.000000	0.001496  
3143.000000	0.001534  
3142.000000	0.001617  
3141.000000	0.001683  
3140.000000	0.001696  
3139.000000	0.001693  
3138.000000	0.001743  
3137.000000	0.001849  
3136.000000	0.001946  
3135.000000	0.001971  
3134.000000	0.001910  
3133.000000	0.001810  
3132.000000	0.001748  
3131.000000	0.001792  
3130.000000	0.001936  
3129.000000	0.002084  
3128.000000	0.002120  
3127.000000	0.002009  
3126.000000	0.001819  
3125.000000	0.001651  
3124.000000	0.001586  
3123.000000	0.001660  
3122.000000	0.001847  
3121.000000	0.002046  
3120.000000	0.002134  
3119.000000	0.002057  
3118.000000	0.001865  
3117.000000	0.001663  
3116.000000	0.001550  
3115.000000	0.001574  
3114.000000	0.001708  
3113.000000	0.001861  
3112.000000	0.001946  
3111.000000	0.001960  
3110.000000	0.001975  
3109.000000	0.002035  
3108.000000	0.002095  
3107.000000	0.002078  
3106.000000	0.001969  
3105.000000	0.001830  
3104.000000	0.001758  
3103.000000	0.001815  
3102.000000	0.001984  
3101.000000	0.002158  
3100.000000	0.002203  
3099.000000	0.002058  
3098.000000	0.001789  
3097.000000	0.001539  
3096.000000	0.001427  
3095.000000	0.001488  
3094.000000	0.001672  
3093.000000	0.001875  
3092.000000	0.002010  
3091.000000	0.002063  
3090.000000	0.002088  
3089.000000	0.002131  
3088.000000	0.002191  
3087.000000	0.002244  
3086.000000	0.002290  
3085.000000	0.002343  
3084.000000	0.002394  
3083.000000	0.002418  
3082.000000	0.002424  
3081.000000	0.002455  
3080.000000	0.002551  
3079.000000	0.002711  
3078.000000	0.002897  
3077.000000	0.003049  
3076.000000	0.003104  
3075.000000	0.003025  
3074.000000	0.002834  
3073.000000	0.002619  
3072.000000	0.002494  
3071.000000	0.002528  
3070.000000	0.002692  
3069.000000	0.002868  
3068.000000	0.002944  
3067.000000	0.002904  
3066.000000	0.002842  
3065.000000	0.002865  
3064.000000	0.003009  
3063.000000	0.003218  
3062.000000	0.003398  
3061.000000	0.003477  
3060.000000	0.003449  
3059.000000	0.003367  
3058.000000	0.003287  
3057.000000	0.003219  
3056.000000	0.003157  
3055.000000	0.003134  
3054.000000	0.003205  
3053.000000	0.003355  
3052.000000	0.003481  
3051.000000	0.003493  
3050.000000	0.003425  
3049.000000	0.003391  
3048.000000	0.003465  
3047.000000	0.003622  
3046.000000	0.003787  
3045.000000	0.003898  
3044.000000	0.003917  
3043.000000	0.003834  
3042.000000	0.003693  
3041.000000	0.003588  
3040.000000	0.003607  
3039.000000	0.003767  
3038.000000	0.003997  
3037.000000	0.004196  
3036.000000	0.004288  
3035.000000	0.004271  
3034.000000	0.004189  
3033.000000	0.004102  
3032.000000	0.004061  
3031.000000	0.004106  
3030.000000	0.004253  
3029.000000	0.004453  
3028.000000	0.004619  
3027.000000	0.004699  
3026.000000	0.004733  
3025.000000	0.004813  
3024.000000	0.004998  
3023.000000	0.005273  
3022.000000	0.005556  
3021.000000	0.005739  
3020.000000	0.005756  
3019.000000	0.005648  
3018.000000	0.005561  
3017.000000	0.005620  
3016.000000	0.005812  
3015.000000	0.006022  
3014.000000	0.006169  
3013.000000	0.006271  
3012.000000	0.006383  
3011.000000	0.006512  
3010.000000	0.006641  
3009.000000	0.006775  
3008.000000	0.006946  
3007.000000	0.007166  
3006.000000	0.007395  
3005.000000	0.007554  
3004.000000	0.007575  
3003.000000	0.007464  
3002.000000	0.007325  
3001.000000	0.007313  
3000.000000	0.007525  
2999.000000	0.007924  
2998.000000	0.008362  
2997.000000	0.008686  
2996.000000	0.008832  
2995.000000	0.008870  
2994.000000	0.008954  
2993.000000	0.009212  
2992.000000	0.009668  
2991.000000	0.010251  
2990.000000	0.010877  
2989.000000	0.011504  
2988.000000	0.012135  
2987.000000	0.012809  
2986.000000	0.013582  
2985.000000	0.014492  
2984.000000	0.015519  
2983.000000	0.016615  
2982.000000	0.017780  
2981.000000	0.019082  
2980.000000	0.020591  
2979.000000	0.022314  
2978.000000	0.024229  
2977.000000	0.026359  
2976.000000	0.028786  
2975.000000	0.031590  
2974.000000	0.034808  
2973.000000	0.038431  
2972.000000	0.042410  
2971.000000	0.046681  
2970.000000	0.051230  
2969.000000	0.056125  
2968.000000	0.061448  
2967.000000	0.067153  
2966.000000	0.073027  
2965.000000	0.078818  
2964.000000	0.084394  
2963.000000	0.089740  
2962.000000	0.094867  
2961.000000	0.099762  
2960.000000	0.104403  
2959.000000	0.108733  
2958.000000	0.112582  
2957.000000	0.115703  
2956.000000	0.117907  
2955.000000	0.119149  
2954.000000	0.119471  
2953.000000	0.118917  
2952.000000	0.117546  
2951.000000	0.115497  
2950.000000	0.113000  
2949.000000	0.110324  
2948.000000	0.107715  
2947.000000	0.105376  
2946.000000	0.103483  
2945.000000	0.102226  
2944.000000	0.101805  
2943.000000	0.102371  
2942.000000	0.103960  
2941.000000	0.106491  
2940.000000	0.109854  
2939.000000	0.113992  
2938.000000	0.118909  
2937.000000	0.124594  
2936.000000	0.130947  
2935.000000	0.137772  
2934.000000	0.144873  
2933.000000	0.152181  
2932.000000	0.159776  
2931.000000	0.167747  
2930.000000	0.176005  
2929.000000	0.184262  
2928.000000	0.192179  
2927.000000	0.199497  
2926.000000	0.206038  
2925.000000	0.211637  
2924.000000	0.216078  
2923.000000	0.219080  
2922.000000	0.220366  
2921.000000	0.219856  
2920.000000	0.217798  
2919.000000	0.214617  
2918.000000	0.210639  
2917.000000	0.206006  
2916.000000	0.200838  
2915.000000	0.195335  
2914.000000	0.189709  
2913.000000	0.184095  
2912.000000	0.178601  
2911.000000	0.173372  
2910.000000	0.168523  
2909.000000	0.164016  
2908.000000	0.159653  
2907.000000	0.155229  
2906.000000	0.150679  
2905.000000	0.146101  
2904.000000	0.141656  
2903.000000	0.137463  
2902.000000	0.133538  
2901.000000	0.129804  
2900.000000	0.126132  
2899.000000	0.122418  
2898.000000	0.118636  
2897.000000	0.114844  
2896.000000	0.111137  
2895.000000	0.107579  
2894.000000	0.104167  
2893.000000	0.100834  
2892.000000	0.097491  
2891.000000	0.094101  
2890.000000	0.090731  
2889.000000	0.087545  
2888.000000	0.084699  
2887.000000	0.082256  
2886.000000	0.080190  
2885.000000	0.078475  
2884.000000	0.077148  
2883.000000	0.076291  
2882.000000	0.075984  
2881.000000	0.076274  
2880.000000	0.077203  
2879.000000	0.078821  
2878.000000	0.081166  
2877.000000	0.084185  
2876.000000	0.087681  
2875.000000	0.091324  
2874.000000	0.094726  
2873.000000	0.097545  
2872.000000	0.099561  
2871.000000	0.100717  
2870.000000	0.101138  
2869.000000	0.101113  
2868.000000	0.100999  
2867.000000	0.101099  
2866.000000	0.101608  
2865.000000	0.102672  
2864.000000	0.104434  
2863.000000	0.106976  
2862.000000	0.110250  
2861.000000	0.114111  
2860.000000	0.118432  
2859.000000	0.123111  
2858.000000	0.127954  
2857.000000	0.132600  
2856.000000	0.136581  
2855.000000	0.139442  
2854.000000	0.140799  
2853.000000	0.140381  
2852.000000	0.138110  
2851.000000	0.134145  
2850.000000	0.128826  
2849.000000	0.122564  
2848.000000	0.115742  
2847.000000	0.108667  
2846.000000	0.101547  
2845.000000	0.094487  
2844.000000	0.087514  
2843.000000	0.080638  
2842.000000	0.073921  
2841.000000	0.067484  
2840.000000	0.061445  
2839.000000	0.055860  
2838.000000	0.050735  
2837.000000	0.046077  
2836.000000	0.041902  
2835.000000	0.038192  
2834.000000	0.034884  
2833.000000	0.031916  
2832.000000	0.029272  
2831.000000	0.026979  
2830.000000	0.025049  
2829.000000	0.023438  
2828.000000	0.022054  
2827.000000	0.020806  
2826.000000	0.019648  
2825.000000	0.018574  
2824.000000	0.017580  
2823.000000	0.016665  
2822.000000	0.015845  
2821.000000	0.015151  
2820.000000	0.014596  
2819.000000	0.014137  
2818.000000	0.013696  
2817.000000	0.013216  
2816.000000	0.012695  
2815.000000	0.012173  
2814.000000	0.011681  
2813.000000	0.011228  
2812.000000	0.010800  
2811.000000	0.010402  
2810.000000	0.010061  
2809.000000	0.009812  
2808.000000	0.009654  
2807.000000	0.009542  
2806.000000	0.009425  
2805.000000	0.009267  
2804.000000	0.009050  
2803.000000	0.008763  
2802.000000	0.008424  
2801.000000	0.008097  
2800.000000	0.007859  
2799.000000	0.007738  
2798.000000	0.007686  
2797.000000	0.007625  
2796.000000	0.007518  
2795.000000	0.007372  
2794.000000	0.007189  
2793.000000	0.006935  
2792.000000	0.006583  
2791.000000	0.006182  
2790.000000	0.005855  
2789.000000	0.005710  
2788.000000	0.005737  
2787.000000	0.005818  
2786.000000	0.005828  
2785.000000	0.005724  
2784.000000	0.005546  
2783.000000	0.005367  
2782.000000	0.005244  
2781.000000	0.005205  
2780.000000	0.005238  
2779.000000	0.005294  
2778.000000	0.005304  
2777.000000	0.005205  
2776.000000	0.004979  
2775.000000	0.004680  
2774.000000	0.004427  
2773.000000	0.004329  
2772.000000	0.004383  
2771.000000	0.004472  
2770.000000	0.004476  
2769.000000	0.004378  
2768.000000	0.004246  
2767.000000	0.004139  
2766.000000	0.004072  
2765.000000	0.004050  
2764.000000	0.004088  
2763.000000	0.004175  
2762.000000	0.004251  
2761.000000	0.004257  
2760.000000	0.004187  
2759.000000	0.004075  
2758.000000	0.003953  
2757.000000	0.003846  
2756.000000	0.003781  
2755.000000	0.003774  
2754.000000	0.003808  
2753.000000	0.003848  
2752.000000	0.003872  
2751.000000	0.003891  
2750.000000	0.003930  
2749.000000	0.003990  
2748.000000	0.004033  
2747.000000	0.004000  
2746.000000	0.003875  
2745.000000	0.003725  
2744.000000	0.003664  
2743.000000	0.003750  
2742.000000	0.003933  
2741.000000	0.004116  
2740.000000	0.004244  
2739.000000	0.004323  
2738.000000	0.004374  
2737.000000	0.004411  
2736.000000	0.004463  
2735.000000	0.004561  
2734.000000	0.004694  
2733.000000	0.004798  
2732.000000	0.004815  
2731.000000	0.004748  
2730.000000	0.004664  
2729.000000	0.004637  
2728.000000	0.004692  
2727.000000	0.004783  
2726.000000	0.004826  
2725.000000	0.004767  
2724.000000	0.004630  
2723.000000	0.004494  
2722.000000	0.004421  
2721.000000	0.004422  
2720.000000	0.004476  
2719.000000	0.004545  
2718.000000	0.004579  
2717.000000	0.004539  
2716.000000	0.004435  
2715.000000	0.004321  
2714.000000	0.004224  
2713.000000	0.004116  
2712.000000	0.003969  
2711.000000	0.003809  
2710.000000	0.003694  
2709.000000	0.003645  
2708.000000	0.003639  
2707.000000	0.003649  
2706.000000	0.003665  
2705.000000	0.003665  
2704.000000	0.003620  
2703.000000	0.003522  
2702.000000	0.003402  
2701.000000	0.003295  
2700.000000	0.003217  
2699.000000	0.003175  
2698.000000	0.003181  
2697.000000	0.003244  
2696.000000	0.003348  
2695.000000	0.003464  
2694.000000	0.003566  
2693.000000	0.003639  
2692.000000	0.003668  
2691.000000	0.003653  
2690.000000	0.003634  
2689.000000	0.003674  
2688.000000	0.003801  
2687.000000	0.003967  
2686.000000	0.004091  
2685.000000	0.004136  
2684.000000	0.004135  
2683.000000	0.004149  
2682.000000	0.004195  
2681.000000	0.004235  
2680.000000	0.004228  
2679.000000	0.004172  
2678.000000	0.004108  
2677.000000	0.004090  
2676.000000	0.004154  
2675.000000	0.004287  
2674.000000	0.004424  
2673.000000	0.004490  
2672.000000	0.004452  
2671.000000	0.004337  
2670.000000	0.004202  
2669.000000	0.004099  
2668.000000	0.004067  
2667.000000	0.004126  
2666.000000	0.004262  
2665.000000	0.004409  
2664.000000	0.004496  
2663.000000	0.004479  
2662.000000	0.004358  
2661.000000	0.004161  
2660.000000	0.003942  
2659.000000	0.003758  
2658.000000	0.003635  
2657.000000	0.003554  
2656.000000	0.003501  
2655.000000	0.003507  
2654.000000	0.003594  
2653.000000	0.003711  
2652.000000	0.003768  
2651.000000	0.003739  
2650.000000	0.003692  
2649.000000	0.003695  
2648.000000	0.003738  
2647.000000	0.003764  
2646.000000	0.003732  
2645.000000	0.003646  
2644.000000	0.003545  
2643.000000	0.003495  
2642.000000	0.003556  
2641.000000	0.003719  
2640.000000	0.003879  
2639.000000	0.003919  
2638.000000	0.003806  
2637.000000	0.003606  
2636.000000	0.003427  
2635.000000	0.003353  
2634.000000	0.003418  
2633.000000	0.003580  
2632.000000	0.003737  
2631.000000	0.003795  
2630.000000	0.003730  
2629.000000	0.003589  
2628.000000	0.003444  
2627.000000	0.003363  
2626.000000	0.003385  
2625.000000	0.003473  
2624.000000	0.003517  
2623.000000	0.003427  
2622.000000	0.003239  
2621.000000	0.003067  
2620.000000	0.002976  
2619.000000	0.002935  
2618.000000	0.002897  
2617.000000	0.002881  
2616.000000	0.002919  
2615.000000	0.002999  
2614.000000	0.003079  
2613.000000	0.003147  
2612.000000	0.003208  
2611.000000	0.003241  
2610.000000	0.003224  
2609.000000	0.003186  
2608.000000	0.003199  
2607.000000	0.003289  
2606.000000	0.003388  
2605.000000	0.003406  
2604.000000	0.003315  
2603.000000	0.003172  
2602.000000	0.003063  
2601.000000	0.003052  
2600.000000	0.003138  
2599.000000	0.003243  
2598.000000	0.003255  
2597.000000	0.003137  
2596.000000	0.002976  
2595.000000	0.002896  
2594.000000	0.002902  
2593.000000	0.002859  
2592.000000	0.002668  
2591.000000	0.002405  
2590.000000	0.002250  
2589.000000	0.002291  
2588.000000	0.002451  
2587.000000	0.002602  
2586.000000	0.002693  
2585.000000	0.002730  
2584.000000	0.002698  
2583.000000	0.002577  
2582.000000	0.002399  
2581.000000	0.002248  
2580.000000	0.002192  
2579.000000	0.002237  
2578.000000	0.002356  
2577.000000	0.002506  
2576.000000	0.002618  
2575.000000	0.002620  
2574.000000	0.002504  
2573.000000	0.002355  
2572.000000	0.002277  
2571.000000	0.002294  
2570.000000	0.002332  
2569.000000	0.002306  
2568.000000	0.002205  
2567.000000	0.002087  
2566.000000	0.002010  
2565.000000	0.001974  
2564.000000	0.001927  
2563.000000	0.001837  
2562.000000	0.001745  
2561.000000	0.001720  
2560.000000	0.001778  
2559.000000	0.001855  
2558.000000	0.001907  
2557.000000	0.001979  
2556.000000	0.002133  
2555.000000	0.002322  
2554.000000	0.002402  
2553.000000	0.002317  
2552.000000	0.002204  
2551.000000	0.002255  
2550.000000	0.002498  
2549.000000	0.002773  
2548.000000	0.002903  
2547.000000	0.002829  
2546.000000	0.002573  
2545.000000	0.002186  
2544.000000	0.001775  
2543.000000	0.001510  
2542.000000	0.001490  
2541.000000	0.001632  
2540.000000	0.001754  
2539.000000	0.001787  
2538.000000	0.001825  
2537.000000	0.001956  
2536.000000	0.002118  
2535.000000	0.002159  
2534.000000	0.002023  
2533.000000	0.001807  
2532.000000	0.001657  
2531.000000	0.001614  
2530.000000	0.001584  
2529.000000	0.001461  
2528.000000	0.001268  
2527.000000	0.001163  
2526.000000	0.001277  
2525.000000	0.001570  
2524.000000	0.001872  
2523.000000	0.002046  
2522.000000	0.002064  
2521.000000	0.001952  
2520.000000	0.001748  
2519.000000	0.001537  
2518.000000	0.001456  
2517.000000	0.001583  
2516.000000	0.001850  
2515.000000	0.002102  
2514.000000	0.002237  
2513.000000	0.002258  
2512.000000	0.002206  
2511.000000	0.002108  
2510.000000	0.001973  
2509.000000	0.001825  
2508.000000	0.001717  
2507.000000	0.001717  
2506.000000	0.001849  
2505.000000	0.002040  
2504.000000	0.002140  
2503.000000	0.002063  
2502.000000	0.001889  
2501.000000	0.001793  
2500.000000	0.001861  
2499.000000	0.001987  
2498.000000	0.001978  
2497.000000	0.001726  
2496.000000	0.001304  
2495.000000	0.000908  
2494.000000	0.000733  
2493.000000	0.000855  
2492.000000	0.001195  
2491.000000	0.001590  
2490.000000	0.001889  
2489.000000	0.002033  
2488.000000	0.002044  
2487.000000	0.001976  
2486.000000	0.001857  
2485.000000	0.001679  
2484.000000	0.001459  
2483.000000	0.001295  
2482.000000	0.001331  
2481.000000	0.001632  
2480.000000	0.002092  
2479.000000	0.002494  
2478.000000	0.002661  
2477.000000	0.002566  
2476.000000	0.002300  
2475.000000	0.001978  
2474.000000	0.001671  
2473.000000	0.001403  
2472.000000	0.001199  
2471.000000	0.001078  
2470.000000	0.001025  
2469.000000	0.000980  
2468.000000	0.000928  
2467.000000	0.000952  
2466.000000	0.001144  
2465.000000	0.001453  
2464.000000	0.001695  
2463.000000	0.001745  
2462.000000	0.001646  
2461.000000	0.001519  
2460.000000	0.001424  
2459.000000	0.001382  
2458.000000	0.001441  
2457.000000	0.001611  
2456.000000	0.001765  
2455.000000	0.001734  
2454.000000	0.001520  
2453.000000	0.001311  
2452.000000	0.001247  
2451.000000	0.001266  
2450.000000	0.001235  
2449.000000	0.001167  
2448.000000	0.001202  
2447.000000	0.001406  
2446.000000	0.001676  
2445.000000	0.001848  
2444.000000	0.001853  
2443.000000	0.001752  
2442.000000	0.001667  
2441.000000	0.001678  
2440.000000	0.001763  
2439.000000	0.001821  
2438.000000	0.001782  
2437.000000	0.001676  
2436.000000	0.001590  
2435.000000	0.001541  
2434.000000	0.001452  
2433.000000	0.001272  
2432.000000	0.001071  
2431.000000	0.000971  
2430.000000	0.001011  
2429.000000	0.001120  
2428.000000	0.001230  
2427.000000	0.001360  
2426.000000	0.001554  
2425.000000	0.001775  
2424.000000	0.001909  
2423.000000	0.001878  
2422.000000	0.001721  
2421.000000	0.001550  
2420.000000	0.001452  
2419.000000	0.001438  
2418.000000	0.001465  
2417.000000	0.001483  
2416.000000	0.001480  
2415.000000	0.001490  
2414.000000	0.001543  
2413.000000	0.001619  
2412.000000	0.001661  
2411.000000	0.001647  
2410.000000	0.001625  
2409.000000	0.001669  
2408.000000	0.001787  
2407.000000	0.001901  
2406.000000	0.001904  
2405.000000	0.001751  
2404.000000	0.001504  
2403.000000	0.001285  
2402.000000	0.001175  
2401.000000	0.001155  
2400.000000	0.001165  
2399.000000	0.001210  
2398.000000	0.001358  
2397.000000	0.001611  
2396.000000	0.001846  
2395.000000	0.001918  
2394.000000	0.001821  
2393.000000	0.001692  
2392.000000	0.001662  
2391.000000	0.001741  
2390.000000	0.001835  
2389.000000	0.001856  
2388.000000	0.001795  
2387.000000	0.001724  
2386.000000	0.001742  
2385.000000	0.001887  
2384.000000	0.002085  
2383.000000	0.002196  
2382.000000	0.002138  
2381.000000	0.001975  
2380.000000	0.001890  
2379.000000	0.002038  
2378.000000	0.002390  
2377.000000	0.002720  
2376.000000	0.002784  
2375.000000	0.002546  
2374.000000	0.002211  
2373.000000	0.002031  
2372.000000	0.002102  
2371.000000	0.002363  
2370.000000	0.002708  
2369.000000	0.002981  
2368.000000	0.002995  
2367.000000	0.002710  
2366.000000	0.002388  
2365.000000	0.002330  
2364.000000	0.002465  
2363.000000	0.002433  
2362.000000	0.002121  
2361.000000	0.001856  
2360.000000	0.001977  
2359.000000	0.002437  
2358.000000	0.002913  
2357.000000	0.003120  
2356.000000	0.002956  
2355.000000	0.002521  
2354.000000	0.002066  
2353.000000	0.001836  
2352.000000	0.001885  
2351.000000	0.002093  
2350.000000	0.002321  
2349.000000	0.002481  
2348.000000	0.002531  
2347.000000	0.002519  
2346.000000	0.002622  
2345.000000	0.002941  
2344.000000	0.003246  
2343.000000	0.003176  
2342.000000	0.002735  
2341.000000	0.002375  
2340.000000	0.002477  
2339.000000	0.002895  
2338.000000	0.003120  
2337.000000	0.002833  
2336.000000	0.002194  
2335.000000	0.001625  
2334.000000	0.001450  
2333.000000	0.001723  
2332.000000	0.002263  
2331.000000	0.002765  
2330.000000	0.002974  
2329.000000	0.002848  
2328.000000	0.002562  
2327.000000	0.002339  
2326.000000	0.002270  
2325.000000	0.002280  
2324.000000	0.002234  
2323.000000	0.002055  
2322.000000	0.001766  
2321.000000	0.001476  
2320.000000	0.001325  
2319.000000	0.001408  
2318.000000	0.001664  
2317.000000	0.001846  
2316.000000	0.001698  
2315.000000	0.001221  
2314.000000	0.000725  
2313.000000	0.000547  
2312.000000	0.000720  
2311.000000	0.001006  
2310.000000	0.001224  
2309.000000	0.001409  
2308.000000	0.001641  
2307.000000	0.001860  
2306.000000	0.001923  
2305.000000	0.001777  
2304.000000	0.001512  
2303.000000	0.001259  
2302.000000	0.001093  
2301.000000	0.001006  
2300.000000	0.000961  
2299.000000	0.000955  
2298.000000	0.001043  
2297.000000	0.001261  
2296.000000	0.001539  
2295.000000	0.001732  
2294.000000	0.001773  
2293.000000	0.001719  
2292.000000	0.001649  
2291.000000	0.001569  
2290.000000	0.001473  
2289.000000	0.001415  
2288.000000	0.001432  
2287.000000	0.001443  
2286.000000	0.001317  
2285.000000	0.001063  
2284.000000	0.000842  
2283.000000	0.000773  
2282.000000	0.000813  
2281.000000	0.000855  
2280.000000	0.000897  
2279.000000	0.001019  
2278.000000	0.001237  
2277.000000	0.001463  
2276.000000	0.001632  
2275.000000	0.001808  
2274.000000	0.002115  
2273.000000	0.002549  
2272.000000	0.002939  
2271.000000	0.003120  
2270.000000	0.003092  
2269.000000	0.002947  
2268.000000	0.002684  
2267.000000	0.002221  
2266.000000	0.001614  
2265.000000	0.001126  
2264.000000	0.000990  
2263.000000	0.001175  
2262.000000	0.001485  
2261.000000	0.001784  
2260.000000	0.002019  
2259.000000	0.002109  
2258.000000	0.002000  
2257.000000	0.001819  
2256.000000	0.001787  
2255.000000	0.001933  
2254.000000	0.002047  
2253.000000	0.001983  
2252.000000	0.001845  
2251.000000	0.001795  
2250.000000	0.001794  
2249.000000	0.001677  
2248.000000	0.001387  
2247.000000	0.001021  
2246.000000	0.000687  
2245.000000	0.000434  
2244.000000	0.000312  
2243.000000	0.000381  
2242.000000	0.000629  
2241.000000	0.000950  
2240.000000	0.001218  
2239.000000	0.001355  
2238.000000	0.001341  
2237.000000	0.001227  
2236.000000	0.001127  
2235.000000	0.001145  
2234.000000	0.001298  
2233.000000	0.001514  
2232.000000	0.001672  
2231.000000	0.001647  
2230.000000	0.001382  
2229.000000	0.000988  
2228.000000	0.000716  
2227.000000	0.000728  
2226.000000	0.000913  
2225.000000	0.000981  
2224.000000	0.000754  
2223.000000	0.000312  
2222.000000	-0.000095 
2221.000000	-0.000223 
2220.000000	0.000028  
2219.000000	0.000517  
2218.000000	0.000933  
2217.000000	0.001083  
2216.000000	0.001125  
2215.000000	0.001379  
2214.000000	0.001904  
2213.000000	0.002386  
2212.000000	0.002534  
2211.000000	0.002401  
2210.000000	0.002203  
2209.000000	0.001967  
2208.000000	0.001556  
2207.000000	0.001024  
2206.000000	0.000705  
2205.000000	0.000883  
2204.000000	0.001481  
2203.000000	0.002169  
2202.000000	0.002683  
2201.000000	0.002952  
2200.000000	0.003017  
2199.000000	0.002968  
2198.000000	0.002932  
2197.000000	0.003004  
2196.000000	0.003116  
2195.000000	0.003060  
2194.000000	0.002689  
2193.000000	0.002075  
2192.000000	0.001425  
2191.000000	0.000880  
2190.000000	0.000487  
2189.000000	0.000318  
2188.000000	0.000458  
2187.000000	0.000854  
2186.000000	0.001256  
2185.000000	0.001435  
2184.000000	0.001419  
2183.000000	0.001444  
2182.000000	0.001683  
2181.000000	0.002100  
2180.000000	0.002535  
2179.000000	0.002841  
2178.000000	0.002928  
2177.000000	0.002824  
2176.000000	0.002678  
2175.000000	0.002599  
2174.000000	0.002464  
2173.000000	0.002037  
2172.000000	0.001350  
2171.000000	0.000811  
2170.000000	0.000791  
2169.000000	0.001157  
2168.000000	0.001391  
2167.000000	0.001195  
2166.000000	0.000858  
2165.000000	0.000897  
2164.000000	0.001438  
2163.000000	0.002075  
2162.000000	0.002325  
2161.000000	0.002107  
2160.000000	0.001756  
2159.000000	0.001624  
2158.000000	0.001740  
2157.000000	0.001895  
2156.000000	0.001917  
2155.000000	0.001805  
2154.000000	0.001678  
2153.000000	0.001702  
2152.000000	0.001976  
2151.000000	0.002401  
2150.000000	0.002670  
2149.000000	0.002501  
2148.000000	0.001942  
2147.000000	0.001366  
2146.000000	0.001137  
2145.000000	0.001314  
2144.000000	0.001673  
2143.000000	0.001944  
2142.000000	0.001958  
2141.000000	0.001671  
2140.000000	0.001179  
2139.000000	0.000724  
2138.000000	0.000581  
2137.000000	0.000840  
2136.000000	0.001303  
2135.000000	0.001633  
2134.000000	0.001635  
2133.000000	0.001404  
2132.000000	0.001225  
2131.000000	0.001318  
2130.000000	0.001673  
2129.000000	0.002090  
2128.000000	0.002362  
2127.000000	0.002396  
2126.000000	0.002187  
2125.000000	0.001770  
2124.000000	0.001260  
2123.000000	0.000877  
2122.000000	0.000844  
2121.000000	0.001193  
2120.000000	0.001694  
2119.000000	0.002023  
2118.000000	0.002027  
2117.000000	0.001858  
2116.000000	0.001855  
2115.000000	0.002208  
2114.000000	0.002714  
2113.000000	0.002907  
2112.000000	0.002536  
2111.000000	0.001858  
2110.000000	0.001396  
2109.000000	0.001408  
2108.000000	0.001685  
2107.000000	0.001878  
2106.000000	0.001876  
2105.000000	0.001780  
2104.000000	0.001645  
2103.000000	0.001413  
2102.000000	0.001067  
2101.000000	0.000722  
2100.000000	0.000503  
2099.000000	0.000434  
2098.000000	0.000458  
2097.000000	0.000520  
2096.000000	0.000577  
2095.000000	0.000583  
2094.000000	0.000534  
2093.000000	0.000502  
2092.000000	0.000572  
2091.000000	0.000748  
2090.000000	0.000931  
2089.000000	0.001041  
2088.000000	0.001110  
2087.000000	0.001251  
2086.000000	0.001513  
2085.000000	0.001782  
2084.000000	0.001863  
2083.000000	0.001650  
2082.000000	0.001232  
2081.000000	0.000852  
2080.000000	0.000741  
2079.000000	0.000958  
2078.000000	0.001324  
2077.000000	0.001542  
2076.000000	0.001445  
2075.000000	0.001171  
2074.000000	0.001030  
2073.000000	0.001192  
2072.000000	0.001522  
2071.000000	0.001767  
2070.000000	0.001819  
2069.000000	0.001754  
2068.000000	0.001658  
2067.000000	0.001548  
2066.000000	0.001457  
2065.000000	0.001475  
2064.000000	0.001656  
2063.000000	0.001934  
2062.000000	0.002177  
2061.000000	0.002270  
2060.000000	0.002132  
2059.000000	0.001774  
2058.000000	0.001360  
2057.000000	0.001139  
2056.000000	0.001181  
2055.000000	0.001241  
2054.000000	0.001033  
2053.000000	0.000600  
2052.000000	0.000286  
2051.000000	0.000331  
2050.000000	0.000666  
2049.000000	0.001123  
2048.000000	0.001660  
2047.000000	0.002203  
2046.000000	0.002427  
2045.000000	0.002013  
2044.000000	0.001118  
2043.000000	0.000354  
2042.000000	0.000207  
2041.000000	0.000628  
2040.000000	0.001246  
2039.000000	0.001797  
2038.000000	0.002199  
2037.000000	0.002373  
2036.000000	0.002265  
2035.000000	0.002019  
2034.000000	0.001932  
2033.000000	0.002155  
2032.000000	0.002508  
2031.000000	0.002640  
2030.000000	0.002290  
2029.000000	0.001466  
2028.000000	0.000472  
2027.000000	-0.000266 
2026.000000	-0.000512 
2025.000000	-0.000386 
2024.000000	-0.000177 
2023.000000	0.000020  
2022.000000	0.000359  
2021.000000	0.000914  
2020.000000	0.001453  
2019.000000	0.001646  
2018.000000	0.001394  
2017.000000	0.000876  
2016.000000	0.000330  
2015.000000	-0.000077 
2014.000000	-0.000191 
2013.000000	0.000105  
2012.000000	0.000666  
2011.000000	0.001021  
2010.000000	0.000741  
2009.000000	-0.000096 
2008.000000	-0.000929 
2007.000000	-0.001246 
2006.000000	-0.001014 
2005.000000	-0.000532 
2004.000000	-0.000020 
2003.000000	0.000524  
2002.000000	0.001153  
2001.000000	0.001791  
2000.000000	0.002231  
1999.000000	0.002221  
1998.000000	0.001630  
1997.000000	0.000660  
1996.000000	-0.000153 
1995.000000	-0.000347 
1994.000000	0.000048  
1993.000000	0.000551  
1992.000000	0.000728  
1991.000000	0.000601  
1990.000000	0.000470  
1989.000000	0.000540  
1988.000000	0.000842  
1987.000000	0.001338  
1986.000000	0.001913  
1985.000000	0.002367  
1984.000000	0.002569  
1983.000000	0.002553  
1982.000000	0.002387  
1981.000000	0.002059  
1980.000000	0.001617  
1979.000000	0.001270  
1978.000000	0.001123  
1977.000000	0.000931  
1976.000000	0.000430  
1975.000000	-0.000181 
1974.000000	-0.000463 
1973.000000	-0.000355 
1972.000000	-0.000227 
1971.000000	-0.000306 
1970.000000	-0.000416 
1969.000000	-0.000354 
1968.000000	-0.000218 
1967.000000	-0.000165 
1966.000000	-0.000105 
1965.000000	0.000121  
1964.000000	0.000427  
1963.000000	0.000594  
1962.000000	0.000584  
1961.000000	0.000562  
1960.000000	0.000669  
1959.000000	0.000921  
1958.000000	0.001248  
1957.000000	0.001501  
1956.000000	0.001469  
1955.000000	0.001064  
1954.000000	0.000482  
1953.000000	0.000072  
1952.000000	0.000045  
1951.000000	0.000363  
1950.000000	0.000863  
1949.000000	0.001358  
1948.000000	0.001672  
1947.000000	0.001729  
1946.000000	0.001635  
1945.000000	0.001563  
1944.000000	0.001549  
1943.000000	0.001467  
1942.000000	0.001251  
1941.000000	0.001023  
1940.000000	0.000915  
1939.000000	0.000915  
1938.000000	0.000964  
1937.000000	0.001105  
1936.000000	0.001421  
1935.000000	0.001868  
1934.000000	0.002245  
1933.000000	0.002377  
1932.000000	0.002282  
1931.000000	0.002116  
1930.000000	0.002007  
1929.000000	0.001939  
1928.000000	0.001823  
1927.000000	0.001607  
1926.000000	0.001350  
1925.000000	0.001170  
1924.000000	0.001137  
1923.000000	0.001232  
1922.000000	0.001387  
1921.000000	0.001558  
1920.000000	0.001705  
1919.000000	0.001764  
1918.000000	0.001703  
1917.000000	0.001626  
1916.000000	0.001678  
1915.000000	0.001831  
1914.000000	0.001875  
1913.000000	0.001651  
1912.000000	0.001251  
1911.000000	0.000946  
1910.000000	0.000902  
1909.000000	0.001047  
1908.000000	0.001216  
1907.000000	0.001334  
1906.000000	0.001411  
1905.000000	0.001450  
1904.000000	0.001459  
1903.000000	0.001490  
1902.000000	0.001589  
1901.000000	0.001716  
1900.000000	0.001761  
1899.000000	0.001666  
1898.000000	0.001477  
1897.000000	0.001301  
1896.000000	0.001225  
1895.000000	0.001285  
1894.000000	0.001456  
1893.000000	0.001667  
1892.000000	0.001844  
1891.000000	0.001944  
1890.000000	0.001955  
1889.000000	0.001890  
1888.000000	0.001787  
1887.000000	0.001690  
1886.000000	0.001635  
1885.000000	0.001641  
1884.000000	0.001686  
1883.000000	0.001704  
1882.000000	0.001631  
1881.000000	0.001485  
1880.000000	0.001371  
1879.000000	0.001366  
1878.000000	0.001434  
1877.000000	0.001494  
1876.000000	0.001553  
1875.000000	0.001691  
1874.000000	0.001909  
1873.000000	0.002087  
1872.000000	0.002116  
1871.000000	0.002003  
1870.000000	0.001812  
1869.000000	0.001578  
1868.000000	0.001357  
1867.000000	0.001270  
1866.000000	0.001376  
1865.000000	0.001586  
1864.000000	0.001754  
1863.000000	0.001820  
1862.000000	0.001819  
1861.000000	0.001791  
1860.000000	0.001738  
1859.000000	0.001683  
1858.000000	0.001685  
1857.000000	0.001756  
1856.000000	0.001829  
1855.000000	0.001811  
1854.000000	0.001671  
1853.000000	0.001480  
1852.000000	0.001368  
1851.000000	0.001406  
1850.000000	0.001516  
1849.000000	0.001522  
1848.000000	0.001347  
1847.000000	0.001130  
1846.000000	0.001102  
1845.000000	0.001336  
1844.000000	0.001635  
1843.000000	0.001776  
1842.000000	0.001741  
1841.000000	0.001603  
1840.000000	0.001432  
1839.000000	0.001314  
1838.000000	0.001316  
1837.000000	0.001405  
1836.000000	0.001475  
1835.000000	0.001477  
1834.000000	0.001444  
1833.000000	0.001392  
1832.000000	0.001297  
1831.000000	0.001189  
1830.000000	0.001199  
1829.000000	0.001408  
1828.000000	0.001706  
1827.000000	0.001924  
1826.000000	0.001976  
1825.000000	0.001864  
1824.000000	0.001678  
1823.000000	0.001568  
1822.000000	0.001605  
1821.000000	0.001695  
1820.000000	0.001650  
1819.000000	0.001414  
1818.000000	0.001156  
1817.000000	0.001086  
1816.000000	0.001206  
1815.000000	0.001357  
1814.000000	0.001425  
1813.000000	0.001425  
1812.000000	0.001411  
1811.000000	0.001420  
1810.000000	0.001471  
1809.000000	0.001561  
1808.000000	0.001651  
1807.000000	0.001704  
1806.000000	0.001724  
1805.000000	0.001746  
1804.000000	0.001781  
1803.000000	0.001814  
1802.000000	0.001842  
1801.000000	0.001887  
1800.000000	0.001950  
1799.000000	0.002002  
1798.000000	0.002019  
1797.000000	0.001991  
1796.000000	0.001923  
1795.000000	0.001826  
1794.000000	0.001714  
1793.000000	0.001594  
1792.000000	0.001458  
1791.000000	0.001328  
1790.000000	0.001247  
1789.000000	0.001242  
1788.000000	0.001297  
1787.000000	0.001377  
1786.000000	0.001450  
1785.000000	0.001491  
1784.000000	0.001478  
1783.000000	0.001426  
1782.000000	0.001390  
1781.000000	0.001444  
1780.000000	0.001598  
1779.000000	0.001782  
1778.000000	0.001926  
1777.000000	0.002006  
1776.000000	0.002022  
1775.000000	0.001972  
1774.000000	0.001875  
1773.000000	0.001766  
1772.000000	0.001680  
1771.000000	0.001620  
1770.000000	0.001557  
1769.000000	0.001479  
1768.000000	0.001408  
1767.000000	0.001359  
1766.000000	0.001342  
1765.000000	0.001363  
1764.000000	0.001413  
1763.000000	0.001493  
1762.000000	0.001600  
1761.000000	0.001721  
1760.000000	0.001833  
1759.000000	0.001887  
1758.000000	0.001836  
1757.000000	0.001686  
1756.000000	0.001513  
1755.000000	0.001396  
1754.000000	0.001349  
1753.000000	0.001350  
1752.000000	0.001377  
1751.000000	0.001391  
1750.000000	0.001362  
1749.000000	0.001302  
1748.000000	0.001234  
1747.000000	0.001184  
1746.000000	0.001159  
1745.000000	0.001149  
1744.000000	0.001123  
1743.000000	0.001061  
1742.000000	0.000973  
1741.000000	0.000887  
1740.000000	0.000829  
1739.000000	0.000813  
1738.000000	0.000818  
1737.000000	0.000791  
1736.000000	0.000730  
1735.000000	0.000715  
1734.000000	0.000802  
1733.000000	0.000977  
1732.000000	0.001171  
1731.000000	0.001302  
1730.000000	0.001390  
1729.000000	0.001504  
1728.000000	0.001657  
1727.000000	0.001800  
1726.000000	0.001883  
1725.000000	0.001889  
1724.000000	0.001833  
1723.000000	0.001771  
1722.000000	0.001767  
1721.000000	0.001821  
1720.000000	0.001879  
1719.000000	0.001883  
1718.000000	0.001802  
1717.000000	0.001699  
1716.000000	0.001670  
1715.000000	0.001708  
1714.000000	0.001765  
1713.000000	0.001807  
1712.000000	0.001801  
1711.000000	0.001730  
1710.000000	0.001625  
1709.000000	0.001566  
1708.000000	0.001607  
1707.000000	0.001731  
1706.000000	0.001900  
1705.000000	0.002085  
1704.000000	0.002279  
1703.000000	0.002453  
1702.000000	0.002578  
1701.000000	0.002546  
1700.000000	0.002286  
1699.000000	0.002064  
1698.000000	0.002043  
1697.000000	0.002091  
1696.000000	0.002125  
1695.000000	0.002133  
1694.000000	0.002119  
1693.000000	0.002062  
1692.000000	0.001966  
1691.000000	0.001916  
1690.000000	0.001969  
1689.000000	0.002074  
1688.000000	0.002135  
1687.000000	0.002122  
1686.000000	0.002102  
1685.000000	0.002139  
1684.000000	0.002216  
1683.000000	0.002294  
1682.000000	0.002306  
1681.000000	0.002253  
1680.000000	0.002198  
1679.000000	0.002159  
1678.000000	0.002105  
1677.000000	0.001983  
1676.000000	0.001793  
1675.000000	0.001663  
1674.000000	0.001728  
1673.000000	0.001941  
1672.000000	0.002137  
1671.000000	0.002238  
1670.000000	0.002267  
1669.000000	0.002261  
1668.000000	0.002229  
1667.000000	0.002184  
1666.000000	0.002163  
1665.000000	0.002196  
1664.000000	0.002271  
1663.000000	0.002344  
1662.000000	0.002384  
1661.000000	0.002402  
1660.000000	0.002403  
1659.000000	0.002392  
1658.000000	0.002383  
1657.000000	0.002360  
1656.000000	0.002269  
1655.000000	0.002108  
1654.000000	0.001971  
1653.000000	0.001985  
1652.000000	0.002239  
1651.000000	0.002549  
1650.000000	0.002696  
1649.000000	0.002701  
1648.000000	0.002682  
1647.000000	0.002623  
1646.000000	0.002474  
1645.000000	0.002290  
1644.000000	0.002137  
1643.000000	0.002036  
1642.000000	0.002003  
1641.000000	0.002060  
1640.000000	0.002167  
1639.000000	0.002239  
1638.000000	0.002248  
1637.000000	0.002238  
1636.000000	0.002236  
1635.000000	0.002218  
1634.000000	0.002196  
1633.000000	0.002180  
1632.000000	0.002159  
1631.000000	0.002135  
1630.000000	0.002130  
1629.000000	0.002158  
1628.000000	0.002207  
1627.000000	0.002261  
1626.000000	0.002325  
1625.000000	0.002413  
1624.000000	0.002509  
1623.000000	0.002575  
1622.000000	0.002620  
1621.000000	0.002675  
1620.000000	0.002726  
1619.000000	0.002758  
1618.000000	0.002812  
1617.000000	0.002962  
1616.000000	0.003216  
1615.000000	0.003452  
1614.000000	0.003558  
1613.000000	0.003564  
1612.000000	0.003576  
1611.000000	0.003665  
1610.000000	0.003822  
1609.000000	0.003977  
1608.000000	0.004053  
1607.000000	0.004028  
1606.000000	0.003940  
1605.000000	0.003845  
1604.000000	0.003760  
1603.000000	0.003674  
1602.000000	0.003588  
1601.000000	0.003502  
1600.000000	0.003387  
1599.000000	0.003220  
1598.000000	0.003039  
1597.000000	0.002918  
1596.000000	0.002889  
1595.000000	0.002931  
1594.000000	0.002998  
1593.000000	0.003062  
1592.000000	0.003117  
1591.000000	0.003168  
1590.000000	0.003213  
1589.000000	0.003235  
1588.000000	0.003206  
1587.000000	0.003134  
1586.000000	0.003055  
1585.000000	0.002996  
1584.000000	0.002943  
1583.000000	0.002880  
1582.000000	0.002839  
1581.000000	0.002858  
1580.000000	0.002909  
1579.000000	0.002925  
1578.000000	0.002885  
1577.000000	0.002821  
1576.000000	0.002782  
1575.000000	0.002822  
1574.000000	0.002913  
1573.000000	0.002994  
1572.000000	0.003045  
1571.000000	0.003053  
1570.000000	0.002999  
1569.000000	0.002929  
1568.000000	0.002892  
1567.000000	0.002864  
1566.000000	0.002814  
1565.000000	0.002732  
1564.000000	0.002626  
1563.000000	0.002512  
1562.000000	0.002433  
1561.000000	0.002462  
1560.000000	0.002612  
1559.000000	0.002640  
1558.000000	0.002595  
1557.000000	0.002676  
1556.000000	0.002828  
1555.000000	0.002983  
1554.000000	0.003099  
1553.000000	0.003176  
1552.000000	0.003176  
1551.000000	0.003045  
1550.000000	0.002831  
1549.000000	0.002665  
1548.000000	0.002635  
1547.000000	0.002719  
1546.000000	0.002859  
1545.000000	0.002989  
1544.000000	0.003038  
1543.000000	0.002997  
1542.000000	0.002964  
1541.000000	0.003031  
1540.000000	0.003166  
1539.000000	0.003327  
1538.000000	0.003506  
1537.000000	0.003658  
1536.000000	0.003702  
1535.000000	0.003615  
1534.000000	0.003455  
1533.000000	0.003319  
1532.000000	0.003249  
1531.000000	0.003217  
1530.000000	0.003216  
1529.000000	0.003245  
1528.000000	0.003288  
1527.000000	0.003349  
1526.000000	0.003475  
1525.000000	0.003677  
1524.000000	0.003869  
1523.000000	0.003975  
1522.000000	0.004049  
1521.000000	0.004183  
1520.000000	0.004341  
1519.000000	0.004437  
1518.000000	0.004472  
1517.000000	0.004491  
1516.000000	0.004511  
1515.000000	0.004557  
1514.000000	0.004690  
1513.000000	0.004933  
1512.000000	0.005202  
1511.000000	0.005404  
1510.000000	0.005560  
1509.000000	0.005789  
1508.000000	0.006183  
1507.000000	0.006625  
1506.000000	0.006956  
1505.000000	0.007194  
1504.000000	0.007353  
1503.000000	0.007377  
1502.000000	0.007314  
1501.000000	0.007281  
1500.000000	0.007309  
1499.000000	0.007383  
1498.000000	0.007588  
1497.000000	0.007982  
1496.000000	0.008386  
1495.000000	0.008642  
1494.000000	0.008851  
1493.000000	0.009112  
1492.000000	0.009341  
1491.000000	0.009414  
1490.000000	0.009425  
1489.000000	0.009598  
1488.000000	0.009930  
1487.000000	0.010303  
1486.000000	0.010722  
1485.000000	0.011228  
1484.000000	0.011797  
1483.000000	0.012426  
1482.000000	0.013202  
1481.000000	0.014157  
1480.000000	0.015184  
1479.000000	0.016267  
1478.000000	0.017614  
1477.000000	0.019377  
1476.000000	0.021428  
1475.000000	0.023795  
1474.000000	0.027233  
1473.000000	0.032651  
1472.000000	0.039560  
1471.000000	0.046524  
1470.000000	0.053006  
1469.000000	0.059045  
1468.000000	0.064438  
1467.000000	0.068963  
1466.000000	0.072738  
1465.000000	0.075941  
1464.000000	0.078438  
1463.000000	0.080196  
1462.000000	0.081524  
1461.000000	0.082678  
1460.000000	0.083725  
1459.000000	0.084745  
1458.000000	0.085727  
1457.000000	0.085968  
1456.000000	0.084798  
1455.000000	0.082759  
1454.000000	0.080418  
1453.000000	0.077785  
1452.000000	0.074908  
1451.000000	0.072105  
1450.000000	0.069558  
1449.000000	0.067026  
1448.000000	0.064206  
1447.000000	0.061167  
1446.000000	0.058087  
1445.000000	0.054899  
1444.000000	0.051450  
1443.000000	0.047792  
1442.000000	0.044178  
1441.000000	0.040868  
1440.000000	0.037965  
1439.000000	0.035300  
1438.000000	0.032468  
1437.000000	0.029254  
1436.000000	0.026199  
1435.000000	0.023940  
1434.000000	0.022256  
1433.000000	0.020615  
1432.000000	0.018847  
1431.000000	0.017111  
1430.000000	0.015556  
1429.000000	0.014231  
1428.000000	0.013211  
1427.000000	0.012521  
1426.000000	0.011995  
1425.000000	0.011435  
1424.000000	0.010844  
1423.000000	0.010350  
1422.000000	0.009952  
1421.000000	0.009524  
1420.000000	0.009024  
1419.000000	0.008539  
1418.000000	0.008159  
1417.000000	0.007905  
1416.000000	0.007797  
1415.000000	0.007836  
1414.000000	0.007924  
1413.000000	0.007938  
1412.000000	0.007844  
1411.000000	0.007686  
1410.000000	0.007510  
1409.000000	0.007365  
1408.000000	0.007320  
1407.000000	0.007378  
1406.000000	0.007407  
1405.000000	0.007301  
1404.000000	0.007151  
1403.000000	0.007118  
1402.000000	0.007186  
1401.000000	0.007242  
1400.000000	0.007260  
1399.000000	0.007297  
1398.000000	0.007371  
1397.000000	0.007466  
1396.000000	0.007626  
1395.000000	0.007896  
1394.000000	0.008245  
1393.000000	0.008668  
1392.000000	0.009246  
1391.000000	0.010039  
1390.000000	0.011071  
1389.000000	0.012468  
1388.000000	0.014470  
1387.000000	0.017126  
1386.000000	0.020113  
1385.000000	0.023143  
1384.000000	0.026276  
1383.000000	0.029746  
1382.000000	0.033707  
1381.000000	0.038121  
1380.000000	0.042627  
1379.000000	0.046442  
1378.000000	0.048687  
1377.000000	0.048935  
1376.000000	0.047256  
1375.000000	0.043958  
1374.000000	0.039680  
1373.000000	0.035380  
1372.000000	0.031791  
1371.000000	0.029131  
1370.000000	0.027360  
1369.000000	0.026386  
1368.000000	0.025973  
1367.000000	0.025688  
1366.000000	0.025081  
1365.000000	0.023869  
1364.000000	0.022019  
1363.000000	0.019793  
1362.000000	0.017671  
1361.000000	0.016028  
1360.000000	0.014915  
1359.000000	0.014180  
1358.000000	0.013660  
1357.000000	0.013275  
1356.000000	0.013023  
1355.000000	0.012912  
1354.000000	0.012902  
1353.000000	0.012915  
1352.000000	0.012889  
1351.000000	0.012804  
1350.000000	0.012671  
1349.000000	0.012515  
1348.000000	0.012361  
1347.000000	0.012211  
1346.000000	0.012059  
1345.000000	0.011934  
1344.000000	0.011897  
1343.000000	0.011968  
1342.000000	0.012072  
1341.000000	0.012082  
1340.000000	0.011930  
1339.000000	0.011650  
1338.000000	0.011326  
1337.000000	0.011016  
1336.000000	0.010738  
1335.000000	0.010489  
1334.000000	0.010254  
1333.000000	0.010019  
1332.000000	0.009796  
1331.000000	0.009606  
1330.000000	0.009435  
1329.000000	0.009259  
1328.000000	0.009080  
1327.000000	0.008932  
1326.000000	0.008821  
1325.000000	0.008724  
1324.000000	0.008634  
1323.000000	0.008578  
1322.000000	0.008570  
1321.000000	0.008592  
1320.000000	0.008611  
1319.000000	0.008606  
1318.000000	0.008574  
1317.000000	0.008522  
1316.000000	0.008479  
1315.000000	0.008493  
1314.000000	0.008590  
1313.000000	0.008749  
1312.000000	0.008924  
1311.000000	0.009082  
1310.000000	0.009218  
1309.000000	0.009345  
1308.000000	0.009473  
1307.000000	0.009603  
1306.000000	0.009714  
1305.000000	0.009771  
1304.000000	0.009750  
1303.000000	0.009660  
1302.000000	0.009545  
1301.000000	0.009462  
1300.000000	0.009434  
1299.000000	0.009429  
1298.000000	0.009396  
1297.000000	0.009313  
1296.000000	0.009199  
1295.000000	0.009067  
1294.000000	0.008899  
1293.000000	0.008680  
1292.000000	0.008445  
1291.000000	0.008259  
1290.000000	0.008161  
1289.000000	0.008124  
1288.000000	0.008096  
1287.000000	0.008052  
1286.000000	0.008011  
1285.000000	0.008004  
1284.000000	0.008018  
1283.000000	0.008000  
1282.000000	0.007916  
1281.000000	0.007798  
1280.000000	0.007704  
1279.000000	0.007649  
1278.000000	0.007604  
1277.000000	0.007554  
1276.000000	0.007527  
1275.000000	0.007547  
1274.000000	0.007598  
1273.000000	0.007652  
1272.000000	0.007702  
1271.000000	0.007732  
1270.000000	0.007720  
1269.000000	0.007666  
1268.000000	0.007608  
1267.000000	0.007566  
1266.000000	0.007495  
1265.000000	0.007350  
1264.000000	0.007159  
1263.000000	0.007007  
1262.000000	0.006951  
1261.000000	0.006976  
1260.000000	0.007031  
1259.000000	0.007061  
1258.000000	0.007028  
1257.000000	0.006929  
1256.000000	0.006799  
1255.000000	0.006691  
1254.000000	0.006643  
1253.000000	0.006660  
1252.000000	0.006717  
1251.000000	0.006749  
1250.000000	0.006687  
1249.000000	0.006536  
1248.000000	0.006390  
1247.000000	0.006331  
1246.000000	0.006343  
1245.000000	0.006348  
1244.000000	0.006309  
1243.000000	0.006253  
1242.000000	0.006205  
1241.000000	0.006164  
1240.000000	0.006134  
1239.000000	0.006123  
1238.000000	0.006118  
1237.000000	0.006092  
1236.000000	0.006052  
1235.000000	0.006031  
1234.000000	0.006028  
1233.000000	0.005989  
1232.000000	0.005883  
1231.000000	0.005739  
1230.000000	0.005609  
1229.000000	0.005514  
1228.000000	0.005463  
1227.000000	0.005469  
1226.000000	0.005525  
1225.000000	0.005585  
1224.000000	0.005603  
1223.000000	0.005578  
1222.000000	0.005543  
1221.000000	0.005504  
1220.000000	0.005450  
1219.000000	0.005384  
1218.000000	0.005342  
1217.000000	0.005357  
1216.000000	0.005427  
1215.000000	0.005513  
1214.000000	0.005559  
1213.000000	0.005523  
1212.000000	0.005421  
1211.000000	0.005330  
1210.000000	0.005322  
1209.000000	0.005386  
1208.000000	0.005436  
1207.000000	0.005417  
1206.000000	0.005354  
1205.000000	0.005307  
1204.000000	0.005288  
1203.000000	0.005265  
1202.000000	0.005226  
1201.000000	0.005198  
1200.000000	0.005202  
1199.000000	0.005223  
1198.000000	0.005239  
1197.000000	0.005251  
1196.000000	0.005265  
1195.000000	0.005276  
1194.000000	0.005294  
1193.000000	0.005345  
1192.000000	0.005432  
1191.000000	0.005496  
1190.000000	0.005473  
1189.000000	0.005366  
1188.000000	0.005243  
1187.000000	0.005171  
1186.000000	0.005164  
1185.000000	0.005209  
1184.000000	0.005286  
1183.000000	0.005376  
1182.000000	0.005463  
1181.000000	0.005547  
1180.000000	0.005623  
1179.000000	0.005675  
1178.000000	0.005701  
1177.000000	0.005743  
1176.000000	0.005854  
1175.000000	0.006038  
1174.000000	0.006253  
1173.000000	0.006471  
1172.000000	0.006690  
1171.000000	0.006890  
1170.000000	0.007019  
1169.000000	0.007055  
1168.000000	0.007034  
1167.000000	0.007007  
1166.000000	0.006994  
1165.000000	0.006983  
1164.000000	0.006953  
1163.000000	0.006889  
1162.000000	0.006805  
1161.000000	0.006773  
1160.000000	0.006858  
1159.000000	0.007040  
1158.000000	0.007216  
1157.000000	0.007306  
1156.000000	0.007316  
1155.000000	0.007275  
1154.000000	0.007169  
1153.000000	0.006985  
1152.000000	0.006769  
1151.000000	0.006605  
1150.000000	0.006535  
1149.000000	0.006555  
1148.000000	0.006643  
1147.000000	0.006769  
1146.000000	0.006871  
1145.000000	0.006883  
1144.000000	0.006786  
1143.000000	0.006619  
1142.000000	0.006443  
1141.000000	0.006295  
1140.000000	0.006174  
1139.000000	0.006065  
1138.000000	0.005979  
1137.000000	0.005967  
1136.000000	0.006050  
1135.000000	0.006150  
1134.000000	0.006143  
1133.000000	0.006003  
1132.000000	0.005827  
1131.000000	0.005717  
1130.000000	0.005678  
1129.000000	0.005674  
1128.000000	0.005703  
1127.000000	0.005766  
1126.000000	0.005809  
1125.000000	0.005775  
1124.000000	0.005688  
1123.000000	0.005625  
1122.000000	0.005609  
1121.000000	0.005602  
1120.000000	0.005583  
1119.000000	0.005570  
1118.000000	0.005576  
1117.000000	0.005596  
1116.000000	0.005639  
1115.000000	0.005725  
1114.000000	0.005839  
1113.000000	0.005925  
1112.000000	0.005942  
1111.000000	0.005886  
1110.000000	0.005759  
1109.000000	0.005581  
1108.000000	0.005421  
1107.000000	0.005377  
1106.000000	0.005479  
1105.000000	0.005644  
1104.000000	0.005744  
1103.000000	0.005714  
1102.000000	0.005597  
1101.000000	0.005503  
1100.000000	0.005526  
1099.000000	0.005655  
1098.000000	0.005788  
1097.000000	0.005840  
1096.000000	0.005844  
1095.000000	0.005892  
1094.000000	0.006005  
1093.000000	0.006107  
1092.000000	0.006126  
1091.000000	0.006070  
1090.000000	0.005978  
1089.000000	0.005849  
1088.000000	0.005686  
1087.000000	0.005542  
1086.000000	0.005493  
1085.000000	0.005552  
1084.000000	0.005654  
1083.000000	0.005723  
1082.000000	0.005732  
1081.000000	0.005709  
1080.000000	0.005715  
1079.000000	0.005801  
1078.000000	0.005969  
1077.000000	0.006167  
1076.000000	0.006346  
1075.000000	0.006504  
1074.000000	0.006668  
1073.000000	0.006831  
1072.000000	0.006934  
1071.000000	0.006927  
1070.000000	0.006834  
1069.000000	0.006731  
1068.000000	0.006661  
1067.000000	0.006592  
1066.000000	0.006482  
1065.000000	0.006357  
1064.000000	0.006295  
1063.000000	0.006321  
1062.000000	0.006368  
1061.000000	0.006351  
1060.000000	0.006266  
1059.000000	0.006187  
1058.000000	0.006177  
1057.000000	0.006251  
1056.000000	0.006411  
1055.000000	0.006642  
1054.000000	0.006867  
1053.000000	0.006934  
1052.000000	0.006740  
1051.000000	0.006370  
1050.000000	0.006065  
1049.000000	0.005998  
1048.000000	0.006133  
1047.000000	0.006300  
1046.000000	0.006381  
1045.000000	0.006384  
1044.000000	0.006390  
1043.000000	0.006476  
1042.000000	0.006664  
1041.000000	0.006906  
1040.000000	0.007093  
1039.000000	0.007126  
1038.000000	0.007005  
1037.000000	0.006831  
1036.000000	0.006722  
1035.000000	0.006725  
1034.000000	0.006830  
1033.000000	0.007008  
1032.000000	0.007206  
1031.000000	0.007334  
1030.000000	0.007328  
1029.000000	0.007228  
1028.000000	0.007142  
1027.000000	0.007129  
1026.000000	0.007152  
1025.000000	0.007150  
1024.000000	0.007108  
1023.000000	0.007051  
1022.000000	0.007000  
1021.000000	0.006963  
1020.000000	0.006940  
1019.000000	0.006907  
1018.000000	0.006846  
1017.000000	0.006786  
1016.000000	0.006802  
1015.000000	0.006921  
1014.000000	0.007076  
1013.000000	0.007157  
1012.000000	0.007117  
1011.000000	0.007004  
1010.000000	0.006906  
1009.000000	0.006886  
1008.000000	0.006955  
1007.000000	0.007060  
1006.000000	0.007131  
1005.000000	0.007141  
1004.000000	0.007120  
1003.000000	0.007112  
1002.000000	0.007126  
1001.000000	0.007144  
1000.000000	0.007138  
999.000000	 0.007074  
998.000000	 0.006929  
997.000000	 0.006747  
996.000000	 0.006630  
995.000000	 0.006649  
994.000000	 0.006761  
993.000000	 0.006849  
992.000000	 0.006842  
991.000000	 0.006770  
990.000000	 0.006723  
989.000000	 0.006779  
988.000000	 0.006942  
987.000000	 0.007133  
986.000000	 0.007244  
985.000000	 0.007245  
984.000000	 0.007218  
983.000000	 0.007259  
982.000000	 0.007366  
981.000000	 0.007461  
980.000000	 0.007499  
979.000000	 0.007516  
978.000000	 0.007566  
977.000000	 0.007663  
976.000000	 0.007782  
975.000000	 0.007891  
974.000000	 0.007968  
973.000000	 0.008004  
972.000000	 0.008025  
971.000000	 0.008077  
970.000000	 0.008187  
969.000000	 0.008349  
968.000000	 0.008522  
967.000000	 0.008648  
966.000000	 0.008669  
965.000000	 0.008566  
964.000000	 0.008397  
963.000000	 0.008270  
962.000000	 0.008261  
961.000000	 0.008346  
960.000000	 0.008433  
959.000000	 0.008440  
958.000000	 0.008360  
957.000000	 0.008267  
956.000000	 0.008247  
955.000000	 0.008309  
954.000000	 0.008365  
953.000000	 0.008326  
952.000000	 0.008202  
951.000000	 0.008090  
950.000000	 0.008065  
949.000000	 0.008116  
948.000000	 0.008190  
947.000000	 0.008261  
946.000000	 0.008340  
945.000000	 0.008442  
944.000000	 0.008564  
943.000000	 0.008676  
942.000000	 0.008737  
941.000000	 0.008715  
940.000000	 0.008605  
939.000000	 0.008433  
938.000000	 0.008238  
937.000000	 0.008063  
936.000000	 0.007935  
935.000000	 0.007858  
934.000000	 0.007816  
933.000000	 0.007812  
932.000000	 0.007881  
931.000000	 0.008027  
930.000000	 0.008160  
929.000000	 0.008158  
928.000000	 0.007992  
927.000000	 0.007778  
926.000000	 0.007663  
925.000000	 0.007687  
924.000000	 0.007780  
923.000000	 0.007865  
922.000000	 0.007914  
921.000000	 0.007920  
920.000000	 0.007868  
919.000000	 0.007762  
918.000000	 0.007657  
917.000000	 0.007625  
916.000000	 0.007690  
915.000000	 0.007786  
914.000000	 0.007814  
913.000000	 0.007713  
912.000000	 0.007506  
911.000000	 0.007289  
910.000000	 0.007188  
909.000000	 0.007271  
908.000000	 0.007498  
907.000000	 0.007723  
906.000000	 0.007812  
905.000000	 0.007751  
904.000000	 0.007653  
903.000000	 0.007638  
902.000000	 0.007728  
901.000000	 0.007862  
900.000000	 0.007985  
899.000000	 0.008107  
898.000000	 0.008255  
897.000000	 0.008423  
896.000000	 0.008563  
895.000000	 0.008628  
894.000000	 0.008621  
893.000000	 0.008583  
892.000000	 0.008569  
891.000000	 0.008614  
890.000000	 0.008716  
889.000000	 0.008840  
888.000000	 0.008924  
887.000000	 0.008918  
886.000000	 0.008817  
885.000000	 0.008661  
884.000000	 0.008486  
883.000000	 0.008288  
882.000000	 0.008065  
881.000000	 0.007873  
880.000000	 0.007808  
879.000000	 0.007905  
878.000000	 0.008094  
877.000000	 0.008259  
876.000000	 0.008334  
875.000000	 0.008317  
874.000000	 0.008223  
873.000000	 0.008053  
872.000000	 0.007809  
871.000000	 0.007542  
870.000000	 0.007376  
869.000000	 0.007439  
868.000000	 0.007725  
867.000000	 0.008045  
866.000000	 0.008171  
865.000000	 0.008044  
864.000000	 0.007797  
863.000000	 0.007594  
862.000000	 0.007502  
861.000000	 0.007529  
860.000000	 0.007685  
859.000000	 0.007937  
858.000000	 0.008153  
857.000000	 0.008208  
856.000000	 0.008140  
855.000000	 0.008123  
854.000000	 0.008280  
853.000000	 0.008566  
852.000000	 0.008857  
851.000000	 0.009086  
850.000000	 0.009255  
849.000000	 0.009363  
848.000000	 0.009365  
847.000000	 0.009243  
846.000000	 0.009055  
845.000000	 0.008891  
844.000000	 0.008781  
843.000000	 0.008669  
842.000000	 0.008501  
841.000000	 0.008320  
840.000000	 0.008229  
839.000000	 0.008277  
838.000000	 0.008406  
837.000000	 0.008501  
836.000000	 0.008466  
835.000000	 0.008244  
834.000000	 0.007861  
833.000000	 0.007471  
832.000000	 0.007285  
831.000000	 0.007384  
830.000000	 0.007619  
829.000000	 0.007780  
828.000000	 0.007845  
827.000000	 0.007976  
826.000000	 0.008279  
825.000000	 0.008656  
824.000000	 0.008926  
823.000000	 0.009007  
822.000000	 0.008945  
821.000000	 0.008854  
820.000000	 0.008863  
819.000000	 0.009049  
818.000000	 0.009389  
817.000000	 0.009781  
816.000000	 0.010134  
815.000000	 0.010387  
814.000000	 0.010486  
813.000000	 0.010403  
812.000000	 0.010215  
811.000000	 0.010094  
810.000000	 0.010186  
809.000000	 0.010501  
808.000000	 0.010942  
807.000000	 0.011376  
806.000000	 0.011675  
805.000000	 0.011731  
804.000000	 0.011508  
803.000000	 0.011084  
802.000000	 0.010603  
801.000000	 0.010175  
800.000000	 0.009811  
799.000000	 0.009463  
798.000000	 0.009102  
797.000000	 0.008760  
796.000000	 0.008501  
795.000000	 0.008342  
794.000000	 0.008243  
793.000000	 0.008167  
792.000000	 0.008149  
791.000000	 0.008231  
790.000000	 0.008367  
789.000000	 0.008422  
788.000000	 0.008326  
787.000000	 0.008177  
786.000000	 0.008169  
785.000000	 0.008402  
784.000000	 0.008810  
783.000000	 0.009254  
782.000000	 0.009671  
781.000000	 0.010096  
780.000000	 0.010555  
779.000000	 0.010987  
778.000000	 0.011295  
777.000000	 0.011477  
776.000000	 0.011641  
775.000000	 0.011883  
774.000000	 0.012198  
773.000000	 0.012522  
772.000000	 0.012826  
771.000000	 0.013115  
770.000000	 0.013372  
769.000000	 0.013558  
768.000000	 0.013669  
767.000000	 0.013713  
766.000000	 0.013637  
765.000000	 0.013364  
764.000000	 0.012926  
763.000000	 0.012507  
762.000000	 0.012291  
761.000000	 0.012285  
760.000000	 0.012347  
759.000000	 0.012356  
758.000000	 0.012322  
757.000000	 0.012337  
756.000000	 0.012462  
755.000000	 0.012676  
754.000000	 0.012891  
753.000000	 0.013016  
752.000000	 0.013013  
751.000000	 0.012921  
750.000000	 0.012837  
749.000000	 0.012858  
748.000000	 0.013059  
747.000000	 0.013508  
746.000000	 0.014294  
745.000000	 0.015489  
744.000000	 0.017040  
743.000000	 0.018682  
742.000000	 0.019999  
741.000000	 0.020642  
740.000000	 0.020548  
739.000000	 0.019947  
738.000000	 0.019162  
737.000000	 0.018400  
736.000000	 0.017729  
735.000000	 0.017177  
734.000000	 0.016805  
733.000000	 0.016675  
732.000000	 0.016776  
731.000000	 0.017015  
730.000000	 0.017302  
729.000000	 0.017666  
728.000000	 0.018256  
727.000000	 0.019197  
726.000000	 0.020442  
725.000000	 0.021754  
724.000000	 0.022862  
723.000000	 0.023590  
722.000000	 0.023817  
721.000000	 0.023388  
720.000000	 0.022181  
719.000000	 0.020322  
718.000000	 0.018224  
717.000000	 0.016371  
716.000000	 0.015038  
715.000000	 0.014158  
714.000000	 0.013418  
713.000000	 0.012553  
712.000000	 0.011567  
711.000000	 0.010660  
710.000000	 0.010005  
709.000000	 0.009635  
708.000000	 0.009510  
707.000000	 0.009586  
706.000000	 0.009829  
705.000000	 0.010188  
704.000000	 0.010609  
703.000000	 0.011021  
702.000000	 0.011343  
701.000000	 0.011548  
700.000000	 0.011686  
699.000000	 0.011766  
698.000000	 0.011613  
697.000000	 0.011006  
696.000000	 0.010018  
695.000000	 0.009104  
694.000000	 0.008673  
693.000000	 0.008615  
692.000000	 0.008382  
691.000000	 0.007594  
690.000000	 0.006453  
689.000000	 0.005492  
688.000000	 0.004980  
687.000000	 0.004712  
686.000000	 0.004411  
685.000000	 0.004107  
684.000000	 0.004017  
683.000000	 0.004223  
682.000000	 0.004605  
681.000000	 0.004973  
680.000000	 0.005165  
679.000000	 0.005104  
678.000000	 0.004870  
677.000000	 0.004668  
676.000000	 0.004635  
675.000000	 0.004646  
674.000000	 0.004504  
673.000000	 0.004306  
672.000000	 0.004325  
671.000000	 0.004460  
670.000000	 0.004231  
669.000000	 0.003119  
668.000000	 0.001203  
667.000000	 -0.000150 
666.000000	 0.000097  
665.000000	 0.001271  
664.000000	 0.002460  
663.000000	 0.003469  
662.000000	 0.004186  
661.000000	 0.004368  
660.000000	 0.004081  
659.000000	 0.003806  
658.000000	 0.003815  
657.000000	 0.003756  
656.000000	 0.003186  
655.000000	 0.002278  
654.000000	 0.001693  
653.000000	 0.001865  
652.000000	 0.002565  
651.000000	 0.003191  
650.000000	 0.003367  

