PE IR                   SPECTRUM    ASCII       PEDS        1.60        
  -1
NB4-02~2.ASC
17/04/10
13:15:48.00
17/04/10
13:15:48.00
Admin

650.000000
6









SPECTRUM ONE,CPU32 MAIN 00.02.5000 17-APRIL-2002 13:00:00
MIR TGS
MIR
OPTKBR
68128
0.200000

4.000000
STRONG
RATIO
SPECTRUM
MAGNITUDE

DOUBLE

COMBINED


0


#HDR
-1
-1
#GR
CM-1
A
0.00000011920928955078
0.0
4000.000000
-1.000000
3351
8
0.220087
-0.004392
#DATA
4000.000000	0.001399  
3999.000000	0.001396  
3998.000000	0.001448  
3997.000000	0.001591  
3996.000000	0.001720  
3995.000000	0.001879  
3994.000000	0.001943  
3993.000000	0.001887  
3992.000000	0.001742  
3991.000000	0.001574  
3990.000000	0.001441  
3989.000000	0.001363  
3988.000000	0.001313  
3987.000000	0.001258  
3986.000000	0.001201  
3985.000000	0.001185  
3984.000000	0.001228  
3983.000000	0.001284  
3982.000000	0.001282  
3981.000000	0.001208  
3980.000000	0.001120  
3979.000000	0.001093  
3978.000000	0.001142  
3977.000000	0.001221  
3976.000000	0.001292  
3975.000000	0.001354  
3974.000000	0.001424  
3973.000000	0.001486  
3972.000000	0.001497  
3971.000000	0.001440  
3970.000000	0.001338  
3969.000000	0.001235  
3968.000000	0.001149  
3967.000000	0.001079  
3966.000000	0.001038  
3965.000000	0.001057  
3964.000000	0.001156  
3963.000000	0.001306  
3962.000000	0.001443  
3961.000000	0.001522  
3960.000000	0.001540  
3959.000000	0.001522  
3958.000000	0.001483  
3957.000000	0.001427  
3956.000000	0.001364  
3955.000000	0.001316  
3954.000000	0.001301  
3953.000000	0.001314  
3952.000000	0.001327  
3951.000000	0.001325  
3950.000000	0.001322  
3949.000000	0.001355  
3948.000000	0.001452  
3947.000000	0.001587  
3946.000000	0.001682  
3945.000000	0.001656  
3944.000000	0.001486  
3943.000000	0.001241  
3942.000000	0.001038  
3941.000000	0.000946  
3940.000000	0.000972  
3939.000000	0.001096  
3938.000000	0.001299  
3937.000000	0.001544  
3936.000000	0.001756  
3935.000000	0.001866  
3934.000000	0.001856  
3933.000000	0.001779  
3932.000000	0.001716  
3931.000000	0.001719  
3930.000000	0.001784  
3929.000000	0.001881  
3928.000000	0.001973  
3927.000000	0.002030  
3926.000000	0.002035  
3925.000000	0.002008  
3924.000000	0.002006  
3923.000000	0.002064  
3922.000000	0.002159  
3921.000000	0.002233  
3920.000000	0.002236  
3919.000000	0.002147  
3918.000000	0.001979  
3917.000000	0.001778  
3916.000000	0.001605  
3915.000000	0.001504  
3914.000000	0.001477  
3913.000000	0.001481  
3912.000000	0.001465  
3911.000000	0.001416  
3910.000000	0.001378  
3909.000000	0.001425  
3908.000000	0.001582  
3907.000000	0.001787  
3906.000000	0.001920  
3905.000000	0.001896  
3904.000000	0.001754  
3903.000000	0.001616  
3902.000000	0.001561  
3901.000000	0.001601  
3900.000000	0.001723  
3899.000000	0.001894  
3898.000000	0.002039  
3897.000000	0.002066  
3896.000000	0.001953  
3895.000000	0.001767  
3894.000000	0.001603  
3893.000000	0.001512  
3892.000000	0.001484  
3891.000000	0.001501  
3890.000000	0.001543  
3889.000000	0.001577  
3888.000000	0.001592  
3887.000000	0.001598  
3886.000000	0.001606  
3885.000000	0.001627  
3884.000000	0.001645  
3883.000000	0.001609  
3882.000000	0.001507  
3881.000000	0.001388  
3880.000000	0.001339  
3879.000000	0.001396  
3878.000000	0.001515  
3877.000000	0.001666  
3876.000000	0.001858  
3875.000000	0.002090  
3874.000000	0.002333  
3873.000000	0.002550  
3872.000000	0.002687  
3871.000000	0.002709  
3870.000000	0.002654  
3869.000000	0.002595  
3868.000000	0.002529  
3867.000000	0.002405  
3866.000000	0.002228  
3865.000000	0.002054  
3864.000000	0.001934  
3863.000000	0.001873  
3862.000000	0.001839  
3861.000000	0.001791  
3860.000000	0.001715  
3859.000000	0.001627  
3858.000000	0.001555  
3857.000000	0.001532  
3856.000000	0.001566  
3855.000000	0.001603  
3854.000000	0.001557  
3853.000000	0.001512  
3852.000000	0.001581  
3851.000000	0.001694  
3850.000000	0.001808  
3849.000000	0.001961  
3848.000000	0.002176  
3847.000000	0.002419  
3846.000000	0.002639  
3845.000000	0.002833  
3844.000000	0.003047  
3843.000000	0.003297  
3842.000000	0.003513  
3841.000000	0.003574  
3840.000000	0.003414  
3839.000000	0.003103  
3838.000000	0.002808  
3837.000000	0.002646  
3836.000000	0.002628  
3835.000000	0.002715  
3834.000000	0.002861  
3833.000000	0.003005  
3832.000000	0.003081  
3831.000000	0.003065  
3830.000000	0.002974  
3829.000000	0.002829  
3828.000000	0.002638  
3827.000000	0.002419  
3826.000000	0.002257  
3825.000000	0.002272  
3824.000000	0.002549  
3823.000000	0.003041  
3822.000000	0.003500  
3821.000000	0.003652  
3820.000000	0.003455  
3819.000000	0.003015  
3818.000000	0.002485  
3817.000000	0.002059  
3816.000000	0.001871  
3815.000000	0.001897  
3814.000000	0.001985  
3813.000000	0.002009  
3812.000000	0.001956  
3811.000000	0.001866  
3810.000000	0.001757  
3809.000000	0.001649  
3808.000000	0.001607  
3807.000000	0.001737  
3806.000000	0.002066  
3805.000000	0.002481  
3804.000000	0.002816  
3803.000000	0.002941  
3802.000000	0.002836  
3801.000000	0.002655  
3800.000000	0.002544  
3799.000000	0.002482  
3798.000000	0.002416  
3797.000000	0.002355  
3796.000000	0.002334  
3795.000000	0.002346  
3794.000000	0.002340  
3793.000000	0.002279  
3792.000000	0.002167  
3791.000000	0.002028  
3790.000000	0.001884  
3789.000000	0.001759  
3788.000000	0.001683  
3787.000000	0.001668  
3786.000000	0.001695  
3785.000000	0.001730  
3784.000000	0.001762  
3783.000000	0.001797  
3782.000000	0.001842  
3781.000000	0.001888  
3780.000000	0.001924  
3779.000000	0.001953  
3778.000000	0.001978  
3777.000000	0.001973  
3776.000000	0.001915  
3775.000000	0.001815  
3774.000000	0.001707  
3773.000000	0.001619  
3772.000000	0.001580  
3771.000000	0.001632  
3770.000000	0.001813  
3769.000000	0.002082  
3768.000000	0.002301  
3767.000000	0.002331  
3766.000000	0.002163  
3765.000000	0.001929  
3764.000000	0.001787  
3763.000000	0.001797  
3762.000000	0.001917  
3761.000000	0.002064  
3760.000000	0.002171  
3759.000000	0.002232  
3758.000000	0.002276  
3757.000000	0.002291  
3756.000000	0.002239  
3755.000000	0.002161  
3754.000000	0.002252  
3753.000000	0.002723  
3752.000000	0.003469  
3751.000000	0.003984  
3750.000000	0.003902  
3749.000000	0.003384  
3748.000000	0.002823  
3747.000000	0.002507  
3746.000000	0.002514  
3745.000000	0.002724  
3744.000000	0.002970  
3743.000000	0.003131  
3742.000000	0.003139  
3741.000000	0.003049  
3740.000000	0.003010  
3739.000000	0.003158  
3738.000000	0.003492  
3737.000000	0.003831  
3736.000000	0.003932  
3735.000000	0.003739  
3734.000000	0.003434  
3733.000000	0.003191  
3732.000000	0.003050  
3731.000000	0.002970  
3730.000000	0.002898  
3729.000000	0.002812  
3728.000000	0.002702  
3727.000000	0.002571  
3726.000000	0.002442  
3725.000000	0.002339  
3724.000000	0.002259  
3723.000000	0.002169  
3722.000000	0.002027  
3721.000000	0.001802  
3720.000000	0.001512  
3719.000000	0.001236  
3718.000000	0.001072  
3717.000000	0.001062  
3716.000000	0.001156  
3715.000000	0.001259  
3714.000000	0.001308  
3713.000000	0.001324  
3712.000000	0.001394  
3711.000000	0.001578  
3710.000000	0.001812  
3709.000000	0.001982  
3708.000000	0.002069  
3707.000000	0.002160  
3706.000000	0.002323  
3705.000000	0.002502  
3704.000000	0.002553  
3703.000000	0.002377  
3702.000000	0.002054  
3701.000000	0.001790  
3700.000000	0.001696  
3699.000000	0.001701  
3698.000000	0.001677  
3697.000000	0.001586  
3696.000000	0.001521  
3695.000000	0.001613  
3694.000000	0.001905  
3693.000000	0.002302  
3692.000000	0.002598  
3691.000000	0.002610  
3690.000000	0.002355  
3689.000000	0.002060  
3688.000000	0.001904  
3687.000000	0.001850  
3686.000000	0.001808  
3685.000000	0.001780  
3684.000000	0.001830  
3683.000000	0.001968  
3682.000000	0.002094  
3681.000000	0.002071  
3680.000000	0.001865  
3679.000000	0.001595  
3678.000000	0.001455  
3677.000000	0.001563  
3676.000000	0.001864  
3675.000000	0.002218  
3674.000000	0.002495  
3673.000000	0.002624  
3672.000000	0.002674  
3671.000000	0.002737  
3670.000000	0.002808  
3669.000000	0.002848  
3668.000000	0.002799  
3667.000000	0.002619  
3666.000000	0.002332  
3665.000000	0.001988  
3664.000000	0.001614  
3663.000000	0.001236  
3662.000000	0.000891  
3661.000000	0.000621  
3660.000000	0.000453  
3659.000000	0.000403  
3658.000000	0.000499  
3657.000000	0.000766  
3656.000000	0.001186  
3655.000000	0.001656  
3654.000000	0.002039  
3653.000000	0.002252  
3652.000000	0.002295  
3651.000000	0.002211  
3650.000000	0.002049  
3649.000000	0.001889  
3648.000000	0.001801  
3647.000000	0.001792  
3646.000000	0.001822  
3645.000000	0.001853  
3644.000000	0.001876  
3643.000000	0.001915  
3642.000000	0.001999  
3641.000000	0.002100  
3640.000000	0.002130  
3639.000000	0.002021  
3638.000000	0.001826  
3637.000000	0.001691  
3636.000000	0.001733  
3635.000000	0.001929  
3634.000000	0.002137  
3633.000000	0.002225  
3632.000000	0.002170  
3631.000000	0.002081  
3630.000000	0.002086  
3629.000000	0.002207  
3628.000000	0.002346  
3627.000000	0.002356  
3626.000000	0.002202  
3625.000000	0.002022  
3624.000000	0.001956  
3623.000000	0.001997  
3622.000000	0.002010  
3621.000000	0.001879  
3620.000000	0.001643  
3619.000000	0.001474  
3618.000000	0.001473  
3617.000000	0.001562  
3616.000000	0.001613  
3615.000000	0.001592  
3614.000000	0.001568  
3613.000000	0.001629  
3612.000000	0.001803  
3611.000000	0.002029  
3610.000000	0.002208  
3609.000000	0.002253  
3608.000000	0.002152  
3607.000000	0.001972  
3606.000000	0.001778  
3605.000000	0.001590  
3604.000000	0.001423  
3603.000000	0.001320  
3602.000000	0.001354  
3601.000000	0.001582  
3600.000000	0.001977  
3599.000000	0.002389  
3598.000000	0.002606  
3597.000000	0.002494  
3596.000000	0.002121  
3595.000000	0.001732  
3594.000000	0.001555  
3593.000000	0.001591  
3592.000000	0.001664  
3591.000000	0.001639  
3590.000000	0.001551  
3589.000000	0.001538  
3588.000000	0.001681  
3587.000000	0.001913  
3586.000000	0.002080  
3585.000000	0.002059  
3584.000000	0.001848  
3583.000000	0.001558  
3582.000000	0.001337  
3581.000000	0.001293  
3580.000000	0.001426  
3579.000000	0.001609  
3578.000000	0.001679  
3577.000000	0.001566  
3576.000000	0.001351  
3575.000000	0.001170  
3574.000000	0.001081  
3573.000000	0.001031  
3572.000000	0.000961  
3571.000000	0.000907  
3570.000000	0.000966  
3569.000000	0.001174  
3568.000000	0.001402  
3567.000000	0.001486  
3566.000000	0.001442  
3565.000000	0.001413  
3564.000000	0.001481  
3563.000000	0.001617  
3562.000000	0.001731  
3561.000000	0.001771  
3560.000000	0.001782  
3559.000000	0.001838  
3558.000000	0.001931  
3557.000000	0.001955  
3556.000000	0.001819  
3555.000000	0.001541  
3554.000000	0.001233  
3553.000000	0.001013  
3552.000000	0.000937  
3551.000000	0.000990  
3550.000000	0.001104  
3549.000000	0.001191  
3548.000000	0.001188  
3547.000000	0.001120  
3546.000000	0.001087  
3545.000000	0.001169  
3544.000000	0.001328  
3543.000000	0.001474  
3542.000000	0.001576  
3541.000000	0.001679  
3540.000000	0.001808  
3539.000000	0.001890  
3538.000000	0.001814  
3537.000000	0.001558  
3536.000000	0.001244  
3535.000000	0.001037  
3534.000000	0.001011  
3533.000000	0.001121  
3532.000000	0.001288  
3531.000000	0.001462  
3530.000000	0.001621  
3529.000000	0.001739  
3528.000000	0.001783  
3527.000000	0.001732  
3526.000000	0.001590  
3525.000000	0.001384  
3524.000000	0.001167  
3523.000000	0.001020  
3522.000000	0.001002  
3521.000000	0.001092  
3520.000000	0.001217  
3519.000000	0.001319  
3518.000000	0.001397  
3517.000000	0.001476  
3516.000000	0.001557  
3515.000000	0.001614  
3514.000000	0.001629  
3513.000000	0.001601  
3512.000000	0.001542  
3511.000000	0.001486  
3510.000000	0.001483  
3509.000000	0.001559  
3508.000000	0.001666  
3507.000000	0.001721  
3506.000000	0.001683  
3505.000000	0.001587  
3504.000000	0.001504  
3503.000000	0.001480  
3502.000000	0.001509  
3501.000000	0.001552  
3500.000000	0.001579  
3499.000000	0.001592  
3498.000000	0.001614  
3497.000000	0.001650  
3496.000000	0.001679  
3495.000000	0.001687  
3494.000000	0.001693  
3493.000000	0.001707  
3492.000000	0.001678  
3491.000000	0.001543  
3490.000000	0.001319  
3489.000000	0.001125  
3488.000000	0.001081  
3487.000000	0.001206  
3486.000000	0.001431  
3485.000000	0.001671  
3484.000000	0.001846  
3483.000000	0.001882  
3482.000000	0.001748  
3481.000000	0.001504  
3480.000000	0.001265  
3479.000000	0.001117  
3478.000000	0.001079  
3477.000000	0.001127  
3476.000000	0.001223  
3475.000000	0.001327  
3474.000000	0.001413  
3473.000000	0.001483  
3472.000000	0.001540  
3471.000000	0.001561  
3470.000000	0.001504  
3469.000000	0.001364  
3468.000000	0.001201  
3467.000000	0.001100  
3466.000000	0.001099  
3465.000000	0.001163  
3464.000000	0.001205  
3463.000000	0.001161  
3462.000000	0.001044  
3461.000000	0.000934  
3460.000000	0.000901  
3459.000000	0.000953  
3458.000000	0.001051  
3457.000000	0.001163  
3456.000000	0.001265  
3455.000000	0.001332  
3454.000000	0.001355  
3453.000000	0.001371  
3452.000000	0.001433  
3451.000000	0.001536  
3450.000000	0.001610  
3449.000000	0.001598  
3448.000000	0.001516  
3447.000000	0.001446  
3446.000000	0.001446  
3445.000000	0.001515  
3444.000000	0.001601  
3443.000000	0.001640  
3442.000000	0.001601  
3441.000000	0.001521  
3440.000000	0.001491  
3439.000000	0.001564  
3438.000000	0.001687  
3437.000000	0.001737  
3436.000000	0.001633  
3435.000000	0.001417  
3434.000000	0.001233  
3433.000000	0.001209  
3432.000000	0.001359  
3431.000000	0.001564  
3430.000000	0.001670  
3429.000000	0.001597  
3428.000000	0.001374  
3427.000000	0.001092  
3426.000000	0.000844  
3425.000000	0.000698  
3424.000000	0.000679  
3423.000000	0.000751  
3422.000000	0.000841  
3421.000000	0.000912  
3420.000000	0.000995  
3419.000000	0.001135  
3418.000000	0.001318  
3417.000000	0.001480  
3416.000000	0.001565  
3415.000000	0.001559  
3414.000000	0.001487  
3413.000000	0.001414  
3412.000000	0.001423  
3411.000000	0.001555  
3410.000000	0.001742  
3409.000000	0.001838  
3408.000000	0.001732  
3407.000000	0.001449  
3406.000000	0.001127  
3405.000000	0.000910  
3404.000000	0.000861  
3403.000000	0.000947  
3402.000000	0.001100  
3401.000000	0.001264  
3400.000000	0.001388  
3399.000000	0.001417  
3398.000000	0.001338  
3397.000000	0.001225  
3396.000000	0.001208  
3395.000000	0.001358  
3394.000000	0.001605  
3393.000000	0.001801  
3392.000000	0.001843  
3391.000000	0.001740  
3390.000000	0.001588  
3389.000000	0.001494  
3388.000000	0.001501  
3387.000000	0.001554  
3386.000000	0.001555  
3385.000000	0.001475  
3384.000000	0.001407  
3383.000000	0.001466  
3382.000000	0.001651  
3381.000000	0.001843  
3380.000000	0.001932  
3379.000000	0.001897  
3378.000000	0.001756  
3377.000000	0.001504  
3376.000000	0.001158  
3375.000000	0.000816  
3374.000000	0.000621  
3373.000000	0.000632  
3372.000000	0.000783  
3371.000000	0.000971  
3370.000000	0.001167  
3369.000000	0.001394  
3368.000000	0.001638  
3367.000000	0.001818  
3366.000000	0.001865  
3365.000000	0.001801  
3364.000000	0.001708  
3363.000000	0.001641  
3362.000000	0.001602  
3361.000000	0.001582  
3360.000000	0.001594  
3359.000000	0.001638  
3358.000000	0.001679  
3357.000000	0.001683  
3356.000000	0.001653  
3355.000000	0.001614  
3354.000000	0.001567  
3353.000000	0.001502  
3352.000000	0.001443  
3351.000000	0.001429  
3350.000000	0.001462  
3349.000000	0.001503  
3348.000000	0.001541  
3347.000000	0.001608  
3346.000000	0.001723  
3345.000000	0.001829  
3344.000000	0.001839  
3343.000000	0.001729  
3342.000000	0.001565  
3341.000000	0.001431  
3340.000000	0.001351  
3339.000000	0.001292  
3338.000000	0.001229  
3337.000000	0.001188  
3336.000000	0.001211  
3335.000000	0.001294  
3334.000000	0.001381  
3333.000000	0.001430  
3332.000000	0.001453  
3331.000000	0.001489  
3330.000000	0.001546  
3329.000000	0.001599  
3328.000000	0.001636  
3327.000000	0.001666  
3326.000000	0.001692  
3325.000000	0.001694  
3324.000000	0.001662  
3323.000000	0.001617  
3322.000000	0.001579  
3321.000000	0.001539  
3320.000000	0.001484  
3319.000000	0.001441  
3318.000000	0.001463  
3317.000000	0.001565  
3316.000000	0.001691  
3315.000000	0.001763  
3314.000000	0.001759  
3313.000000	0.001726  
3312.000000	0.001729  
3311.000000	0.001789  
3310.000000	0.001877  
3309.000000	0.001927  
3308.000000	0.001876  
3307.000000	0.001700  
3306.000000	0.001455  
3305.000000	0.001268  
3304.000000	0.001244  
3303.000000	0.001377  
3302.000000	0.001568  
3301.000000	0.001727  
3300.000000	0.001822  
3299.000000	0.001837  
3298.000000	0.001745  
3297.000000	0.001560  
3296.000000	0.001385  
3295.000000	0.001336  
3294.000000	0.001436  
3293.000000	0.001614  
3292.000000	0.001804  
3291.000000	0.001974  
3290.000000	0.002076  
3289.000000	0.002039  
3288.000000	0.001858  
3287.000000	0.001625  
3286.000000	0.001448  
3285.000000	0.001348  
3284.000000	0.001284  
3283.000000	0.001238  
3282.000000	0.001238  
3281.000000	0.001305  
3280.000000	0.001412  
3279.000000	0.001517  
3278.000000	0.001597  
3277.000000	0.001651  
3276.000000	0.001689  
3275.000000	0.001731  
3274.000000	0.001806  
3273.000000	0.001922  
3272.000000	0.002036  
3271.000000	0.002066  
3270.000000	0.001964  
3269.000000	0.001755  
3268.000000	0.001511  
3267.000000	0.001295  
3266.000000	0.001163  
3265.000000	0.001170  
3264.000000	0.001340  
3263.000000	0.001601  
3262.000000	0.001805  
3261.000000	0.001867  
3260.000000	0.001851  
3259.000000	0.001883  
3258.000000	0.001993  
3257.000000	0.002078  
3256.000000	0.002026  
3255.000000	0.001844  
3254.000000	0.001659  
3253.000000	0.001609  
3252.000000	0.001733  
3251.000000	0.001931  
3250.000000	0.002059  
3249.000000	0.002064  
3248.000000	0.002035  
3247.000000	0.002071  
3246.000000	0.002142  
3245.000000	0.002133  
3244.000000	0.002024  
3243.000000	0.001928  
3242.000000	0.001936  
3241.000000	0.001999  
3240.000000	0.001999  
3239.000000	0.001883  
3238.000000	0.001686  
3237.000000	0.001466  
3236.000000	0.001267  
3235.000000	0.001130  
3234.000000	0.001073  
3233.000000	0.001087  
3232.000000	0.001165  
3231.000000	0.001323  
3230.000000	0.001549  
3229.000000	0.001769  
3228.000000	0.001895  
3227.000000	0.001915  
3226.000000	0.001889  
3225.000000	0.001879  
3224.000000	0.001910  
3223.000000	0.001978  
3222.000000	0.002044  
3221.000000	0.002039  
3220.000000	0.001926  
3219.000000	0.001760  
3218.000000	0.001656  
3217.000000	0.001686  
3216.000000	0.001825  
3215.000000	0.001999  
3214.000000	0.002143  
3213.000000	0.002225  
3212.000000	0.002249  
3211.000000	0.002237  
3210.000000	0.002210  
3209.000000	0.002178  
3208.000000	0.002164  
3207.000000	0.002204  
3206.000000	0.002307  
3205.000000	0.002429  
3204.000000	0.002518  
3203.000000	0.002580  
3202.000000	0.002640  
3201.000000	0.002658  
3200.000000	0.002555  
3199.000000	0.002315  
3198.000000	0.002022  
3197.000000	0.001765  
3196.000000	0.001557  
3195.000000	0.001381  
3194.000000	0.001266  
3193.000000	0.001257  
3192.000000	0.001355  
3191.000000	0.001526  
3190.000000	0.001761  
3189.000000	0.002067  
3188.000000	0.002391  
3187.000000	0.002620  
3186.000000	0.002680  
3185.000000	0.002601  
3184.000000	0.002470  
3183.000000	0.002339  
3182.000000	0.002216  
3181.000000	0.002104  
3180.000000	0.002013  
3179.000000	0.001932  
3178.000000	0.001833  
3177.000000	0.001735  
3176.000000	0.001718  
3175.000000	0.001843  
3174.000000	0.002062  
3173.000000	0.002248  
3172.000000	0.002308  
3171.000000	0.002260  
3170.000000	0.002187  
3169.000000	0.002153  
3168.000000	0.002165  
3167.000000	0.002196  
3166.000000	0.002216  
3165.000000	0.002222  
3164.000000	0.002232  
3163.000000	0.002260  
3162.000000	0.002286  
3161.000000	0.002281  
3160.000000	0.002264  
3159.000000	0.002296  
3158.000000	0.002416  
3157.000000	0.002581  
3156.000000	0.002699  
3155.000000	0.002714  
3154.000000	0.002660  
3153.000000	0.002617  
3152.000000	0.002625  
3151.000000	0.002630  
3150.000000	0.002530  
3149.000000	0.002290  
3148.000000	0.001998  
3147.000000	0.001787  
3146.000000	0.001718  
3145.000000	0.001760  
3144.000000	0.001870  
3143.000000	0.002024  
3142.000000	0.002173  
3141.000000	0.002242  
3140.000000	0.002216  
3139.000000	0.002180  
3138.000000	0.002227  
3137.000000	0.002344  
3136.000000	0.002436  
3135.000000	0.002437  
3134.000000	0.002355  
3133.000000	0.002245  
3132.000000	0.002172  
3131.000000	0.002192  
3130.000000	0.002300  
3129.000000	0.002417  
3128.000000	0.002447  
3127.000000	0.002376  
3126.000000	0.002265  
3125.000000	0.002177  
3124.000000	0.002136  
3123.000000	0.002159  
3122.000000	0.002256  
3121.000000	0.002393  
3120.000000	0.002490  
3119.000000	0.002485  
3118.000000	0.002388  
3117.000000	0.002271  
3116.000000	0.002225  
3115.000000	0.002299  
3114.000000	0.002460  
3113.000000	0.002600  
3112.000000	0.002632  
3111.000000	0.002564  
3110.000000	0.002475  
3109.000000	0.002409  
3108.000000	0.002345  
3107.000000	0.002253  
3106.000000	0.002147  
3105.000000	0.002079  
3104.000000	0.002097  
3103.000000	0.002225  
3102.000000	0.002431  
3101.000000	0.002612  
3100.000000	0.002649  
3099.000000	0.002505  
3098.000000	0.002259  
3097.000000	0.002050  
3096.000000	0.001981  
3095.000000	0.002069  
3094.000000	0.002242  
3093.000000	0.002395  
3092.000000	0.002476  
3091.000000	0.002520  
3090.000000	0.002597  
3089.000000	0.002708  
3088.000000	0.002788  
3087.000000	0.002801  
3086.000000	0.002779  
3085.000000	0.002766  
3084.000000	0.002758  
3083.000000	0.002734  
3082.000000	0.002713  
3081.000000	0.002746  
3080.000000	0.002863  
3079.000000	0.003039  
3078.000000	0.003220  
3077.000000	0.003346  
3076.000000	0.003383  
3075.000000	0.003332  
3074.000000	0.003221  
3073.000000	0.003094  
3072.000000	0.003007  
3071.000000	0.003029  
3070.000000	0.003189  
3069.000000	0.003424  
3068.000000	0.003610  
3067.000000	0.003666  
3066.000000	0.003631  
3065.000000	0.003612  
3064.000000	0.003685  
3063.000000	0.003832  
3062.000000	0.003966  
3061.000000	0.003999  
3060.000000	0.003912  
3059.000000	0.003776  
3058.000000	0.003681  
3057.000000	0.003641  
3056.000000	0.003614  
3055.000000	0.003593  
3054.000000	0.003628  
3053.000000	0.003730  
3052.000000	0.003815  
3051.000000	0.003805  
3050.000000	0.003742  
3049.000000	0.003747  
3048.000000	0.003871  
3047.000000	0.004047  
3046.000000	0.004179  
3045.000000	0.004230  
3044.000000	0.004215  
3043.000000	0.004154  
3042.000000	0.004072  
3041.000000	0.004014  
3040.000000	0.004036  
3039.000000	0.004160  
3038.000000	0.004353  
3037.000000	0.004536  
3036.000000	0.004626  
3035.000000	0.004601  
3034.000000	0.004504  
3033.000000	0.004413  
3032.000000	0.004392  
3031.000000	0.004479  
3030.000000	0.004675  
3029.000000	0.004922  
3028.000000	0.005126  
3027.000000	0.005227  
3026.000000	0.005258  
3025.000000	0.005309  
3024.000000	0.005446  
3023.000000	0.005665  
3022.000000	0.005910  
3021.000000	0.006099  
3020.000000	0.006162  
3019.000000	0.006112  
3018.000000	0.006058  
3017.000000	0.006123  
3016.000000	0.006330  
3015.000000	0.006600  
3014.000000	0.006853  
3013.000000	0.007060  
3012.000000	0.007219  
3011.000000	0.007324  
3010.000000	0.007390  
3009.000000	0.007468  
3008.000000	0.007609  
3007.000000	0.007814  
3006.000000	0.008029  
3005.000000	0.008184  
3004.000000	0.008221  
3003.000000	0.008136  
3002.000000	0.008006  
3001.000000	0.007972  
3000.000000	0.008140  
2999.000000	0.008498  
2998.000000	0.008920  
2997.000000	0.009255  
2996.000000	0.009432  
2995.000000	0.009491  
2994.000000	0.009563  
2993.000000	0.009790  
2992.000000	0.010231  
2991.000000	0.010828  
2990.000000	0.011460  
2989.000000	0.012043  
2988.000000	0.012586  
2987.000000	0.013172  
2986.000000	0.013891  
2985.000000	0.014787  
2984.000000	0.015839  
2983.000000	0.016992  
2982.000000	0.018216  
2981.000000	0.019526  
2980.000000	0.020972  
2979.000000	0.022604  
2978.000000	0.024472  
2977.000000	0.026636  
2976.000000	0.029157  
2975.000000	0.032075  
2974.000000	0.035393  
2973.000000	0.039078  
2972.000000	0.043063  
2971.000000	0.047281  
2970.000000	0.051722  
2969.000000	0.056472  
2968.000000	0.061644  
2967.000000	0.067230  
2966.000000	0.073036  
2965.000000	0.078794  
2964.000000	0.084333  
2963.000000	0.089629  
2962.000000	0.094707  
2961.000000	0.099555  
2960.000000	0.104124  
2959.000000	0.108326  
2958.000000	0.112017  
2957.000000	0.115019  
2956.000000	0.117201  
2955.000000	0.118513  
2954.000000	0.118930  
2953.000000	0.118416  
2952.000000	0.117003  
2951.000000	0.114863  
2950.000000	0.112290  
2949.000000	0.109589  
2948.000000	0.107011  
2947.000000	0.104764  
2946.000000	0.103033  
2945.000000	0.101979  
2944.000000	0.101735  
2943.000000	0.102400  
2942.000000	0.104030  
2941.000000	0.106615  
2940.000000	0.110091  
2939.000000	0.114383  
2938.000000	0.119440  
2937.000000	0.125210  
2936.000000	0.131576  
2935.000000	0.138352  
2934.000000	0.145385  
2933.000000	0.152655  
2932.000000	0.160250  
2931.000000	0.168205  
2930.000000	0.176389  
2929.000000	0.184546  
2928.000000	0.192413  
2927.000000	0.199736  
2926.000000	0.206248  
2925.000000	0.211703  
2924.000000	0.215933  
2923.000000	0.218793  
2922.000000	0.220087  
2921.000000	0.219693  
2920.000000	0.217743  
2919.000000	0.214587  
2918.000000	0.210550  
2917.000000	0.205816  
2916.000000	0.200548  
2915.000000	0.194982  
2914.000000	0.189345  
2913.000000	0.183753  
2912.000000	0.178255  
2911.000000	0.172945  
2910.000000	0.167961  
2909.000000	0.163355  
2908.000000	0.159015  
2907.000000	0.154730  
2906.000000	0.150348  
2905.000000	0.145873  
2904.000000	0.141431  
2903.000000	0.137160  
2902.000000	0.133121  
2901.000000	0.129278  
2900.000000	0.125548  
2899.000000	0.121841  
2898.000000	0.118113  
2897.000000	0.114393  
2896.000000	0.110760  
2895.000000	0.107272  
2894.000000	0.103914  
2893.000000	0.100608  
2892.000000	0.097271  
2891.000000	0.093869  
2890.000000	0.090473  
2889.000000	0.087243  
2888.000000	0.084356  
2887.000000	0.081904  
2886.000000	0.079865  
2885.000000	0.078190  
2884.000000	0.076896  
2883.000000	0.076065  
2882.000000	0.075780  
2881.000000	0.076078  
2880.000000	0.076995  
2879.000000	0.078598  
2878.000000	0.080956  
2877.000000	0.084026  
2876.000000	0.087579  
2875.000000	0.091228  
2874.000000	0.094557  
2873.000000	0.097253  
2872.000000	0.099169  
2871.000000	0.100303  
2870.000000	0.100772  
2869.000000	0.100824  
2868.000000	0.100797  
2867.000000	0.101004  
2866.000000	0.101643  
2865.000000	0.102831  
2864.000000	0.104674  
2863.000000	0.107255  
2862.000000	0.110543  
2861.000000	0.114394  
2860.000000	0.118660  
2859.000000	0.123241  
2858.000000	0.127991  
2857.000000	0.132606  
2856.000000	0.136631  
2855.000000	0.139561  
2854.000000	0.140948  
2853.000000	0.140513  
2852.000000	0.138235  
2851.000000	0.134338  
2850.000000	0.129152  
2849.000000	0.122990  
2848.000000	0.116137  
2847.000000	0.108899  
2846.000000	0.101576  
2845.000000	0.094375  
2844.000000	0.087356  
2843.000000	0.080502  
2842.000000	0.073835  
2841.000000	0.067460  
2840.000000	0.061495  
2839.000000	0.056000  
2838.000000	0.050984  
2837.000000	0.046459  
2836.000000	0.042428  
2835.000000	0.038838  
2834.000000	0.035584  
2833.000000	0.032595  
2832.000000	0.029878  
2831.000000	0.027494  
2830.000000	0.025482  
2829.000000	0.023822  
2828.000000	0.022436  
2827.000000	0.021221  
2826.000000	0.020088  
2825.000000	0.018998  
2824.000000	0.017975  
2823.000000	0.017070  
2822.000000	0.016315  
2821.000000	0.015698  
2820.000000	0.015170  
2819.000000	0.014673  
2818.000000	0.014164  
2817.000000	0.013636  
2816.000000	0.013112  
2815.000000	0.012615  
2814.000000	0.012144  
2813.000000	0.011683  
2812.000000	0.011231  
2811.000000	0.010817  
2810.000000	0.010481  
2809.000000	0.010250  
2808.000000	0.010125  
2807.000000	0.010070  
2806.000000	0.010024  
2805.000000	0.009921  
2804.000000	0.009724  
2803.000000	0.009432  
2802.000000	0.009080  
2801.000000	0.008725  
2800.000000	0.008428  
2799.000000	0.008218  
2798.000000	0.008070  
2797.000000	0.007934  
2796.000000	0.007796  
2795.000000	0.007678  
2794.000000	0.007569  
2793.000000	0.007404  
2792.000000	0.007120  
2791.000000	0.006757  
2790.000000	0.006444  
2789.000000	0.006283  
2788.000000	0.006262  
2787.000000	0.006285  
2786.000000	0.006267  
2785.000000	0.006185  
2784.000000	0.006055  
2783.000000	0.005910  
2782.000000	0.005796  
2781.000000	0.005757  
2780.000000	0.005808  
2779.000000	0.005900  
2778.000000	0.005936  
2777.000000	0.005830  
2776.000000	0.005569  
2775.000000	0.005234  
2774.000000	0.004953  
2773.000000	0.004829  
2772.000000	0.004867  
2771.000000	0.004977  
2770.000000	0.005041  
2769.000000	0.004992  
2768.000000	0.004844  
2767.000000	0.004660  
2766.000000	0.004508  
2765.000000	0.004431  
2764.000000	0.004441  
2763.000000	0.004514  
2762.000000	0.004590  
2761.000000	0.004615  
2760.000000	0.004576  
2759.000000	0.004501  
2758.000000	0.004425  
2757.000000	0.004367  
2756.000000	0.004333  
2755.000000	0.004328  
2754.000000	0.004345  
2753.000000	0.004365  
2752.000000	0.004378  
2751.000000	0.004391  
2750.000000	0.004420  
2749.000000	0.004460  
2748.000000	0.004485  
2747.000000	0.004470  
2746.000000	0.004415  
2745.000000	0.004356  
2744.000000	0.004339  
2743.000000	0.004379  
2742.000000	0.004448  
2741.000000	0.004510  
2740.000000	0.004561  
2739.000000	0.004630  
2738.000000	0.004726  
2737.000000	0.004832  
2736.000000	0.004937  
2735.000000	0.005051  
2734.000000	0.005175  
2733.000000	0.005276  
2732.000000	0.005312  
2731.000000	0.005282  
2730.000000	0.005227  
2729.000000	0.005205  
2728.000000	0.005241  
2727.000000	0.005303  
2726.000000	0.005316  
2725.000000	0.005233  
2724.000000	0.005087  
2723.000000	0.004961  
2722.000000	0.004901  
2721.000000	0.004882  
2720.000000	0.004872  
2719.000000	0.004880  
2718.000000	0.004922  
2717.000000	0.004966  
2716.000000	0.004966  
2715.000000	0.004915  
2714.000000	0.004821  
2713.000000	0.004671  
2712.000000	0.004452  
2711.000000	0.004225  
2710.000000	0.004091  
2709.000000	0.004082  
2708.000000	0.004137  
2707.000000	0.004182  
2706.000000	0.004202  
2705.000000	0.004202  
2704.000000	0.004153  
2703.000000	0.004026  
2702.000000	0.003843  
2701.000000	0.003666  
2700.000000	0.003534  
2699.000000	0.003465  
2698.000000	0.003472  
2697.000000	0.003562  
2696.000000	0.003704  
2695.000000	0.003842  
2694.000000	0.003942  
2693.000000	0.003999  
2692.000000	0.004018  
2691.000000	0.004010  
2690.000000	0.004019  
2689.000000	0.004109  
2688.000000	0.004297  
2687.000000	0.004518  
2686.000000	0.004668  
2685.000000	0.004694  
2684.000000	0.004630  
2683.000000	0.004551  
2682.000000	0.004513  
2681.000000	0.004521  
2680.000000	0.004546  
2679.000000	0.004553  
2678.000000	0.004533  
2677.000000	0.004519  
2676.000000	0.004564  
2675.000000	0.004693  
2674.000000	0.004856  
2673.000000	0.004967  
2672.000000	0.004975  
2671.000000	0.004903  
2670.000000	0.004810  
2669.000000	0.004738  
2668.000000	0.004706  
2667.000000	0.004727  
2666.000000	0.004800  
2665.000000	0.004890  
2664.000000	0.004945  
2663.000000	0.004919  
2662.000000	0.004796  
2661.000000	0.004593  
2660.000000	0.004361  
2659.000000	0.004171  
2658.000000	0.004054  
2657.000000	0.003986  
2656.000000	0.003932  
2655.000000	0.003894  
2654.000000	0.003894  
2653.000000	0.003915  
2652.000000	0.003921  
2651.000000	0.003923  
2650.000000	0.003979  
2649.000000	0.004102  
2648.000000	0.004223  
2647.000000	0.004260  
2646.000000	0.004197  
2645.000000	0.004077  
2644.000000	0.003954  
2643.000000	0.003878  
2642.000000	0.003889  
2641.000000	0.003977  
2640.000000	0.004062  
2639.000000	0.004054  
2638.000000	0.003931  
2637.000000	0.003755  
2636.000000	0.003622  
2635.000000	0.003611  
2634.000000	0.003743  
2633.000000	0.003958  
2632.000000	0.004134  
2631.000000	0.004177  
2630.000000	0.004085  
2629.000000	0.003937  
2628.000000	0.003822  
2627.000000	0.003788  
2626.000000	0.003833  
2625.000000	0.003891  
2624.000000	0.003878  
2623.000000	0.003759  
2622.000000	0.003590  
2621.000000	0.003449  
2620.000000	0.003356  
2619.000000	0.003288  
2618.000000	0.003243  
2617.000000	0.003259  
2616.000000	0.003351  
2615.000000	0.003484  
2614.000000	0.003604  
2613.000000	0.003676  
2612.000000	0.003692  
2611.000000	0.003674  
2610.000000	0.003673  
2609.000000	0.003737  
2608.000000	0.003856  
2607.000000	0.003961  
2606.000000	0.003992  
2605.000000	0.003949  
2604.000000	0.003860  
2603.000000	0.003749  
2602.000000	0.003646  
2601.000000	0.003597  
2600.000000	0.003625  
2599.000000	0.003672  
2598.000000	0.003646  
2597.000000	0.003519  
2596.000000	0.003363  
2595.000000	0.003260  
2594.000000	0.003193  
2593.000000	0.003080  
2592.000000	0.002903  
2591.000000	0.002768  
2590.000000	0.002777  
2589.000000	0.002895  
2588.000000	0.002977  
2587.000000	0.002942  
2586.000000	0.002857  
2585.000000	0.002824  
2584.000000	0.002843  
2583.000000	0.002839  
2582.000000	0.002769  
2581.000000	0.002681  
2580.000000	0.002636  
2579.000000	0.002656  
2578.000000	0.002727  
2577.000000	0.002819  
2576.000000	0.002889  
2575.000000	0.002888  
2574.000000	0.002814  
2573.000000	0.002733  
2572.000000	0.002722  
2571.000000	0.002793  
2570.000000	0.002878  
2569.000000	0.002889  
2568.000000	0.002792  
2567.000000	0.002623  
2566.000000	0.002446  
2565.000000	0.002317  
2564.000000	0.002268  
2563.000000	0.002313  
2562.000000	0.002432  
2561.000000	0.002558  
2560.000000	0.002604  
2559.000000	0.002534  
2558.000000	0.002417  
2557.000000	0.002381  
2556.000000	0.002496  
2555.000000	0.002690  
2554.000000	0.002810  
2553.000000	0.002774  
2552.000000	0.002670  
2551.000000	0.002665  
2550.000000	0.002822  
2549.000000	0.003033  
2548.000000	0.003138  
2547.000000	0.003058  
2546.000000	0.002812  
2545.000000	0.002466  
2544.000000	0.002120  
2543.000000	0.001904  
2542.000000	0.001897  
2541.000000	0.002033  
2540.000000	0.002159  
2539.000000	0.002210  
2538.000000	0.002256  
2537.000000	0.002359  
2536.000000	0.002453  
2535.000000	0.002412  
2534.000000	0.002214  
2533.000000	0.001976  
2532.000000	0.001841  
2531.000000	0.001850  
2530.000000	0.001930  
2529.000000	0.001972  
2528.000000	0.001943  
2527.000000	0.001923  
2526.000000	0.002017  
2525.000000	0.002227  
2524.000000	0.002451  
2523.000000	0.002596  
2522.000000	0.002646  
2521.000000	0.002609  
2520.000000	0.002473  
2519.000000	0.002278  
2518.000000	0.002159  
2517.000000	0.002221  
2516.000000	0.002402  
2515.000000	0.002539  
2514.000000	0.002544  
2513.000000	0.002465  
2512.000000	0.002370  
2511.000000	0.002261  
2510.000000	0.002136  
2509.000000	0.002056  
2508.000000	0.002094  
2507.000000	0.002252  
2506.000000	0.002447  
2505.000000	0.002573  
2504.000000	0.002548  
2503.000000	0.002372  
2502.000000	0.002151  
2501.000000	0.002051  
2500.000000	0.002169  
2499.000000	0.002419  
2498.000000	0.002570  
2497.000000	0.002420  
2496.000000	0.001960  
2495.000000	0.001393  
2494.000000	0.001001  
2493.000000	0.000956  
2492.000000	0.001230  
2491.000000	0.001653  
2490.000000	0.002043  
2489.000000	0.002301  
2488.000000	0.002420  
2487.000000	0.002436  
2486.000000	0.002374  
2485.000000	0.002226  
2484.000000	0.001997  
2483.000000	0.001771  
2482.000000	0.001690  
2481.000000	0.001849  
2480.000000	0.002194  
2479.000000	0.002559  
2478.000000	0.002772  
2477.000000	0.002750  
2476.000000	0.002524  
2475.000000	0.002208  
2474.000000	0.001927  
2473.000000	0.001751  
2472.000000	0.001672  
2471.000000	0.001649  
2470.000000	0.001649  
2469.000000	0.001653  
2468.000000	0.001653  
2467.000000	0.001678  
2466.000000	0.001780  
2465.000000	0.001962  
2464.000000	0.002141  
2463.000000	0.002233  
2462.000000	0.002235  
2461.000000	0.002186  
2460.000000	0.002109  
2459.000000	0.002031  
2458.000000	0.002033  
2457.000000	0.002167  
2456.000000	0.002336  
2455.000000	0.002355  
2454.000000	0.002165  
2453.000000	0.001901  
2452.000000	0.001715  
2451.000000	0.001608  
2450.000000	0.001496  
2449.000000	0.001389  
2448.000000	0.001388  
2447.000000	0.001543  
2446.000000	0.001776  
2445.000000	0.001961  
2444.000000	0.002034  
2443.000000	0.002023  
2442.000000	0.002006  
2441.000000	0.002043  
2440.000000	0.002122  
2439.000000	0.002171  
2438.000000	0.002136  
2437.000000	0.002045  
2436.000000	0.001959  
2435.000000	0.001886  
2434.000000	0.001781  
2433.000000	0.001645  
2432.000000	0.001556  
2431.000000	0.001578  
2430.000000	0.001694  
2429.000000	0.001830  
2428.000000	0.001940  
2427.000000	0.002024  
2426.000000	0.002087  
2425.000000	0.002117  
2424.000000	0.002103  
2423.000000	0.002049  
2422.000000	0.001964  
2421.000000	0.001868  
2420.000000	0.001804  
2419.000000	0.001818  
2418.000000	0.001905  
2417.000000	0.002010  
2416.000000	0.002081  
2415.000000	0.002127  
2414.000000	0.002192  
2413.000000	0.002293  
2412.000000	0.002400  
2411.000000	0.002465  
2410.000000	0.002469  
2409.000000	0.002428  
2408.000000	0.002379  
2407.000000	0.002345  
2406.000000	0.002303  
2405.000000	0.002199  
2404.000000	0.002010  
2403.000000	0.001781  
2402.000000	0.001590  
2401.000000	0.001480  
2400.000000	0.001451  
2399.000000	0.001502  
2398.000000	0.001632  
2397.000000	0.001808  
2396.000000	0.001962  
2395.000000	0.002046  
2394.000000	0.002081  
2393.000000	0.002120  
2392.000000	0.002196  
2391.000000	0.002298  
2390.000000	0.002387  
2389.000000	0.002427  
2388.000000	0.002422  
2387.000000	0.002458  
2386.000000	0.002642  
2385.000000	0.002987  
2384.000000	0.003341  
2383.000000	0.003498  
2382.000000	0.003374  
2381.000000	0.003078  
2380.000000	0.002807  
2379.000000	0.002676  
2378.000000	0.002631  
2377.000000	0.002503  
2376.000000	0.002171  
2375.000000	0.001728  
2374.000000	0.001443  
2373.000000	0.001531  
2372.000000	0.001959  
2371.000000	0.002530  
2370.000000	0.003076  
2369.000000	0.003485  
2368.000000	0.003621  
2367.000000	0.003433  
2366.000000	0.003103  
2365.000000	0.002851  
2364.000000	0.002598  
2363.000000	0.002153  
2362.000000	0.001637  
2361.000000	0.001437  
2360.000000	0.001787  
2359.000000	0.002434  
2358.000000	0.002922  
2357.000000	0.003045  
2356.000000	0.002810  
2355.000000	0.002396  
2354.000000	0.001963  
2353.000000	0.001710  
2352.000000	0.001727  
2351.000000	0.001875  
2350.000000	0.002022  
2349.000000	0.002080  
2348.000000	0.002091  
2347.000000	0.002157  
2346.000000	0.002397  
2345.000000	0.002918  
2344.000000	0.003415  
2343.000000	0.003528  
2342.000000	0.003083  
2341.000000	0.002459  
2340.000000	0.002212  
2339.000000	0.002346  
2338.000000	0.002389  
2337.000000	0.001963  
2336.000000	0.001324  
2335.000000	0.000894  
2334.000000	0.000887  
2333.000000	0.001123  
2332.000000	0.001516  
2331.000000	0.001925  
2330.000000	0.002376  
2329.000000	0.002680  
2328.000000	0.002895  
2327.000000	0.003080  
2326.000000	0.003287  
2325.000000	0.003429  
2324.000000	0.003298  
2323.000000	0.002835  
2322.000000	0.002164  
2321.000000	0.001614  
2320.000000	0.001520  
2319.000000	0.001909  
2318.000000	0.002543  
2317.000000	0.002941  
2316.000000	0.002888  
2315.000000	0.002426  
2314.000000	0.001989  
2313.000000	0.001856  
2312.000000	0.002097  
2311.000000	0.002417  
2310.000000	0.002657  
2309.000000	0.002791  
2308.000000	0.002961  
2307.000000	0.003129  
2306.000000	0.003197  
2305.000000	0.003075  
2304.000000	0.002872  
2303.000000	0.002704  
2302.000000	0.002634  
2301.000000	0.002560  
2300.000000	0.002442  
2299.000000	0.002322  
2298.000000	0.002354  
2297.000000	0.002555  
2296.000000	0.002803  
2295.000000	0.002911  
2294.000000	0.002862  
2293.000000	0.002776  
2292.000000	0.002767  
2291.000000	0.002815  
2290.000000	0.002839  
2289.000000	0.002813  
2288.000000	0.002724  
2287.000000	0.002509  
2286.000000	0.002109  
2285.000000	0.001639  
2284.000000	0.001344  
2283.000000	0.001357  
2282.000000	0.001540  
2281.000000	0.001671  
2280.000000	0.001708  
2279.000000	0.001791  
2278.000000	0.001980  
2277.000000	0.002141  
2276.000000	0.002169  
2275.000000	0.002204  
2274.000000	0.002501  
2273.000000	0.003090  
2272.000000	0.003693  
2271.000000	0.004014  
2270.000000	0.004009  
2269.000000	0.003804  
2268.000000	0.003446  
2267.000000	0.002882  
2266.000000	0.002178  
2265.000000	0.001612  
2264.000000	0.001436  
2263.000000	0.001632  
2262.000000	0.001963  
2261.000000	0.002236  
2260.000000	0.002401  
2259.000000	0.002477  
2258.000000	0.002506  
2257.000000	0.002578  
2256.000000	0.002776  
2255.000000	0.003034  
2254.000000	0.003145  
2253.000000	0.002992  
2252.000000	0.002700  
2251.000000	0.002482  
2250.000000	0.002398  
2249.000000	0.002307  
2248.000000	0.002066  
2247.000000	0.001673  
2246.000000	0.001253  
2245.000000	0.000968  
2244.000000	0.000943  
2243.000000	0.001194  
2242.000000	0.001589  
2241.000000	0.001938  
2240.000000	0.002132  
2239.000000	0.002196  
2238.000000	0.002186  
2237.000000	0.002100  
2236.000000	0.001909  
2235.000000	0.001646  
2234.000000	0.001427  
2233.000000	0.001352  
2232.000000	0.001418  
2231.000000	0.001523  
2230.000000	0.001564  
2229.000000	0.001534  
2228.000000	0.001505  
2227.000000	0.001530  
2226.000000	0.001567  
2225.000000	0.001513  
2224.000000	0.001285  
2223.000000	0.000883  
2222.000000	0.000448  
2221.000000	0.000256  
2220.000000	0.000537  
2219.000000	0.001193  
2218.000000	0.001796  
2217.000000	0.002008  
2216.000000	0.001965  
2215.000000	0.002076  
2214.000000	0.002444  
2213.000000	0.002724  
2212.000000	0.002618  
2211.000000	0.002281  
2210.000000	0.002056  
2209.000000	0.001974  
2208.000000	0.001772  
2207.000000	0.001371  
2206.000000	0.001059  
2205.000000	0.001128  
2204.000000	0.001519  
2203.000000	0.001947  
2202.000000	0.002249  
2201.000000	0.002481  
2200.000000	0.002748  
2199.000000	0.003082  
2198.000000	0.003447  
2197.000000	0.003753  
2196.000000	0.003861  
2195.000000	0.003654  
2194.000000	0.003164  
2193.000000	0.002570  
2192.000000	0.002044  
2191.000000	0.001612  
2190.000000	0.001229  
2189.000000	0.000940  
2188.000000	0.000896  
2187.000000	0.001142  
2186.000000	0.001481  
2185.000000	0.001629  
2184.000000	0.001529  
2183.000000	0.001428  
2182.000000	0.001605  
2181.000000	0.002081  
2180.000000	0.002627  
2179.000000	0.002997  
2178.000000	0.003095  
2177.000000	0.003000  
2176.000000	0.002876  
2175.000000	0.002809  
2174.000000	0.002691  
2173.000000	0.002372  
2172.000000	0.001956  
2171.000000	0.001796  
2170.000000	0.002066  
2169.000000	0.002448  
2168.000000	0.002453  
2167.000000	0.002049  
2166.000000	0.001732  
2165.000000	0.001921  
2164.000000	0.002441  
2163.000000	0.002753  
2162.000000	0.002557  
2161.000000	0.002029  
2160.000000	0.001550  
2159.000000	0.001334  
2158.000000	0.001319  
2157.000000	0.001343  
2156.000000	0.001348  
2155.000000	0.001408  
2154.000000	0.001598  
2153.000000	0.001875  
2152.000000	0.002105  
2151.000000	0.002183  
2150.000000	0.002084  
2149.000000	0.001838  
2148.000000	0.001555  
2147.000000	0.001425  
2146.000000	0.001611  
2145.000000	0.002089  
2144.000000	0.002657  
2143.000000	0.003073  
2142.000000	0.003132  
2141.000000	0.002702  
2140.000000	0.001858  
2139.000000	0.000999  
2138.000000	0.000635  
2137.000000	0.000934  
2136.000000	0.001533  
2135.000000	0.001887  
2134.000000	0.001779  
2133.000000	0.001417  
2132.000000	0.001144  
2131.000000	0.001137  
2130.000000	0.001352  
2129.000000	0.001632  
2128.000000	0.001850  
2127.000000	0.001973  
2126.000000	0.002014  
2125.000000	0.001959  
2124.000000	0.001803  
2123.000000	0.001665  
2122.000000	0.001745  
2121.000000	0.002104  
2120.000000	0.002516  
2119.000000	0.002664  
2118.000000	0.002455  
2117.000000	0.002125  
2116.000000	0.002011  
2115.000000	0.002241  
2114.000000	0.002610  
2113.000000	0.002750  
2112.000000	0.002473  
2111.000000	0.001972  
2110.000000	0.001651  
2109.000000	0.001714  
2108.000000	0.001971  
2107.000000	0.002103  
2106.000000	0.002023  
2105.000000	0.001877  
2104.000000	0.001767  
2103.000000	0.001645  
2102.000000	0.001475  
2101.000000	0.001329  
2100.000000	0.001254  
2099.000000	0.001172  
2098.000000	0.001001  
2097.000000	0.000792  
2096.000000	0.000656  
2095.000000	0.000598  
2094.000000	0.000541  
2093.000000	0.000476  
2092.000000	0.000497  
2091.000000	0.000671  
2090.000000	0.000946  
2089.000000	0.001221  
2088.000000	0.001479  
2087.000000	0.001799  
2086.000000	0.002213  
2085.000000	0.002570  
2084.000000	0.002605  
2083.000000	0.002203  
2082.000000	0.001579  
2081.000000	0.001162  
2080.000000	0.001226  
2079.000000	0.001658  
2078.000000	0.002085  
2077.000000	0.002210  
2076.000000	0.002037  
2075.000000	0.001831  
2074.000000	0.001867  
2073.000000	0.002195  
2072.000000	0.002592  
2071.000000	0.002774  
2070.000000	0.002644  
2069.000000	0.002334  
2068.000000	0.002029  
2067.000000	0.001801  
2066.000000	0.001662  
2065.000000	0.001651  
2064.000000	0.001803  
2063.000000	0.002054  
2062.000000	0.002270  
2061.000000	0.002348  
2060.000000	0.002268  
2059.000000	0.002082  
2058.000000	0.001914  
2057.000000	0.001894  
2056.000000	0.002017  
2055.000000	0.002077  
2054.000000	0.001873  
2053.000000	0.001460  
2052.000000	0.001089  
2051.000000	0.000920  
2050.000000	0.000935  
2049.000000	0.001149  
2048.000000	0.001678  
2047.000000	0.002421  
2046.000000	0.002882  
2045.000000	0.002613  
2044.000000	0.001782  
2043.000000	0.001057  
2042.000000	0.000889  
2041.000000	0.001152  
2040.000000	0.001516  
2039.000000	0.001894  
2038.000000	0.002313  
2037.000000	0.002615  
2036.000000	0.002609  
2035.000000	0.002438  
2034.000000	0.002459  
2033.000000	0.002754  
2032.000000	0.002991  
2031.000000	0.002842  
2030.000000	0.002296  
2029.000000	0.001530  
2028.000000	0.000726  
2027.000000	0.000080  
2026.000000	-0.000191 
2025.000000	-0.000044 
2024.000000	0.000326  
2023.000000	0.000751  
2022.000000	0.001264  
2021.000000	0.001894  
2020.000000	0.002419  
2019.000000	0.002560  
2018.000000	0.002315  
2017.000000	0.001915  
2016.000000	0.001488  
2015.000000	0.001016  
2014.000000	0.000639  
2013.000000	0.000674  
2012.000000	0.001145  
2011.000000	0.001520  
2010.000000	0.001176  
2009.000000	0.000113  
2008.000000	-0.000967 
2007.000000	-0.001348 
2006.000000	-0.000912 
2005.000000	-0.000073 
2004.000000	0.000726  
2003.000000	0.001340  
2002.000000	0.001866  
2001.000000	0.002393  
2000.000000	0.002806  
1999.000000	0.002802  
1998.000000	0.002184  
1997.000000	0.001177  
1996.000000	0.000374  
1995.000000	0.000250  
1994.000000	0.000766  
1993.000000	0.001437  
1992.000000	0.001772  
1991.000000	0.001667  
1990.000000	0.001366  
1989.000000	0.001191  
1988.000000	0.001321  
1987.000000	0.001705  
1986.000000	0.002104  
1985.000000	0.002325  
1984.000000	0.002418  
1983.000000	0.002550  
1982.000000	0.002709  
1981.000000	0.002686  
1980.000000	0.002434  
1979.000000	0.002229  
1978.000000	0.002299  
1977.000000	0.002440  
1976.000000	0.002275  
1975.000000	0.001808  
1974.000000	0.001377  
1973.000000	0.001156  
1972.000000	0.001015  
1971.000000	0.000876  
1970.000000	0.000875  
1969.000000	0.001076  
1968.000000	0.001266  
1967.000000	0.001220  
1966.000000	0.001036  
1965.000000	0.000971  
1964.000000	0.001085  
1963.000000	0.001223  
1962.000000	0.001249  
1961.000000	0.001162  
1960.000000	0.001031  
1959.000000	0.000957  
1958.000000	0.001027  
1957.000000	0.001196  
1956.000000	0.001252  
1955.000000	0.001040  
1954.000000	0.000697  
1953.000000	0.000565  
1952.000000	0.000850  
1951.000000	0.001449  
1950.000000	0.002078  
1949.000000	0.002467  
1948.000000	0.002474  
1947.000000	0.002156  
1946.000000	0.001774  
1945.000000	0.001625  
1944.000000	0.001775  
1943.000000	0.002001  
1942.000000	0.002042  
1941.000000	0.001871  
1940.000000	0.001630  
1939.000000	0.001438  
1938.000000	0.001380  
1937.000000	0.001535  
1936.000000	0.001904  
1935.000000	0.002336  
1934.000000	0.002641  
1933.000000	0.002766  
1932.000000	0.002799  
1931.000000	0.002810  
1930.000000	0.002764  
1929.000000	0.002616  
1928.000000	0.002394  
1927.000000	0.002158  
1926.000000	0.001920  
1925.000000	0.001677  
1924.000000	0.001482  
1923.000000	0.001423  
1922.000000	0.001526  
1921.000000	0.001730  
1920.000000	0.001931  
1919.000000	0.002034  
1918.000000	0.001999  
1917.000000	0.001905  
1916.000000	0.001873  
1915.000000	0.001901  
1914.000000	0.001870  
1913.000000	0.001710  
1912.000000	0.001522  
1911.000000	0.001470  
1910.000000	0.001589  
1909.000000	0.001765  
1908.000000	0.001901  
1907.000000	0.002001  
1906.000000	0.002057  
1905.000000	0.002004  
1904.000000	0.001832  
1903.000000	0.001671  
1902.000000	0.001674  
1901.000000	0.001857  
1900.000000	0.002085  
1899.000000	0.002219  
1898.000000	0.002218  
1897.000000	0.002139  
1896.000000	0.002079  
1895.000000	0.002104  
1894.000000	0.002216  
1893.000000	0.002362  
1892.000000	0.002490  
1891.000000	0.002575  
1890.000000	0.002593  
1889.000000	0.002524  
1888.000000	0.002388  
1887.000000	0.002221  
1886.000000	0.002042  
1885.000000	0.001872  
1884.000000	0.001738  
1883.000000	0.001651  
1882.000000	0.001594  
1881.000000	0.001563  
1880.000000	0.001592  
1879.000000	0.001693  
1878.000000	0.001803  
1877.000000	0.001848  
1876.000000	0.001870  
1875.000000	0.001983  
1874.000000	0.002203  
1873.000000	0.002385  
1872.000000	0.002392  
1871.000000	0.002246  
1870.000000	0.002069  
1869.000000	0.001940  
1868.000000	0.001880  
1867.000000	0.001910  
1866.000000	0.002018  
1865.000000	0.002124  
1864.000000	0.002162  
1863.000000	0.002151  
1862.000000	0.002159  
1861.000000	0.002191  
1860.000000	0.002198  
1859.000000	0.002173  
1858.000000	0.002182  
1857.000000	0.002267  
1856.000000	0.002370  
1855.000000	0.002378  
1854.000000	0.002246  
1853.000000	0.002052  
1852.000000	0.001940  
1851.000000	0.001975  
1850.000000	0.002067  
1849.000000	0.002043  
1848.000000	0.001846  
1847.000000	0.001624  
1846.000000	0.001584  
1845.000000	0.001774  
1844.000000	0.002003  
1843.000000	0.002064  
1842.000000	0.001936  
1841.000000	0.001724  
1840.000000	0.001561  
1839.000000	0.001548  
1838.000000	0.001689  
1837.000000	0.001873  
1836.000000	0.001982  
1835.000000	0.002006  
1834.000000	0.001999  
1833.000000	0.001957  
1832.000000	0.001826  
1831.000000	0.001630  
1830.000000	0.001522  
1829.000000	0.001621  
1828.000000	0.001844  
1827.000000	0.002030  
1826.000000	0.002101  
1825.000000	0.002071  
1824.000000	0.002032  
1823.000000	0.002087  
1822.000000	0.002235  
1821.000000	0.002334  
1820.000000	0.002224  
1819.000000	0.001928  
1818.000000	0.001671  
1817.000000	0.001632  
1816.000000	0.001747  
1815.000000	0.001836  
1814.000000	0.001828  
1813.000000	0.001775  
1812.000000	0.001747  
1811.000000	0.001781  
1810.000000	0.001899  
1809.000000	0.002089  
1808.000000	0.002280  
1807.000000	0.002385  
1806.000000	0.002379  
1805.000000	0.002307  
1804.000000	0.002236  
1803.000000	0.002204  
1802.000000	0.002223  
1801.000000	0.002280  
1800.000000	0.002353  
1799.000000	0.002423  
1798.000000	0.002464  
1797.000000	0.002462  
1796.000000	0.002426  
1795.000000	0.002384  
1794.000000	0.002353  
1793.000000	0.002303  
1792.000000	0.002206  
1791.000000	0.002103  
1790.000000	0.002051  
1789.000000	0.002043  
1788.000000	0.002050  
1787.000000	0.002067  
1786.000000	0.002105  
1785.000000	0.002144  
1784.000000	0.002137  
1783.000000	0.002066  
1782.000000	0.001982  
1781.000000	0.001961  
1780.000000	0.002049  
1779.000000	0.002226  
1778.000000	0.002412  
1777.000000	0.002520  
1776.000000	0.002507  
1775.000000	0.002407  
1774.000000	0.002313  
1773.000000	0.002268  
1772.000000	0.002210  
1771.000000	0.002091  
1770.000000	0.001974  
1769.000000	0.001939  
1768.000000	0.001985  
1767.000000	0.002038  
1766.000000	0.002041  
1765.000000	0.002011  
1764.000000	0.002009  
1763.000000	0.002081  
1762.000000	0.002218  
1761.000000	0.002367  
1760.000000	0.002471  
1759.000000	0.002512  
1758.000000	0.002524  
1757.000000	0.002549  
1756.000000	0.002599  
1755.000000	0.002666  
1754.000000	0.002761  
1753.000000	0.002931  
1752.000000	0.003193  
1751.000000	0.003497  
1750.000000	0.003794  
1749.000000	0.004118  
1748.000000	0.004516  
1747.000000	0.005000  
1746.000000	0.005558  
1745.000000	0.006138  
1744.000000	0.006617  
1743.000000	0.006871  
1742.000000	0.006878  
1741.000000	0.006683  
1740.000000	0.006301  
1739.000000	0.005769  
1738.000000	0.005205  
1737.000000	0.004691  
1736.000000	0.004243  
1735.000000	0.003843  
1734.000000	0.003501  
1733.000000	0.003265  
1732.000000	0.003065  
1731.000000	0.002845  
1730.000000	0.002681  
1729.000000	0.002657  
1728.000000	0.002745  
1727.000000	0.002852  
1726.000000	0.002910  
1725.000000	0.002904  
1724.000000	0.002842  
1723.000000	0.002742  
1722.000000	0.002627  
1721.000000	0.002523  
1720.000000	0.002465  
1719.000000	0.002475  
1718.000000	0.002510  
1717.000000	0.002493  
1716.000000	0.002446  
1715.000000	0.002442  
1714.000000	0.002497  
1713.000000	0.002551  
1712.000000	0.002524  
1711.000000	0.002397  
1710.000000	0.002233  
1709.000000	0.002116  
1708.000000	0.002083  
1707.000000	0.002142  
1706.000000	0.002271  
1705.000000	0.002413  
1704.000000	0.002530  
1703.000000	0.002642  
1702.000000	0.002771  
1701.000000	0.002836  
1700.000000	0.002726  
1699.000000	0.002585  
1698.000000	0.002526  
1697.000000	0.002527  
1696.000000	0.002540  
1695.000000	0.002561  
1694.000000	0.002563  
1693.000000	0.002498  
1692.000000	0.002418  
1691.000000	0.002387  
1690.000000	0.002423  
1689.000000	0.002491  
1688.000000	0.002540  
1687.000000	0.002556  
1686.000000	0.002545  
1685.000000	0.002516  
1684.000000	0.002455  
1683.000000	0.002462  
1682.000000	0.002560  
1681.000000	0.002660  
1680.000000	0.002705  
1679.000000	0.002659  
1678.000000	0.002517  
1677.000000	0.002309  
1676.000000	0.002124  
1675.000000	0.002091  
1674.000000	0.002249  
1673.000000	0.002461  
1672.000000	0.002611  
1671.000000	0.002686  
1670.000000	0.002712  
1669.000000	0.002728  
1668.000000	0.002751  
1667.000000	0.002759  
1666.000000	0.002757  
1665.000000	0.002783  
1664.000000	0.002847  
1663.000000	0.002889  
1662.000000	0.002867  
1661.000000	0.002823  
1660.000000	0.002798  
1659.000000	0.002784  
1658.000000	0.002732  
1657.000000	0.002600  
1656.000000	0.002413  
1655.000000	0.002257  
1654.000000	0.002228  
1653.000000	0.002365  
1652.000000	0.002708  
1651.000000	0.002932  
1650.000000	0.002948  
1649.000000	0.002954  
1648.000000	0.002998  
1647.000000	0.002934  
1646.000000	0.002770  
1645.000000	0.002661  
1644.000000	0.002583  
1643.000000	0.002505  
1642.000000	0.002482  
1641.000000	0.002524  
1640.000000	0.002563  
1639.000000	0.002549  
1638.000000	0.002522  
1637.000000	0.002546  
1636.000000	0.002594  
1635.000000	0.002622  
1634.000000	0.002664  
1633.000000	0.002682  
1632.000000	0.002649  
1631.000000	0.002583  
1630.000000	0.002535  
1629.000000	0.002565  
1628.000000	0.002664  
1627.000000	0.002756  
1626.000000	0.002798  
1625.000000	0.002823  
1624.000000	0.002877  
1623.000000	0.002967  
1622.000000	0.003086  
1621.000000	0.003219  
1620.000000	0.003341  
1619.000000	0.003444  
1618.000000	0.003516  
1617.000000	0.003550  
1616.000000	0.003582  
1615.000000	0.003632  
1614.000000	0.003688  
1613.000000	0.003776  
1612.000000	0.003917  
1611.000000	0.004099  
1610.000000	0.004291  
1609.000000	0.004450  
1608.000000	0.004517  
1607.000000	0.004463  
1606.000000	0.004339  
1605.000000	0.004224  
1604.000000	0.004141  
1603.000000	0.004066  
1602.000000	0.003997  
1601.000000	0.003948  
1600.000000	0.003895  
1599.000000	0.003778  
1598.000000	0.003606  
1597.000000	0.003459  
1596.000000	0.003405  
1595.000000	0.003427  
1594.000000	0.003477  
1593.000000	0.003543  
1592.000000	0.003638  
1591.000000	0.003744  
1590.000000	0.003813  
1589.000000	0.003813  
1588.000000	0.003746  
1587.000000	0.003638  
1586.000000	0.003527  
1585.000000	0.003448  
1584.000000	0.003407  
1583.000000	0.003394  
1582.000000	0.003398  
1581.000000	0.003416  
1580.000000	0.003441  
1579.000000	0.003480  
1578.000000	0.003526  
1577.000000	0.003516  
1576.000000	0.003400  
1575.000000	0.003284  
1574.000000	0.003268  
1573.000000	0.003346  
1572.000000	0.003452  
1571.000000	0.003483  
1570.000000	0.003384  
1569.000000	0.003267  
1568.000000	0.003255  
1567.000000	0.003296  
1566.000000	0.003302  
1565.000000	0.003248  
1564.000000	0.003133  
1563.000000	0.002970  
1562.000000	0.002794  
1561.000000	0.002683  
1560.000000	0.002747  
1559.000000	0.002765  
1558.000000	0.002686  
1557.000000	0.002876  
1556.000000	0.003190  
1555.000000	0.003499  
1554.000000	0.003732  
1553.000000	0.003813  
1552.000000	0.003723  
1551.000000	0.003531  
1550.000000	0.003348  
1549.000000	0.003260  
1548.000000	0.003257  
1547.000000	0.003289  
1546.000000	0.003354  
1545.000000	0.003438  
1544.000000	0.003467  
1543.000000	0.003436  
1542.000000	0.003461  
1541.000000	0.003576  
1540.000000	0.003607  
1539.000000	0.003613  
1538.000000	0.003746  
1537.000000	0.003891  
1536.000000	0.003977  
1535.000000	0.003997  
1534.000000	0.003933  
1533.000000	0.003805  
1532.000000	0.003710  
1531.000000	0.003674  
1530.000000	0.003656  
1529.000000	0.003642  
1528.000000	0.003645  
1527.000000	0.003702  
1526.000000	0.003865  
1525.000000	0.004109  
1524.000000	0.004336  
1523.000000	0.004503  
1522.000000	0.004640  
1521.000000	0.004758  
1520.000000	0.004826  
1519.000000	0.004805  
1518.000000	0.004748  
1517.000000	0.004736  
1516.000000	0.004786  
1515.000000	0.004906  
1514.000000	0.005116  
1513.000000	0.005401  
1512.000000	0.005676  
1511.000000	0.005847  
1510.000000	0.005968  
1509.000000	0.006206  
1508.000000	0.006631  
1507.000000	0.007001  
1506.000000	0.007251  
1505.000000	0.007548  
1504.000000	0.007701  
1503.000000	0.007676  
1502.000000	0.007604  
1501.000000	0.007553  
1500.000000	0.007510  
1499.000000	0.007528  
1498.000000	0.007793  
1497.000000	0.008354  
1496.000000	0.008910  
1495.000000	0.009221  
1494.000000	0.009395  
1493.000000	0.009571  
1492.000000	0.009706  
1491.000000	0.009742  
1490.000000	0.009820  
1489.000000	0.010094  
1488.000000	0.010461  
1487.000000	0.010794  
1486.000000	0.011149  
1485.000000	0.011605  
1484.000000	0.012122  
1483.000000	0.012690  
1482.000000	0.013430  
1481.000000	0.014398  
1480.000000	0.015456  
1479.000000	0.016544  
1478.000000	0.017870  
1477.000000	0.019630  
1476.000000	0.021727  
1475.000000	0.024186  
1474.000000	0.027736  
1473.000000	0.033236  
1472.000000	0.040167  
1471.000000	0.047130  
1470.000000	0.053593  
1469.000000	0.059573  
1468.000000	0.064882  
1467.000000	0.069345  
1466.000000	0.073121  
1465.000000	0.076351  
1464.000000	0.078824  
1463.000000	0.080484  
1462.000000	0.081657  
1461.000000	0.082637  
1460.000000	0.083551  
1459.000000	0.084539  
1458.000000	0.085613  
1457.000000	0.086007  
1456.000000	0.084951  
1455.000000	0.082923  
1454.000000	0.080529  
1453.000000	0.077879  
1452.000000	0.075001  
1451.000000	0.072141  
1450.000000	0.069494  
1449.000000	0.066884  
1448.000000	0.064049  
1447.000000	0.061056  
1446.000000	0.058068  
1445.000000	0.054981  
1444.000000	0.051628  
1443.000000	0.048063  
1442.000000	0.044516  
1441.000000	0.041211  
1440.000000	0.038242  
1439.000000	0.035496  
1438.000000	0.032669  
1437.000000	0.029618  
1436.000000	0.026814  
1435.000000	0.024727  
1434.000000	0.023068  
1433.000000	0.021374  
1432.000000	0.019532  
1431.000000	0.017717  
1430.000000	0.016110  
1429.000000	0.014794  
1428.000000	0.013825  
1427.000000	0.013168  
1426.000000	0.012641  
1425.000000	0.012069  
1424.000000	0.011463  
1423.000000	0.010954  
1422.000000	0.010556  
1421.000000	0.010169  
1420.000000	0.009757  
1419.000000	0.009383  
1418.000000	0.009102  
1417.000000	0.008913  
1416.000000	0.008815  
1415.000000	0.008801  
1414.000000	0.008792  
1413.000000	0.008702  
1412.000000	0.008529  
1411.000000	0.008327  
1410.000000	0.008134  
1409.000000	0.007982  
1408.000000	0.007920  
1407.000000	0.007945  
1406.000000	0.007969  
1405.000000	0.007932  
1404.000000	0.007913  
1403.000000	0.007989  
1402.000000	0.008088  
1401.000000	0.008113  
1400.000000	0.008103  
1399.000000	0.008166  
1398.000000	0.008310  
1397.000000	0.008475  
1396.000000	0.008665  
1395.000000	0.008933  
1394.000000	0.009293  
1393.000000	0.009740  
1392.000000	0.010290  
1391.000000	0.010987  
1390.000000	0.011911  
1389.000000	0.013248  
1388.000000	0.015253  
1387.000000	0.017932  
1386.000000	0.020909  
1385.000000	0.023879  
1384.000000	0.026918  
1383.000000	0.030281  
1382.000000	0.034136  
1381.000000	0.038441  
1380.000000	0.042846  
1379.000000	0.046588  
1378.000000	0.048797  
1377.000000	0.049030  
1376.000000	0.047334  
1375.000000	0.044029  
1374.000000	0.039793  
1373.000000	0.035610  
1372.000000	0.032156  
1371.000000	0.029566  
1370.000000	0.027791  
1369.000000	0.026794  
1368.000000	0.026382  
1367.000000	0.026110  
1366.000000	0.025499  
1365.000000	0.024276  
1364.000000	0.022448  
1363.000000	0.020309  
1362.000000	0.018325  
1361.000000	0.016829  
1360.000000	0.015827  
1359.000000	0.015148  
1358.000000	0.014645  
1357.000000	0.014263  
1356.000000	0.014013  
1355.000000	0.013898  
1354.000000	0.013872  
1353.000000	0.013858  
1352.000000	0.013811  
1351.000000	0.013725  
1350.000000	0.013605  
1349.000000	0.013460  
1348.000000	0.013297  
1347.000000	0.013112  
1346.000000	0.012916  
1345.000000	0.012758  
1344.000000	0.012704  
1343.000000	0.012762  
1342.000000	0.012853  
1341.000000	0.012864  
1340.000000	0.012735  
1339.000000	0.012480  
1338.000000	0.012162  
1337.000000	0.011837  
1336.000000	0.011544  
1335.000000	0.011288  
1334.000000	0.011048  
1333.000000	0.010802  
1332.000000	0.010570  
1331.000000	0.010391  
1330.000000	0.010255  
1329.000000	0.010116  
1328.000000	0.009948  
1327.000000	0.009772  
1326.000000	0.009621  
1325.000000	0.009510  
1324.000000	0.009449  
1323.000000	0.009440  
1322.000000	0.009468  
1321.000000	0.009498  
1320.000000	0.009500  
1319.000000	0.009467  
1318.000000	0.009415  
1317.000000	0.009376  
1316.000000	0.009381  
1315.000000	0.009450  
1314.000000	0.009575  
1313.000000	0.009722  
1312.000000	0.009861  
1311.000000	0.009990  
1310.000000	0.010124  
1309.000000	0.010280  
1308.000000	0.010451  
1307.000000	0.010607  
1306.000000	0.010713  
1305.000000	0.010757  
1304.000000	0.010739  
1303.000000	0.010664  
1302.000000	0.010549  
1301.000000	0.010437  
1300.000000	0.010364  
1299.000000	0.010327  
1298.000000	0.010280  
1297.000000	0.010190  
1296.000000	0.010063  
1295.000000	0.009915  
1294.000000	0.009736  
1293.000000	0.009524  
1292.000000	0.009312  
1291.000000	0.009155  
1290.000000	0.009076  
1289.000000	0.009044  
1288.000000	0.009018  
1287.000000	0.008982  
1286.000000	0.008952  
1285.000000	0.008945  
1284.000000	0.008950  
1283.000000	0.008939  
1282.000000	0.008898  
1281.000000	0.008849  
1280.000000	0.008823  
1279.000000	0.008817  
1278.000000	0.008806  
1277.000000	0.008784  
1276.000000	0.008775  
1275.000000	0.008797  
1274.000000	0.008834  
1273.000000	0.008866  
1272.000000	0.008893  
1271.000000	0.008915  
1270.000000	0.008910  
1269.000000	0.008868  
1268.000000	0.008812  
1267.000000	0.008769  
1266.000000	0.008718  
1265.000000	0.008611  
1264.000000	0.008448  
1263.000000	0.008292  
1262.000000	0.008214  
1261.000000	0.008227  
1260.000000	0.008280  
1259.000000	0.008310  
1258.000000	0.008289  
1257.000000	0.008225  
1256.000000	0.008139  
1255.000000	0.008053  
1254.000000	0.008005  
1253.000000	0.008042  
1252.000000	0.008159  
1251.000000	0.008272  
1250.000000	0.008279  
1249.000000	0.008171  
1248.000000	0.008048  
1247.000000	0.008006  
1246.000000	0.008046  
1245.000000	0.008100  
1244.000000	0.008111  
1243.000000	0.008066  
1242.000000	0.007980  
1241.000000	0.007883  
1240.000000	0.007809  
1239.000000	0.007762  
1238.000000	0.007707  
1237.000000	0.007619  
1236.000000	0.007524  
1235.000000	0.007458  
1234.000000	0.007413  
1233.000000	0.007346  
1232.000000	0.007241  
1231.000000	0.007128  
1230.000000	0.007033  
1229.000000	0.006954  
1228.000000	0.006899  
1227.000000	0.006890  
1226.000000	0.006921  
1225.000000	0.006948  
1224.000000	0.006937  
1223.000000	0.006906  
1222.000000	0.006888  
1221.000000	0.006875  
1220.000000	0.006833  
1219.000000	0.006769  
1218.000000	0.006739  
1217.000000	0.006788  
1216.000000	0.006895  
1215.000000	0.006995  
1214.000000	0.007032  
1213.000000	0.006995  
1212.000000	0.006919  
1211.000000	0.006864  
1210.000000	0.006873  
1209.000000	0.006921  
1208.000000	0.006930  
1207.000000	0.006865  
1206.000000	0.006784  
1205.000000	0.006778  
1204.000000	0.006851  
1203.000000	0.006918  
1202.000000	0.006913  
1201.000000	0.006870  
1200.000000	0.006861  
1199.000000	0.006904  
1198.000000	0.006962  
1197.000000	0.007011  
1196.000000	0.007056  
1195.000000	0.007115  
1194.000000	0.007212  
1193.000000	0.007370  
1192.000000	0.007565  
1191.000000	0.007715  
1190.000000	0.007748  
1189.000000	0.007690  
1188.000000	0.007637  
1187.000000	0.007652  
1186.000000	0.007721  
1185.000000	0.007814  
1184.000000	0.007933  
1183.000000	0.008083  
1182.000000	0.008239  
1181.000000	0.008364  
1180.000000	0.008450  
1179.000000	0.008510  
1178.000000	0.008574  
1177.000000	0.008683  
1176.000000	0.008856  
1175.000000	0.009071  
1174.000000	0.009274  
1173.000000	0.009438  
1172.000000	0.009571  
1171.000000	0.009676  
1170.000000	0.009736  
1169.000000	0.009743  
1168.000000	0.009714  
1167.000000	0.009665  
1166.000000	0.009599  
1165.000000	0.009519  
1164.000000	0.009431  
1163.000000	0.009327  
1162.000000	0.009202  
1161.000000	0.009102  
1160.000000	0.009096  
1159.000000	0.009197  
1158.000000	0.009324  
1157.000000	0.009381  
1156.000000	0.009332  
1155.000000	0.009192  
1154.000000	0.008980  
1153.000000	0.008727  
1152.000000	0.008488  
1151.000000	0.008317  
1150.000000	0.008232  
1149.000000	0.008220  
1148.000000	0.008263  
1147.000000	0.008330  
1146.000000	0.008364  
1145.000000	0.008315  
1144.000000	0.008170  
1143.000000	0.007956  
1142.000000	0.007721  
1141.000000	0.007514  
1140.000000	0.007361  
1139.000000	0.007249  
1138.000000	0.007161  
1137.000000	0.007121  
1136.000000	0.007156  
1135.000000	0.007219  
1134.000000	0.007203  
1133.000000	0.007065  
1132.000000	0.006880  
1131.000000	0.006743  
1130.000000	0.006669  
1129.000000	0.006628  
1128.000000	0.006626  
1127.000000	0.006688  
1126.000000	0.006791  
1125.000000	0.006871  
1124.000000	0.006894  
1123.000000	0.006857  
1122.000000	0.006759  
1121.000000	0.006620  
1120.000000	0.006509  
1119.000000	0.006498  
1118.000000	0.006582  
1117.000000	0.006700  
1116.000000	0.006814  
1115.000000	0.006915  
1114.000000	0.006973  
1113.000000	0.006944  
1112.000000	0.006841  
1111.000000	0.006729  
1110.000000	0.006636  
1109.000000	0.006538  
1108.000000	0.006430  
1107.000000	0.006378  
1106.000000	0.006436  
1105.000000	0.006562  
1104.000000	0.006653  
1103.000000	0.006644  
1102.000000	0.006564  
1101.000000	0.006505  
1100.000000	0.006536  
1099.000000	0.006653  
1098.000000	0.006792  
1097.000000	0.006896  
1096.000000	0.006976  
1095.000000	0.007066  
1094.000000	0.007157  
1093.000000	0.007195  
1092.000000	0.007164  
1091.000000	0.007104  
1090.000000	0.007046  
1089.000000	0.006960  
1088.000000	0.006816  
1087.000000	0.006653  
1086.000000	0.006558  
1085.000000	0.006572  
1084.000000	0.006644  
1083.000000	0.006685  
1082.000000	0.006652  
1081.000000	0.006579  
1080.000000	0.006552  
1079.000000	0.006626  
1078.000000	0.006776  
1077.000000	0.006926  
1076.000000	0.007040  
1075.000000	0.007157  
1074.000000	0.007324  
1073.000000	0.007517  
1072.000000	0.007659  
1071.000000	0.007707  
1070.000000	0.007690  
1069.000000	0.007653  
1068.000000	0.007600  
1067.000000	0.007501  
1066.000000	0.007361  
1065.000000	0.007249  
1064.000000	0.007241  
1063.000000	0.007335  
1062.000000	0.007441  
1061.000000	0.007461  
1060.000000	0.007384  
1059.000000	0.007276  
1058.000000	0.007209  
1057.000000	0.007218  
1056.000000	0.007313  
1055.000000	0.007479  
1054.000000	0.007627  
1053.000000	0.007604  
1052.000000	0.007327  
1051.000000	0.006925  
1050.000000	0.006668  
1049.000000	0.006699  
1048.000000	0.006900  
1047.000000	0.007058  
1046.000000	0.007082  
1045.000000	0.007030  
1044.000000	0.006987  
1043.000000	0.007009  
1042.000000	0.007121  
1041.000000	0.007312  
1040.000000	0.007504  
1039.000000	0.007594  
1038.000000	0.007556  
1037.000000	0.007478  
1036.000000	0.007476  
1035.000000	0.007596  
1034.000000	0.007807  
1033.000000	0.008035  
1032.000000	0.008197  
1031.000000	0.008227  
1030.000000	0.008137  
1029.000000	0.008021  
1028.000000	0.007970  
1027.000000	0.007989  
1026.000000	0.008018  
1025.000000	0.008015  
1024.000000	0.007975  
1023.000000	0.007905  
1022.000000	0.007819  
1021.000000	0.007758  
1020.000000	0.007746  
1019.000000	0.007750  
1018.000000	0.007718  
1017.000000	0.007660  
1016.000000	0.007651  
1015.000000	0.007732  
1014.000000	0.007844  
1013.000000	0.007895  
1012.000000	0.007841  
1011.000000	0.007706  
1010.000000	0.007556  
1009.000000	0.007458  
1008.000000	0.007453  
1007.000000	0.007523  
1006.000000	0.007603  
1005.000000	0.007641  
1004.000000	0.007642  
1003.000000	0.007646  
1002.000000	0.007688  
1001.000000	0.007758  
1000.000000	0.007788  
999.000000	 0.007698  
998.000000	 0.007470  
997.000000	 0.007202  
996.000000	 0.007044  
995.000000	 0.007063  
994.000000	 0.007191  
993.000000	 0.007307  
992.000000	 0.007340  
991.000000	 0.007305  
990.000000	 0.007277  
989.000000	 0.007343  
988.000000	 0.007526  
987.000000	 0.007739  
986.000000	 0.007861  
985.000000	 0.007866  
984.000000	 0.007845  
983.000000	 0.007886  
982.000000	 0.007975  
981.000000	 0.008052  
980.000000	 0.008111  
979.000000	 0.008196  
978.000000	 0.008329  
977.000000	 0.008487  
976.000000	 0.008641  
975.000000	 0.008764  
974.000000	 0.008825  
973.000000	 0.008820  
972.000000	 0.008807  
971.000000	 0.008870  
970.000000	 0.009030  
969.000000	 0.009228  
968.000000	 0.009384  
967.000000	 0.009452  
966.000000	 0.009414  
965.000000	 0.009281  
964.000000	 0.009097  
963.000000	 0.008936  
962.000000	 0.008868  
961.000000	 0.008914  
960.000000	 0.009017  
959.000000	 0.009075  
958.000000	 0.009011  
957.000000	 0.008851  
956.000000	 0.008712  
955.000000	 0.008684  
954.000000	 0.008742  
953.000000	 0.008798  
952.000000	 0.008808  
951.000000	 0.008800  
950.000000	 0.008802  
949.000000	 0.008804  
948.000000	 0.008803  
947.000000	 0.008827  
946.000000	 0.008905  
945.000000	 0.009024  
944.000000	 0.009150  
943.000000	 0.009260  
942.000000	 0.009337  
941.000000	 0.009344  
940.000000	 0.009244  
939.000000	 0.009043  
938.000000	 0.008797  
937.000000	 0.008579  
936.000000	 0.008423  
935.000000	 0.008314  
934.000000	 0.008241  
933.000000	 0.008230  
932.000000	 0.008317  
931.000000	 0.008468  
930.000000	 0.008568  
929.000000	 0.008522  
928.000000	 0.008367  
927.000000	 0.008244  
926.000000	 0.008257  
925.000000	 0.008383  
924.000000	 0.008521  
923.000000	 0.008598  
922.000000	 0.008615  
921.000000	 0.008596  
920.000000	 0.008542  
919.000000	 0.008439  
918.000000	 0.008315  
917.000000	 0.008233  
916.000000	 0.008242  
915.000000	 0.008317  
914.000000	 0.008379  
913.000000	 0.008365  
912.000000	 0.008277  
911.000000	 0.008153  
910.000000	 0.008045  
909.000000	 0.008006  
908.000000	 0.008067  
907.000000	 0.008177  
906.000000	 0.008223  
905.000000	 0.008140  
904.000000	 0.008003  
903.000000	 0.007956  
902.000000	 0.008054  
901.000000	 0.008221  
900.000000	 0.008366  
899.000000	 0.008489  
898.000000	 0.008646  
897.000000	 0.008842  
896.000000	 0.009015  
895.000000	 0.009105  
894.000000	 0.009124  
893.000000	 0.009130  
892.000000	 0.009171  
891.000000	 0.009252  
890.000000	 0.009357  
889.000000	 0.009452  
888.000000	 0.009491  
887.000000	 0.009439  
886.000000	 0.009307  
885.000000	 0.009148  
884.000000	 0.008996  
883.000000	 0.008844  
882.000000	 0.008682  
881.000000	 0.008554  
880.000000	 0.008526  
879.000000	 0.008614  
878.000000	 0.008753  
877.000000	 0.008860  
876.000000	 0.008903  
875.000000	 0.008889  
874.000000	 0.008826  
873.000000	 0.008693  
872.000000	 0.008469  
871.000000	 0.008199  
870.000000	 0.008016  
869.000000	 0.008057  
868.000000	 0.008318  
867.000000	 0.008619  
866.000000	 0.008755  
865.000000	 0.008680  
864.000000	 0.008496  
863.000000	 0.008293  
862.000000	 0.008088  
861.000000	 0.007911  
860.000000	 0.007849  
859.000000	 0.007939  
858.000000	 0.008083  
857.000000	 0.008158  
856.000000	 0.008183  
855.000000	 0.008304  
854.000000	 0.008620  
853.000000	 0.009062  
852.000000	 0.009470  
851.000000	 0.009739  
850.000000	 0.009867  
849.000000	 0.009900  
848.000000	 0.009863  
847.000000	 0.009759  
846.000000	 0.009602  
845.000000	 0.009431  
844.000000	 0.009259  
843.000000	 0.009058  
842.000000	 0.008814  
841.000000	 0.008586  
840.000000	 0.008473  
839.000000	 0.008514  
838.000000	 0.008644  
837.000000	 0.008749  
836.000000	 0.008718  
835.000000	 0.008482  
834.000000	 0.008075  
833.000000	 0.007676  
832.000000	 0.007506  
831.000000	 0.007620  
830.000000	 0.007853  
829.000000	 0.008020  
828.000000	 0.008129  
827.000000	 0.008313  
826.000000	 0.008597  
825.000000	 0.008853  
824.000000	 0.008983  
823.000000	 0.009020  
822.000000	 0.009045  
821.000000	 0.009107  
820.000000	 0.009255  
819.000000	 0.009538  
818.000000	 0.009947  
817.000000	 0.010385  
816.000000	 0.010725  
815.000000	 0.010860  
814.000000	 0.010760  
813.000000	 0.010502  
812.000000	 0.010258  
811.000000	 0.010189  
810.000000	 0.010352  
809.000000	 0.010704  
808.000000	 0.011172  
807.000000	 0.011656  
806.000000	 0.012005  
805.000000	 0.012074  
804.000000	 0.011829  
803.000000	 0.011376  
802.000000	 0.010858  
801.000000	 0.010359  
800.000000	 0.009900  
799.000000	 0.009483  
798.000000	 0.009111  
797.000000	 0.008798  
796.000000	 0.008556  
795.000000	 0.008375  
794.000000	 0.008221  
793.000000	 0.008099  
792.000000	 0.008092  
791.000000	 0.008277  
790.000000	 0.008593  
789.000000	 0.008842  
788.000000	 0.008885  
787.000000	 0.008797  
786.000000	 0.008800  
785.000000	 0.009042  
784.000000	 0.009473  
783.000000	 0.009922  
782.000000	 0.010283  
781.000000	 0.010582  
780.000000	 0.010886  
779.000000	 0.011192  
778.000000	 0.011450  
777.000000	 0.011671  
776.000000	 0.011939  
775.000000	 0.012301  
774.000000	 0.012697  
773.000000	 0.013041  
772.000000	 0.013332  
771.000000	 0.013625  
770.000000	 0.013911  
769.000000	 0.014121  
768.000000	 0.014221  
767.000000	 0.014235  
766.000000	 0.014154  
765.000000	 0.013902  
764.000000	 0.013461  
763.000000	 0.012975  
762.000000	 0.012665  
761.000000	 0.012628  
760.000000	 0.012749  
759.000000	 0.012834  
758.000000	 0.012804  
757.000000	 0.012754  
756.000000	 0.012828  
755.000000	 0.013061  
754.000000	 0.013349  
753.000000	 0.013560  
752.000000	 0.013646  
751.000000	 0.013643  
750.000000	 0.013618  
749.000000	 0.013643  
748.000000	 0.013813  
747.000000	 0.014228  
746.000000	 0.014971  
745.000000	 0.016085  
744.000000	 0.017520  
743.000000	 0.019071  
742.000000	 0.020380  
741.000000	 0.021117  
740.000000	 0.021199  
739.000000	 0.020824  
738.000000	 0.020270  
737.000000	 0.019709  
736.000000	 0.019195  
735.000000	 0.018766  
734.000000	 0.018484  
733.000000	 0.018390  
732.000000	 0.018444  
731.000000	 0.018550  
730.000000	 0.018662  
729.000000	 0.018876  
728.000000	 0.019394  
727.000000	 0.020343  
726.000000	 0.021640  
725.000000	 0.023037  
724.000000	 0.024273  
723.000000	 0.025170  
722.000000	 0.025574  
721.000000	 0.025267  
720.000000	 0.024073  
719.000000	 0.022101  
718.000000	 0.019800  
717.000000	 0.017716  
716.000000	 0.016204  
715.000000	 0.015257  
714.000000	 0.014549  
713.000000	 0.013747  
712.000000	 0.012793  
711.000000	 0.011891  
710.000000	 0.011261  
709.000000	 0.010970  
708.000000	 0.010952  
707.000000	 0.011099  
706.000000	 0.011331  
705.000000	 0.011628  
704.000000	 0.011985  
703.000000	 0.012345  
702.000000	 0.012597  
701.000000	 0.012710  
700.000000	 0.012800  
699.000000	 0.012944  
698.000000	 0.012960  
697.000000	 0.012519  
696.000000	 0.011554  
695.000000	 0.010466  
694.000000	 0.009742  
693.000000	 0.009439  
692.000000	 0.009165  
691.000000	 0.008562  
690.000000	 0.007722  
689.000000	 0.007038  
688.000000	 0.006687  
687.000000	 0.006442  
686.000000	 0.006024  
685.000000	 0.005479  
684.000000	 0.005102  
683.000000	 0.005068  
682.000000	 0.005290  
681.000000	 0.005565  
680.000000	 0.005732  
679.000000	 0.005708  
678.000000	 0.005503  
677.000000	 0.005273  
676.000000	 0.005110  
675.000000	 0.004962  
674.000000	 0.004781  
673.000000	 0.004633  
672.000000	 0.004417  
671.000000	 0.003663  
670.000000	 0.001829  
669.000000	 -0.001298 
668.000000	 -0.004392 
667.000000	 -0.004006 
666.000000	 -0.000960 
665.000000	 0.001723  
664.000000	 0.003332  
663.000000	 0.004249  
662.000000	 0.004722  
661.000000	 0.004735  
660.000000	 0.004475  
659.000000	 0.004398  
658.000000	 0.004647  
657.000000	 0.004773  
656.000000	 0.004212  
655.000000	 0.003062  
654.000000	 0.002126  
653.000000	 0.002123  
652.000000	 0.002984  
651.000000	 0.003984  
650.000000	 0.004443  

