PE IR                   SPECTRUM    ASCII       PEDS        1.60        
  -1
NB4-10~3.ASC
17/04/10
13:24:48.00
17/04/10
13:24:48.00
Admin

650.000000
6









SPECTRUM ONE,CPU32 MAIN 00.02.5000 17-APRIL-2002 13:00:00
MIR TGS
MIR
OPTKBR
68128
0.200000

4.000000
STRONG
RATIO
SPECTRUM
MAGNITUDE

DOUBLE

COMBINED


0


#HDR
-1
-1
#GR
CM-1
A
0.00000011920928955078
0.0
4000.000000
-1.000000
3351
8
0.214365
-0.009264
#DATA
4000.000000	0.000900  
3999.000000	0.000915  
3998.000000	0.001022  
3997.000000	0.001226  
3996.000000	0.001472  
3995.000000	0.001509  
3994.000000	0.001591  
3993.000000	0.001544  
3992.000000	0.001402  
3991.000000	0.001238  
3990.000000	0.001123  
3989.000000	0.001086  
3988.000000	0.001103  
3987.000000	0.001137  
3986.000000	0.001179  
3985.000000	0.001243  
3984.000000	0.001312  
3983.000000	0.001322  
3982.000000	0.001218  
3981.000000	0.001026  
3980.000000	0.000848  
3979.000000	0.000780  
3978.000000	0.000839  
3977.000000	0.000974  
3976.000000	0.001126  
3975.000000	0.001259  
3974.000000	0.001346  
3973.000000	0.001352  
3972.000000	0.001260  
3971.000000	0.001103  
3970.000000	0.000954  
3969.000000	0.000861  
3968.000000	0.000812  
3967.000000	0.000765  
3966.000000	0.000721  
3965.000000	0.000740  
3964.000000	0.000867  
3963.000000	0.001074  
3962.000000	0.001261  
3961.000000	0.001345  
3960.000000	0.001326  
3959.000000	0.001266  
3958.000000	0.001219  
3957.000000	0.001193  
3956.000000	0.001161  
3955.000000	0.001106  
3954.000000	0.001039  
3953.000000	0.000981  
3952.000000	0.000948  
3951.000000	0.000936  
3950.000000	0.000947  
3949.000000	0.001001  
3948.000000	0.001109  
3947.000000	0.001246  
3946.000000	0.001347  
3945.000000	0.001348  
3944.000000	0.001245  
3943.000000	0.001095  
3942.000000	0.000963  
3941.000000	0.000879  
3940.000000	0.000851  
3939.000000	0.000895  
3938.000000	0.001012  
3937.000000	0.001162  
3936.000000	0.001267  
3935.000000	0.001271  
3934.000000	0.001195  
3933.000000	0.001112  
3932.000000	0.001089  
3931.000000	0.001135  
3930.000000	0.001224  
3929.000000	0.001322  
3928.000000	0.001406  
3927.000000	0.001459  
3926.000000	0.001476  
3925.000000	0.001470  
3924.000000	0.001462  
3923.000000	0.001474  
3922.000000	0.001520  
3921.000000	0.001587  
3920.000000	0.001635  
3919.000000	0.001621  
3918.000000	0.001540  
3917.000000	0.001440  
3916.000000	0.001370  
3915.000000	0.001349  
3914.000000	0.001361  
3913.000000	0.001364  
3912.000000	0.001313  
3911.000000	0.001191  
3910.000000	0.001044  
3909.000000	0.000949  
3908.000000	0.000960  
3907.000000	0.001064  
3906.000000	0.001197  
3905.000000	0.001306  
3904.000000	0.001367  
3903.000000	0.001366  
3902.000000	0.001297  
3901.000000	0.001208  
3900.000000	0.001185  
3899.000000	0.001275  
3898.000000	0.001420  
3897.000000	0.001514  
3896.000000	0.001495  
3895.000000	0.001371  
3894.000000	0.001211  
3893.000000	0.001116  
3892.000000	0.001158  
3891.000000	0.001301  
3890.000000	0.001422  
3889.000000	0.001425  
3888.000000	0.001312  
3887.000000	0.001166  
3886.000000	0.001095  
3885.000000	0.001121  
3884.000000	0.001164  
3883.000000	0.001152  
3882.000000	0.001091  
3881.000000	0.001045  
3880.000000	0.001056  
3879.000000	0.001106  
3878.000000	0.001155  
3877.000000	0.001200  
3876.000000	0.001261  
3875.000000	0.001375  
3874.000000	0.001544  
3873.000000	0.001724  
3872.000000	0.001871  
3871.000000	0.001995  
3870.000000	0.002112  
3869.000000	0.002151  
3868.000000	0.002026  
3867.000000	0.001753  
3866.000000	0.001447  
3865.000000	0.001240  
3864.000000	0.001192  
3863.000000	0.001265  
3862.000000	0.001373  
3861.000000	0.001425  
3860.000000	0.001383  
3859.000000	0.001295  
3858.000000	0.001263  
3857.000000	0.001337  
3856.000000	0.001441  
3855.000000	0.001444  
3854.000000	0.001397  
3853.000000	0.001424  
3852.000000	0.001483  
3851.000000	0.001523  
3850.000000	0.001599  
3849.000000	0.001752  
3848.000000	0.001958  
3847.000000	0.002148  
3846.000000	0.002271  
3845.000000	0.002340  
3844.000000	0.002404  
3843.000000	0.002481  
3842.000000	0.002530  
3841.000000	0.002499  
3840.000000	0.002390  
3839.000000	0.002245  
3838.000000	0.002103  
3837.000000	0.001989  
3836.000000	0.001931  
3835.000000	0.001953  
3834.000000	0.002039  
3833.000000	0.002119  
3832.000000	0.002118  
3831.000000	0.002024  
3830.000000	0.001888  
3829.000000	0.001770  
3828.000000	0.001692  
3827.000000	0.001643  
3826.000000	0.001614  
3825.000000	0.001618  
3824.000000	0.001694  
3823.000000	0.001873  
3822.000000	0.002137  
3821.000000	0.002351  
3820.000000	0.002317  
3819.000000	0.001993  
3818.000000	0.001552  
3817.000000	0.001264  
3816.000000	0.001272  
3815.000000	0.001446  
3814.000000	0.001573  
3813.000000	0.001581  
3812.000000	0.001525  
3811.000000	0.001459  
3810.000000	0.001398  
3809.000000	0.001356  
3808.000000	0.001390  
3807.000000	0.001544  
3806.000000	0.001754  
3805.000000	0.001908  
3804.000000	0.001941  
3803.000000	0.001849  
3802.000000	0.001704  
3801.000000	0.001576  
3800.000000	0.001461  
3799.000000	0.001380  
3798.000000	0.001402  
3797.000000	0.001570  
3796.000000	0.001822  
3795.000000	0.002022  
3794.000000	0.002078  
3793.000000	0.001998  
3792.000000	0.001848  
3791.000000	0.001691  
3790.000000	0.001566  
3789.000000	0.001490  
3788.000000	0.001465  
3787.000000	0.001481  
3786.000000	0.001516  
3785.000000	0.001545  
3784.000000	0.001541  
3783.000000	0.001491  
3782.000000	0.001403  
3781.000000	0.001307  
3780.000000	0.001243  
3779.000000	0.001226  
3778.000000	0.001234  
3777.000000	0.001247  
3776.000000	0.001267  
3775.000000	0.001297  
3774.000000	0.001318  
3773.000000	0.001312  
3772.000000	0.001317  
3771.000000	0.001419  
3770.000000	0.001651  
3769.000000	0.001903  
3768.000000	0.002003  
3767.000000	0.001875  
3766.000000	0.001597  
3765.000000	0.001326  
3764.000000	0.001169  
3763.000000	0.001132  
3762.000000	0.001169  
3761.000000	0.001220  
3760.000000	0.001250  
3759.000000	0.001267  
3758.000000	0.001304  
3757.000000	0.001365  
3756.000000	0.001420  
3755.000000	0.001479  
3754.000000	0.001648  
3753.000000	0.002061  
3752.000000	0.002664  
3751.000000	0.003112  
3750.000000	0.003095  
3749.000000	0.002704  
3748.000000	0.002250  
3747.000000	0.001964  
3746.000000	0.001928  
3745.000000	0.002103  
3744.000000	0.002309  
3743.000000	0.002371  
3742.000000	0.002333  
3741.000000	0.002361  
3740.000000	0.002547  
3739.000000	0.002844  
3738.000000	0.003111  
3737.000000	0.003222  
3736.000000	0.003140  
3735.000000	0.002925  
3734.000000	0.002694  
3733.000000	0.002535  
3732.000000	0.002447  
3731.000000	0.002383  
3730.000000	0.002320  
3729.000000	0.002263  
3728.000000	0.002214  
3727.000000	0.002170  
3726.000000	0.002123  
3725.000000	0.002070  
3724.000000	0.002008  
3723.000000	0.001915  
3722.000000	0.001759  
3721.000000	0.001523  
3720.000000	0.001246  
3719.000000	0.001019  
3718.000000	0.000928  
3717.000000	0.000987  
3716.000000	0.001113  
3715.000000	0.001192  
3714.000000	0.001178  
3713.000000	0.001143  
3712.000000	0.001207  
3711.000000	0.001366  
3710.000000	0.001480  
3709.000000	0.001485  
3708.000000	0.001478  
3707.000000	0.001590  
3706.000000	0.001825  
3705.000000	0.002031  
3704.000000	0.002014  
3703.000000	0.001727  
3702.000000	0.001340  
3701.000000	0.001084  
3700.000000	0.001034  
3699.000000	0.001102  
3698.000000	0.001181  
3697.000000	0.001237  
3696.000000	0.001299  
3695.000000	0.001408  
3694.000000	0.001556  
3693.000000	0.001662  
3692.000000	0.001613  
3691.000000	0.001388  
3690.000000	0.001152  
3689.000000	0.001101  
3688.000000	0.001220  
3687.000000	0.001340  
3686.000000	0.001381  
3685.000000	0.001400  
3684.000000	0.001485  
3683.000000	0.001625  
3682.000000	0.001705  
3681.000000	0.001629  
3680.000000	0.001424  
3679.000000	0.001206  
3678.000000	0.001100  
3677.000000	0.001200  
3676.000000	0.001528  
3675.000000	0.001911  
3674.000000	0.002139  
3673.000000	0.002204  
3672.000000	0.002246  
3671.000000	0.002354  
3670.000000	0.002482  
3669.000000	0.002499  
3668.000000	0.002356  
3667.000000	0.002134  
3666.000000	0.001923  
3665.000000	0.001725  
3664.000000	0.001486  
3663.000000	0.001185  
3662.000000	0.000881  
3661.000000	0.000663  
3660.000000	0.000551  
3659.000000	0.000506  
3658.000000	0.000508  
3657.000000	0.000624  
3656.000000	0.000901  
3655.000000	0.001242  
3654.000000	0.001478  
3653.000000	0.001495  
3652.000000	0.001299  
3651.000000	0.001040  
3650.000000	0.000944  
3649.000000	0.001086  
3648.000000	0.001334  
3647.000000	0.001545  
3646.000000	0.001665  
3645.000000	0.001701  
3644.000000	0.001705  
3643.000000	0.001755  
3642.000000	0.001888  
3641.000000	0.002050  
3640.000000	0.002128  
3639.000000	0.002049  
3638.000000	0.001856  
3637.000000	0.001668  
3636.000000	0.001611  
3635.000000	0.001729  
3634.000000	0.001947  
3633.000000	0.002110  
3632.000000	0.002102  
3631.000000	0.001951  
3630.000000	0.001847  
3629.000000	0.001933  
3628.000000	0.002048  
3627.000000	0.001979  
3626.000000	0.001774  
3625.000000	0.001612  
3624.000000	0.001576  
3623.000000	0.001587  
3622.000000	0.001494  
3621.000000	0.001244  
3620.000000	0.000973  
3619.000000	0.000867  
3618.000000	0.000946  
3617.000000	0.001081  
3616.000000	0.001173  
3615.000000	0.001231  
3614.000000	0.001331  
3613.000000	0.001521  
3612.000000	0.001761  
3611.000000	0.001976  
3610.000000	0.002111  
3609.000000	0.002127  
3608.000000	0.002011  
3607.000000	0.001785  
3606.000000	0.001499  
3605.000000	0.001208  
3604.000000	0.000964  
3603.000000	0.000830  
3602.000000	0.000873  
3601.000000	0.001121  
3600.000000	0.001505  
3599.000000	0.001888  
3598.000000	0.002129  
3597.000000	0.002154  
3596.000000	0.001992  
3595.000000	0.001760  
3594.000000	0.001569  
3593.000000	0.001420  
3592.000000	0.001237  
3591.000000	0.000974  
3590.000000	0.000714  
3589.000000	0.000641  
3588.000000	0.000869  
3587.000000	0.001269  
3586.000000	0.001588  
3585.000000	0.001692  
3584.000000	0.001604  
3583.000000	0.001410  
3582.000000	0.001214  
3581.000000	0.001130  
3580.000000	0.001219  
3579.000000	0.001414  
3578.000000	0.001548  
3577.000000	0.001499  
3576.000000	0.001317  
3575.000000	0.001150  
3574.000000	0.001083  
3573.000000	0.001067  
3572.000000	0.001011  
3571.000000	0.000908  
3570.000000	0.000849  
3569.000000	0.000928  
3568.000000	0.001128  
3567.000000	0.001311  
3566.000000	0.001373  
3565.000000	0.001331  
3564.000000	0.001258  
3563.000000	0.001202  
3562.000000	0.001179  
3561.000000	0.001208  
3560.000000	0.001317  
3559.000000	0.001502  
3558.000000	0.001695  
3557.000000	0.001789  
3556.000000	0.001714  
3555.000000	0.001490  
3554.000000	0.001216  
3553.000000	0.001004  
3552.000000	0.000905  
3551.000000	0.000892  
3550.000000	0.000894  
3549.000000	0.000853  
3548.000000	0.000766  
3547.000000	0.000698  
3546.000000	0.000745  
3545.000000	0.000931  
3544.000000	0.001174  
3543.000000	0.001364  
3542.000000	0.001472  
3541.000000	0.001547  
3540.000000	0.001632  
3539.000000	0.001689  
3538.000000	0.001639  
3537.000000	0.001458  
3536.000000	0.001222  
3535.000000	0.001054  
3534.000000	0.001025  
3533.000000	0.001118  
3532.000000	0.001264  
3531.000000	0.001396  
3530.000000	0.001477  
3529.000000	0.001499  
3528.000000	0.001460  
3527.000000	0.001361  
3526.000000	0.001208  
3525.000000	0.001023  
3524.000000	0.000844  
3523.000000	0.000734  
3522.000000	0.000744  
3521.000000	0.000879  
3520.000000	0.001076  
3519.000000	0.001255  
3518.000000	0.001376  
3517.000000	0.001459  
3516.000000	0.001554  
3515.000000	0.001688  
3514.000000	0.001842  
3513.000000	0.001958  
3512.000000	0.001977  
3511.000000	0.001886  
3510.000000	0.001729  
3509.000000	0.001567  
3508.000000	0.001427  
3507.000000	0.001302  
3506.000000	0.001199  
3505.000000	0.001160  
3504.000000	0.001230  
3503.000000	0.001407  
3502.000000	0.001626  
3501.000000	0.001803  
3500.000000	0.001888  
3499.000000	0.001892  
3498.000000	0.001875  
3497.000000	0.001882  
3496.000000	0.001897  
3495.000000	0.001875  
3494.000000	0.001794  
3493.000000	0.001661  
3492.000000	0.001485  
3491.000000	0.001281  
3490.000000	0.001107  
3489.000000	0.001049  
3488.000000	0.001142  
3487.000000	0.001340  
3486.000000	0.001563  
3485.000000	0.001762  
3484.000000	0.001892  
3483.000000	0.001894  
3482.000000	0.001740  
3481.000000	0.001498  
3480.000000	0.001292  
3479.000000	0.001194  
3478.000000	0.001187  
3477.000000	0.001211  
3476.000000	0.001237  
3475.000000	0.001274  
3474.000000	0.001348  
3473.000000	0.001456  
3472.000000	0.001550  
3471.000000	0.001566  
3470.000000	0.001484  
3469.000000	0.001373  
3468.000000	0.001335  
3467.000000	0.001413  
3466.000000	0.001545  
3465.000000	0.001619  
3464.000000	0.001550  
3463.000000	0.001341  
3462.000000	0.001083  
3461.000000	0.000903  
3460.000000	0.000879  
3459.000000	0.000986  
3458.000000	0.001141  
3457.000000	0.001276  
3456.000000	0.001372  
3455.000000	0.001445  
3454.000000	0.001520  
3453.000000	0.001622  
3452.000000	0.001751  
3451.000000	0.001862  
3450.000000	0.001903  
3449.000000	0.001881  
3448.000000	0.001852  
3447.000000	0.001856  
3446.000000	0.001880  
3445.000000	0.001891  
3444.000000	0.001881  
3443.000000	0.001848  
3442.000000	0.001792  
3441.000000	0.001739  
3440.000000	0.001750  
3439.000000	0.001850  
3438.000000	0.001970  
3437.000000	0.001984  
3436.000000	0.001817  
3435.000000	0.001518  
3434.000000	0.001241  
3433.000000	0.001144  
3432.000000	0.001274  
3431.000000	0.001526  
3430.000000	0.001720  
3429.000000	0.001736  
3428.000000	0.001585  
3427.000000	0.001363  
3426.000000	0.001166  
3425.000000	0.001065  
3424.000000	0.001086  
3423.000000	0.001207  
3422.000000	0.001362  
3421.000000	0.001494  
3420.000000	0.001585  
3419.000000	0.001646  
3418.000000	0.001679  
3417.000000	0.001691  
3416.000000	0.001703  
3415.000000	0.001738  
3414.000000	0.001787  
3413.000000	0.001824  
3412.000000	0.001844  
3411.000000	0.001855  
3410.000000	0.001843  
3409.000000	0.001761  
3408.000000	0.001594  
3407.000000	0.001390  
3406.000000	0.001234  
3405.000000	0.001181  
3404.000000	0.001222  
3403.000000	0.001319  
3402.000000	0.001453  
3401.000000	0.001623  
3400.000000	0.001797  
3399.000000	0.001895  
3398.000000	0.001856  
3397.000000	0.001721  
3396.000000	0.001631  
3395.000000	0.001703  
3394.000000	0.001914  
3393.000000	0.002124  
3392.000000	0.002194  
3391.000000	0.002101  
3390.000000	0.001941  
3389.000000	0.001833  
3388.000000	0.001817  
3387.000000	0.001815  
3386.000000	0.001719  
3385.000000	0.001535  
3384.000000	0.001408  
3383.000000	0.001482  
3382.000000	0.001737  
3381.000000	0.002011  
3380.000000	0.002157  
3379.000000	0.002137  
3378.000000	0.001984  
3377.000000	0.001728  
3376.000000	0.001413  
3375.000000	0.001140  
3374.000000	0.001028  
3373.000000	0.001111  
3372.000000	0.001307  
3371.000000	0.001499  
3370.000000	0.001645  
3369.000000	0.001790  
3368.000000	0.001982  
3367.000000	0.002196  
3366.000000	0.002349  
3365.000000	0.002384  
3364.000000	0.002315  
3363.000000	0.002196  
3362.000000	0.002079  
3361.000000	0.002004  
3360.000000	0.001984  
3359.000000	0.001990  
3358.000000	0.001975  
3357.000000	0.001935  
3356.000000	0.001925  
3355.000000	0.001984  
3354.000000	0.002062  
3353.000000	0.002064  
3352.000000	0.001961  
3351.000000	0.001802  
3350.000000	0.001647  
3349.000000	0.001519  
3348.000000	0.001444  
3347.000000	0.001465  
3346.000000	0.001584  
3345.000000	0.001723  
3344.000000	0.001792  
3343.000000	0.001777  
3342.000000	0.001739  
3341.000000	0.001723  
3340.000000	0.001706  
3339.000000	0.001641  
3338.000000	0.001537  
3337.000000	0.001476  
3336.000000	0.001537  
3335.000000	0.001716  
3334.000000	0.001909  
3333.000000	0.002013  
3332.000000	0.002012  
3331.000000	0.001967  
3330.000000	0.001942  
3329.000000	0.001955  
3328.000000	0.001996  
3327.000000	0.002041  
3326.000000	0.002039  
3325.000000	0.001938  
3324.000000	0.001750  
3323.000000	0.001569  
3322.000000	0.001487  
3321.000000	0.001514  
3320.000000	0.001599  
3319.000000	0.001723  
3318.000000	0.001894  
3317.000000	0.002077  
3316.000000	0.002175  
3315.000000	0.002127  
3314.000000	0.001974  
3313.000000	0.001831  
3312.000000	0.001792  
3311.000000	0.001873  
3310.000000	0.002028  
3309.000000	0.002162  
3308.000000	0.002167  
3307.000000	0.002003  
3306.000000	0.001761  
3305.000000	0.001610  
3304.000000	0.001658  
3303.000000	0.001851  
3302.000000	0.002041  
3301.000000	0.002135  
3300.000000	0.002140  
3299.000000	0.002087  
3298.000000	0.001976  
3297.000000	0.001825  
3296.000000	0.001708  
3295.000000	0.001699  
3294.000000	0.001793  
3293.000000	0.001917  
3292.000000	0.002015  
3291.000000	0.002082  
3290.000000	0.002113  
3289.000000	0.002082  
3288.000000	0.001990  
3287.000000	0.001883  
3286.000000	0.001799  
3285.000000	0.001731  
3284.000000	0.001656  
3283.000000	0.001591  
3282.000000	0.001569  
3281.000000	0.001595  
3280.000000	0.001634  
3279.000000	0.001661  
3278.000000	0.001683  
3277.000000	0.001721  
3276.000000	0.001798  
3275.000000	0.001939  
3274.000000	0.002147  
3273.000000	0.002380  
3272.000000	0.002542  
3271.000000	0.002541  
3270.000000	0.002355  
3269.000000	0.002051  
3268.000000	0.001733  
3267.000000	0.001480  
3266.000000	0.001333  
3265.000000	0.001324  
3264.000000	0.001464  
3263.000000	0.001708  
3262.000000	0.001947  
3261.000000	0.002097  
3260.000000	0.002169  
3259.000000	0.002239  
3258.000000	0.002339  
3257.000000	0.002418  
3256.000000	0.002416  
3255.000000	0.002341  
3254.000000	0.002272  
3253.000000	0.002281  
3252.000000	0.002369  
3251.000000	0.002470  
3250.000000	0.002510  
3249.000000	0.002483  
3248.000000	0.002460  
3247.000000	0.002484  
3246.000000	0.002484  
3245.000000	0.002359  
3244.000000	0.002133  
3243.000000	0.001968  
3242.000000	0.001991  
3241.000000	0.002152  
3240.000000	0.002292  
3239.000000	0.002300  
3238.000000	0.002173  
3237.000000	0.001968  
3236.000000	0.001751  
3235.000000	0.001583  
3234.000000	0.001496  
3233.000000	0.001488  
3232.000000	0.001553  
3231.000000	0.001699  
3230.000000	0.001899  
3229.000000	0.002070  
3228.000000	0.002142  
3227.000000	0.002132  
3226.000000	0.002116  
3225.000000	0.002131  
3224.000000	0.002155  
3223.000000	0.002167  
3222.000000	0.002162  
3221.000000	0.002131  
3220.000000	0.002061  
3219.000000	0.001983  
3218.000000	0.001954  
3217.000000	0.002000  
3216.000000	0.002092  
3215.000000	0.002202  
3214.000000	0.002328  
3213.000000	0.002462  
3212.000000	0.002565  
3211.000000	0.002597  
3210.000000	0.002554  
3209.000000	0.002465  
3208.000000	0.002377  
3207.000000	0.002348  
3206.000000	0.002416  
3205.000000	0.002565  
3204.000000	0.002739  
3203.000000	0.002887  
3202.000000	0.002974  
3201.000000	0.002955  
3200.000000	0.002788  
3199.000000	0.002490  
3198.000000	0.002157  
3197.000000	0.001879  
3196.000000	0.001686  
3195.000000	0.001565  
3194.000000	0.001508  
3193.000000	0.001513  
3192.000000	0.001568  
3191.000000	0.001686  
3190.000000	0.001906  
3189.000000	0.002220  
3188.000000	0.002513  
3187.000000	0.002640  
3186.000000	0.002575  
3185.000000	0.002439  
3184.000000	0.002358  
3183.000000	0.002335  
3182.000000	0.002285  
3181.000000	0.002169  
3180.000000	0.002034  
3179.000000	0.001942  
3178.000000	0.001908  
3177.000000	0.001927  
3176.000000	0.002019  
3175.000000	0.002190  
3174.000000	0.002378  
3173.000000	0.002481  
3172.000000	0.002460  
3171.000000	0.002376  
3170.000000	0.002315  
3169.000000	0.002311  
3168.000000	0.002348  
3167.000000	0.002410  
3166.000000	0.002489  
3165.000000	0.002561  
3164.000000	0.002592  
3163.000000	0.002558  
3162.000000	0.002471  
3161.000000	0.002362  
3160.000000	0.002280  
3159.000000	0.002272  
3158.000000	0.002362  
3157.000000	0.002516  
3156.000000	0.002662  
3155.000000	0.002745  
3154.000000	0.002773  
3153.000000	0.002791  
3152.000000	0.002815  
3151.000000	0.002799  
3150.000000	0.002676  
3149.000000	0.002439  
3148.000000	0.002180  
3147.000000	0.002008  
3146.000000	0.001954  
3145.000000	0.001973  
3144.000000	0.002029  
3143.000000	0.002127  
3142.000000	0.002251  
3141.000000	0.002338  
3140.000000	0.002348  
3139.000000	0.002325  
3138.000000	0.002344  
3137.000000	0.002406  
3136.000000	0.002437  
3135.000000	0.002386  
3134.000000	0.002284  
3133.000000	0.002209  
3132.000000	0.002218  
3131.000000	0.002317  
3130.000000	0.002456  
3129.000000	0.002552  
3128.000000	0.002551  
3127.000000	0.002463  
3126.000000	0.002341  
3125.000000	0.002235  
3124.000000	0.002188  
3123.000000	0.002239  
3122.000000	0.002398  
3121.000000	0.002599  
3120.000000	0.002735  
3119.000000	0.002742  
3118.000000	0.002641  
3117.000000	0.002503  
3116.000000	0.002391  
3115.000000	0.002347  
3114.000000	0.002371  
3113.000000	0.002418  
3112.000000	0.002437  
3111.000000	0.002422  
3110.000000	0.002403  
3109.000000	0.002393  
3108.000000	0.002370  
3107.000000	0.002316  
3106.000000	0.002249  
3105.000000	0.002207  
3104.000000	0.002225  
3103.000000	0.002325  
3102.000000	0.002478  
3101.000000	0.002593  
3100.000000	0.002578  
3099.000000	0.002433  
3098.000000	0.002269  
3097.000000	0.002205  
3096.000000	0.002276  
3095.000000	0.002441  
3094.000000	0.002626  
3093.000000	0.002759  
3092.000000	0.002798  
3091.000000	0.002766  
3090.000000	0.002732  
3089.000000	0.002736  
3088.000000	0.002755  
3087.000000	0.002760  
3086.000000	0.002769  
3085.000000	0.002805  
3084.000000	0.002833  
3083.000000	0.002796  
3082.000000	0.002710  
3081.000000	0.002677  
3080.000000	0.002779  
3079.000000	0.002994  
3078.000000	0.003215  
3077.000000	0.003352  
3076.000000	0.003383  
3075.000000	0.003345  
3074.000000	0.003278  
3073.000000	0.003204  
3072.000000	0.003146  
3071.000000	0.003150  
3070.000000	0.003246  
3069.000000	0.003391  
3068.000000	0.003488  
3067.000000	0.003486  
3066.000000	0.003449  
3065.000000	0.003493  
3064.000000	0.003666  
3063.000000	0.003903  
3062.000000	0.004083  
3061.000000	0.004122  
3060.000000	0.004029  
3059.000000	0.003883  
3058.000000	0.003765  
3057.000000	0.003705  
3056.000000	0.003685  
3055.000000	0.003701  
3054.000000	0.003766  
3053.000000	0.003855  
3052.000000	0.003887  
3051.000000	0.003803  
3050.000000	0.003661  
3049.000000	0.003598  
3048.000000	0.003699  
3047.000000	0.003919  
3046.000000	0.004140  
3045.000000	0.004266  
3044.000000	0.004268  
3043.000000	0.004176  
3042.000000	0.004052  
3041.000000	0.003960  
3040.000000	0.003943  
3039.000000	0.004010  
3038.000000	0.004136  
3037.000000	0.004267  
3036.000000	0.004347  
3035.000000	0.004348  
3034.000000	0.004298  
3033.000000	0.004261  
3032.000000	0.004305  
3031.000000	0.004470  
3030.000000	0.004748  
3029.000000	0.005076  
3028.000000	0.005371  
3027.000000	0.005586  
3026.000000	0.005736  
3025.000000	0.005876  
3024.000000	0.006048  
3023.000000	0.006264  
3022.000000	0.006494  
3021.000000	0.006676  
3020.000000	0.006770  
3019.000000	0.006826  
3018.000000	0.006972  
3017.000000	0.007289  
3016.000000	0.007724  
3015.000000	0.008147  
3014.000000	0.008472  
3013.000000	0.008698  
3012.000000	0.008844  
3011.000000	0.008924  
3010.000000	0.008968  
3009.000000	0.009041  
3008.000000	0.009177  
3007.000000	0.009349  
3006.000000	0.009483  
3005.000000	0.009517  
3004.000000	0.009426  
3003.000000	0.009237  
3002.000000	0.009044  
3001.000000	0.008973  
3000.000000	0.009096  
2999.000000	0.009369  
2998.000000	0.009658  
2997.000000	0.009837  
2996.000000	0.009874  
2995.000000	0.009836  
2994.000000	0.009848  
2993.000000	0.010028  
2992.000000	0.010419  
2991.000000	0.010976  
2990.000000	0.011601  
2989.000000	0.012225  
2988.000000	0.012844  
2987.000000	0.013514  
2986.000000	0.014300  
2985.000000	0.015220  
2984.000000	0.016243  
2983.000000	0.017335  
2982.000000	0.018498  
2981.000000	0.019778  
2980.000000	0.021225  
2979.000000	0.022869  
2978.000000	0.024735  
2977.000000	0.026861  
2976.000000	0.029301  
2975.000000	0.032103  
2974.000000	0.035293  
2973.000000	0.038853  
2972.000000	0.042720  
2971.000000	0.046826  
2970.000000	0.051163  
2969.000000	0.055819  
2968.000000	0.060902  
2967.000000	0.066392  
2966.000000	0.072082  
2965.000000	0.077696  
2964.000000	0.083069  
2963.000000	0.088204  
2962.000000	0.093162  
2961.000000	0.097933  
2960.000000	0.102410  
2959.000000	0.106428  
2958.000000	0.109809  
2957.000000	0.112407  
2956.000000	0.114162  
2955.000000	0.115092  
2954.000000	0.115222  
2953.000000	0.114553  
2952.000000	0.113132  
2951.000000	0.111132  
2950.000000	0.108824  
2949.000000	0.106480  
2948.000000	0.104298  
2947.000000	0.102418  
2946.000000	0.100971  
2945.000000	0.100117  
2944.000000	0.100044  
2943.000000	0.100915  
2942.000000	0.102797  
2941.000000	0.105633  
2940.000000	0.109305  
2939.000000	0.113724  
2938.000000	0.118852  
2937.000000	0.124634  
2936.000000	0.130945  
2935.000000	0.137614  
2934.000000	0.144527  
2933.000000	0.151688  
2932.000000	0.159165  
2931.000000	0.166949  
2930.000000	0.174850  
2929.000000	0.182565  
2928.000000	0.189836  
2927.000000	0.196502  
2926.000000	0.202414  
2925.000000	0.207365  
2924.000000	0.211131  
2923.000000	0.213517  
2922.000000	0.214365  
2921.000000	0.213613  
2920.000000	0.211399  
2919.000000	0.208052  
2918.000000	0.203906  
2917.000000	0.199162  
2916.000000	0.193936  
2915.000000	0.188378  
2914.000000	0.182686  
2913.000000	0.177029  
2912.000000	0.171525  
2911.000000	0.166282  
2910.000000	0.161390  
2909.000000	0.156840  
2908.000000	0.152498  
2907.000000	0.148205  
2906.000000	0.143902  
2905.000000	0.139638  
2904.000000	0.135489  
2903.000000	0.131486  
2902.000000	0.127619  
2901.000000	0.123868  
2900.000000	0.120202  
2899.000000	0.116579  
2898.000000	0.112966  
2897.000000	0.109376  
2896.000000	0.105864  
2895.000000	0.102497  
2894.000000	0.099292  
2893.000000	0.096188  
2892.000000	0.093072  
2891.000000	0.089878  
2890.000000	0.086668  
2889.000000	0.083610  
2888.000000	0.080866  
2887.000000	0.078512  
2886.000000	0.076559  
2885.000000	0.075015  
2884.000000	0.073910  
2883.000000	0.073274  
2882.000000	0.073125  
2881.000000	0.073479  
2880.000000	0.074370  
2879.000000	0.075870  
2878.000000	0.078061  
2877.000000	0.080934  
2876.000000	0.084301  
2875.000000	0.087800  
2874.000000	0.091031  
2873.000000	0.093678  
2872.000000	0.095557  
2871.000000	0.096625  
2870.000000	0.097007  
2869.000000	0.097007  
2868.000000	0.096985  
2867.000000	0.097222  
2866.000000	0.097887  
2865.000000	0.099135  
2864.000000	0.101131  
2863.000000	0.103945  
2862.000000	0.107483  
2861.000000	0.111564  
2860.000000	0.116048  
2859.000000	0.120824  
2858.000000	0.125683  
2857.000000	0.130250  
2856.000000	0.134059  
2855.000000	0.136661  
2854.000000	0.137690  
2853.000000	0.136934  
2852.000000	0.134392  
2851.000000	0.130271  
2850.000000	0.124901  
2849.000000	0.118630  
2848.000000	0.111785  
2847.000000	0.104658  
2846.000000	0.097513  
2845.000000	0.090549  
2844.000000	0.083835  
2843.000000	0.077322  
2842.000000	0.070956  
2841.000000	0.064801  
2840.000000	0.059024  
2839.000000	0.053768  
2838.000000	0.049069  
2837.000000	0.044886  
2836.000000	0.041155  
2835.000000	0.037798  
2834.000000	0.034725  
2833.000000	0.031886  
2832.000000	0.029311  
2831.000000	0.027078  
2830.000000	0.025231  
2829.000000	0.023720  
2828.000000	0.022430  
2827.000000	0.021239  
2826.000000	0.020073  
2825.000000	0.018934  
2824.000000	0.017877  
2823.000000	0.016964  
2822.000000	0.016224  
2821.000000	0.015630  
2820.000000	0.015123  
2819.000000	0.014645  
2818.000000	0.014167  
2817.000000	0.013685  
2816.000000	0.013208  
2815.000000	0.012743  
2814.000000	0.012291  
2813.000000	0.011851  
2812.000000	0.011420  
2811.000000	0.011007  
2810.000000	0.010645  
2809.000000	0.010378  
2808.000000	0.010226  
2807.000000	0.010152  
2806.000000	0.010074  
2805.000000	0.009917  
2804.000000	0.009656  
2803.000000	0.009320  
2802.000000	0.008968  
2801.000000	0.008661  
2800.000000	0.008435  
2799.000000	0.008292  
2798.000000	0.008208  
2797.000000	0.008159  
2796.000000	0.008136  
2795.000000	0.008114  
2794.000000	0.008031  
2793.000000	0.007818  
2792.000000	0.007464  
2791.000000	0.007056  
2790.000000	0.006726  
2789.000000	0.006553  
2788.000000	0.006521  
2787.000000	0.006545  
2786.000000	0.006546  
2785.000000	0.006483  
2784.000000	0.006362  
2783.000000	0.006217  
2782.000000	0.006090  
2781.000000	0.006012  
2780.000000	0.005988  
2779.000000	0.005991  
2778.000000	0.005973  
2777.000000	0.005880  
2776.000000	0.005692  
2775.000000	0.005454  
2774.000000	0.005273  
2773.000000	0.005234  
2772.000000	0.005316  
2771.000000	0.005407  
2770.000000	0.005400  
2769.000000	0.005277  
2768.000000	0.005087  
2767.000000	0.004879  
2766.000000	0.004684  
2765.000000	0.004543  
2764.000000	0.004506  
2763.000000	0.004576  
2762.000000	0.004682  
2761.000000	0.004730  
2760.000000	0.004685  
2759.000000	0.004597  
2758.000000	0.004541  
2757.000000	0.004552  
2756.000000	0.004602  
2755.000000	0.004636  
2754.000000	0.004616  
2753.000000	0.004547  
2752.000000	0.004467  
2751.000000	0.004417  
2750.000000	0.004415  
2749.000000	0.004455  
2748.000000	0.004510  
2747.000000	0.004540  
2746.000000	0.004516  
2745.000000	0.004444  
2744.000000	0.004369  
2743.000000	0.004337  
2742.000000	0.004362  
2741.000000	0.004433  
2740.000000	0.004543  
2739.000000	0.004685  
2738.000000	0.004828  
2737.000000	0.004928  
2736.000000	0.004976  
2735.000000	0.005011  
2734.000000	0.005074  
2733.000000	0.005154  
2732.000000	0.005193  
2731.000000	0.005157  
2730.000000	0.005078  
2729.000000	0.005028  
2728.000000	0.005062  
2727.000000	0.005165  
2726.000000	0.005256  
2725.000000	0.005255  
2724.000000	0.005147  
2723.000000	0.004992  
2722.000000	0.004859  
2721.000000	0.004773  
2720.000000	0.004729  
2719.000000	0.004721  
2718.000000	0.004749  
2717.000000	0.004790  
2716.000000	0.004808  
2715.000000	0.004777  
2714.000000	0.004689  
2713.000000	0.004541  
2712.000000	0.004354  
2711.000000	0.004188  
2710.000000	0.004114  
2709.000000	0.004144  
2708.000000	0.004208  
2707.000000	0.004224  
2706.000000	0.004166  
2705.000000	0.004064  
2704.000000	0.003956  
2703.000000	0.003869  
2702.000000	0.003815  
2701.000000	0.003785  
2700.000000	0.003748  
2699.000000	0.003684  
2698.000000	0.003622  
2697.000000	0.003625  
2696.000000	0.003725  
2695.000000	0.003886  
2694.000000	0.004028  
2693.000000	0.004091  
2692.000000	0.004065  
2691.000000	0.003992  
2690.000000	0.003949  
2689.000000	0.004007  
2688.000000	0.004177  
2687.000000	0.004384  
2686.000000	0.004515  
2685.000000	0.004512  
2684.000000	0.004416  
2683.000000	0.004321  
2682.000000	0.004289  
2681.000000	0.004314  
2680.000000	0.004356  
2679.000000	0.004388  
2678.000000	0.004411  
2677.000000	0.004444  
2676.000000	0.004508  
2675.000000	0.004603  
2674.000000	0.004698  
2673.000000	0.004741  
2672.000000	0.004700  
2671.000000	0.004590  
2670.000000	0.004468  
2669.000000	0.004400  
2668.000000	0.004422  
2667.000000	0.004523  
2666.000000	0.004648  
2665.000000	0.004734  
2664.000000	0.004740  
2663.000000	0.004654  
2662.000000	0.004488  
2661.000000	0.004278  
2660.000000	0.004093  
2659.000000	0.003997  
2658.000000	0.003990  
2657.000000	0.004013  
2656.000000	0.004022  
2655.000000	0.004027  
2654.000000	0.004043  
2653.000000	0.004034  
2652.000000	0.003966  
2651.000000	0.003879  
2650.000000	0.003861  
2649.000000	0.003929  
2648.000000	0.003994  
2647.000000	0.003967  
2646.000000	0.003856  
2645.000000	0.003736  
2644.000000	0.003676  
2643.000000	0.003704  
2642.000000	0.003817  
2641.000000	0.003966  
2640.000000	0.004056  
2639.000000	0.004019  
2638.000000	0.003870  
2637.000000	0.003690  
2636.000000	0.003557  
2635.000000	0.003509  
2634.000000	0.003559  
2633.000000	0.003693  
2632.000000	0.003852  
2631.000000	0.003954  
2630.000000	0.003951  
2629.000000	0.003867  
2628.000000	0.003777  
2627.000000	0.003752  
2626.000000	0.003807  
2625.000000	0.003876  
2624.000000	0.003863  
2623.000000	0.003720  
2622.000000	0.003496  
2621.000000	0.003288  
2620.000000	0.003149  
2619.000000	0.003065  
2618.000000	0.003016  
2617.000000	0.003018  
2616.000000	0.003098  
2615.000000	0.003248  
2614.000000	0.003412  
2613.000000	0.003532  
2612.000000	0.003586  
2611.000000	0.003599  
2610.000000	0.003611  
2609.000000	0.003636  
2608.000000	0.003658  
2607.000000	0.003667  
2606.000000	0.003670  
2605.000000	0.003670  
2604.000000	0.003632  
2603.000000	0.003525  
2602.000000	0.003382  
2601.000000	0.003292  
2600.000000	0.003314  
2599.000000	0.003406  
2598.000000	0.003467  
2597.000000	0.003437  
2596.000000	0.003347  
2595.000000	0.003263  
2594.000000	0.003190  
2593.000000	0.003068  
2592.000000	0.002867  
2591.000000	0.002658  
2590.000000	0.002554  
2589.000000	0.002589  
2588.000000	0.002698  
2587.000000	0.002799  
2586.000000	0.002872  
2585.000000	0.002912  
2584.000000	0.002883  
2583.000000	0.002753  
2582.000000	0.002558  
2581.000000	0.002397  
2580.000000	0.002343  
2579.000000	0.002407  
2578.000000	0.002559  
2577.000000	0.002742  
2576.000000	0.002871  
2575.000000	0.002871  
2574.000000	0.002736  
2573.000000	0.002556  
2572.000000	0.002441  
2571.000000	0.002426  
2570.000000	0.002455  
2569.000000	0.002450  
2568.000000	0.002385  
2567.000000	0.002296  
2566.000000	0.002231  
2565.000000	0.002196  
2564.000000	0.002169  
2563.000000	0.002140  
2562.000000	0.002127  
2561.000000	0.002144  
2560.000000	0.002172  
2559.000000	0.002194  
2558.000000	0.002230  
2557.000000	0.002325  
2556.000000	0.002471  
2555.000000	0.002577  
2554.000000	0.002551  
2553.000000	0.002407  
2552.000000	0.002295  
2551.000000	0.002366  
2550.000000	0.002616  
2549.000000	0.002879  
2548.000000	0.002991  
2547.000000	0.002922  
2546.000000	0.002732  
2545.000000	0.002471  
2544.000000	0.002177  
2543.000000	0.001941  
2542.000000	0.001861  
2541.000000	0.001916  
2540.000000	0.001968  
2539.000000	0.001931  
2538.000000	0.001871  
2537.000000	0.001885  
2536.000000	0.001958  
2535.000000	0.001985  
2534.000000	0.001925  
2533.000000	0.001843  
2532.000000	0.001819  
2531.000000	0.001863  
2530.000000	0.001920  
2529.000000	0.001917  
2528.000000	0.001828  
2527.000000	0.001718  
2526.000000	0.001711  
2525.000000	0.001864  
2524.000000	0.002107  
2523.000000	0.002319  
2522.000000	0.002436  
2521.000000	0.002446  
2520.000000	0.002336  
2519.000000	0.002133  
2518.000000	0.001965  
2517.000000	0.001981  
2516.000000	0.002181  
2515.000000	0.002398  
2514.000000	0.002483  
2513.000000	0.002434  
2512.000000	0.002340  
2511.000000	0.002243  
2510.000000	0.002119  
2509.000000	0.001964  
2508.000000	0.001836  
2507.000000	0.001819  
2506.000000	0.001948  
2505.000000	0.002159  
2504.000000	0.002294  
2503.000000	0.002220  
2502.000000	0.001967  
2501.000000	0.001735  
2500.000000	0.001710  
2499.000000	0.001871  
2498.000000	0.002007  
2497.000000	0.001923  
2496.000000	0.001612  
2495.000000	0.001241  
2494.000000	0.001020  
2493.000000	0.001064  
2492.000000	0.001355  
2491.000000	0.001770  
2490.000000	0.002147  
2489.000000	0.002360  
2488.000000	0.002366  
2487.000000	0.002209  
2486.000000	0.001970  
2485.000000	0.001703  
2484.000000	0.001446  
2483.000000	0.001269  
2482.000000	0.001277  
2481.000000	0.001521  
2480.000000	0.001910  
2479.000000	0.002251  
2478.000000	0.002382  
2477.000000	0.002281  
2476.000000	0.002057  
2475.000000	0.001850  
2474.000000	0.001737  
2473.000000	0.001704  
2472.000000	0.001697  
2471.000000	0.001685  
2470.000000	0.001669  
2469.000000	0.001657  
2468.000000	0.001674  
2467.000000	0.001773  
2466.000000	0.001988  
2465.000000	0.002243  
2464.000000	0.002367  
2463.000000	0.002265  
2462.000000	0.002021  
2461.000000	0.001803  
2460.000000	0.001702  
2459.000000	0.001711  
2458.000000	0.001807  
2457.000000	0.001957  
2456.000000	0.002064  
2455.000000	0.002019  
2454.000000	0.001838  
2453.000000	0.001656  
2452.000000	0.001565  
2451.000000	0.001510  
2450.000000	0.001402  
2449.000000	0.001271  
2448.000000	0.001242  
2447.000000	0.001380  
2446.000000	0.001620  
2445.000000	0.001834  
2444.000000	0.001942  
2443.000000	0.001948  
2442.000000	0.001911  
2441.000000	0.001884  
2440.000000	0.001870  
2439.000000	0.001836  
2438.000000	0.001773  
2437.000000	0.001716  
2436.000000	0.001686  
2435.000000	0.001653  
2434.000000	0.001571  
2433.000000	0.001452  
2432.000000	0.001359  
2431.000000	0.001342  
2430.000000	0.001396  
2429.000000	0.001477  
2428.000000	0.001554  
2427.000000	0.001631  
2426.000000	0.001727  
2425.000000	0.001837  
2424.000000	0.001917  
2423.000000	0.001918  
2422.000000	0.001838  
2421.000000	0.001735  
2420.000000	0.001676  
2419.000000	0.001681  
2418.000000	0.001711  
2417.000000	0.001717  
2416.000000	0.001692  
2415.000000	0.001692  
2414.000000	0.001793  
2413.000000	0.002005  
2412.000000	0.002231  
2411.000000	0.002340  
2410.000000	0.002292  
2409.000000	0.002177  
2408.000000	0.002113  
2407.000000	0.002117  
2406.000000	0.002087  
2405.000000	0.001924  
2404.000000	0.001639  
2403.000000	0.001351  
2402.000000	0.001178  
2401.000000	0.001153  
2400.000000	0.001238  
2399.000000	0.001394  
2398.000000	0.001602  
2397.000000	0.001821  
2396.000000	0.001970  
2395.000000	0.002005  
2394.000000	0.001989  
2393.000000	0.002033  
2392.000000	0.002177  
2391.000000	0.002341  
2390.000000	0.002423  
2389.000000	0.002413  
2388.000000	0.002417  
2387.000000	0.002579  
2386.000000	0.002976  
2385.000000	0.003540  
2384.000000	0.004070  
2383.000000	0.004343  
2382.000000	0.004250  
2381.000000	0.003849  
2380.000000	0.003295  
2379.000000	0.002729  
2378.000000	0.002206  
2377.000000	0.001728  
2376.000000	0.001331  
2375.000000	0.001128  
2374.000000	0.001233  
2373.000000	0.001647  
2372.000000	0.002262  
2371.000000	0.002966  
2370.000000	0.003649  
2369.000000	0.004089  
2368.000000	0.004028  
2367.000000	0.003496  
2366.000000	0.002895  
2365.000000	0.002575  
2364.000000	0.002460  
2363.000000	0.002342  
2362.000000	0.002284  
2361.000000	0.002533  
2360.000000	0.003210  
2359.000000	0.004037  
2358.000000	0.004548  
2357.000000	0.004430  
2356.000000	0.003704  
2355.000000	0.002718  
2354.000000	0.001800  
2353.000000	0.001265  
2352.000000	0.001314  
2351.000000	0.001841  
2350.000000	0.002517  
2349.000000	0.002928  
2348.000000	0.002935  
2347.000000	0.002678  
2346.000000	0.002607  
2345.000000	0.003098  
2344.000000	0.003903  
2343.000000	0.004456  
2342.000000	0.004305  
2341.000000	0.003648  
2340.000000	0.003026  
2339.000000	0.002659  
2338.000000	0.002323  
2337.000000	0.001824  
2336.000000	0.001325  
2335.000000	0.001084  
2334.000000	0.001088  
2333.000000	0.001222  
2332.000000	0.001511  
2331.000000	0.002052  
2330.000000	0.002865  
2329.000000	0.003699  
2328.000000	0.004408  
2327.000000	0.004894  
2326.000000	0.005108  
2325.000000	0.005013  
2324.000000	0.004555  
2323.000000	0.003875  
2322.000000	0.003182  
2321.000000	0.002797  
2320.000000	0.002893  
2319.000000	0.003395  
2318.000000	0.003987  
2317.000000	0.004283  
2316.000000	0.004111  
2315.000000	0.003614  
2314.000000	0.003213  
2313.000000	0.003240  
2312.000000	0.003677  
2311.000000	0.004180  
2310.000000	0.004467  
2309.000000	0.004532  
2308.000000	0.004517  
2307.000000	0.004482  
2306.000000	0.004366  
2305.000000	0.004153  
2304.000000	0.003912  
2303.000000	0.003741  
2302.000000	0.003659  
2301.000000	0.003608  
2300.000000	0.003523  
2299.000000	0.003411  
2298.000000	0.003382  
2297.000000	0.003515  
2296.000000	0.003743  
2295.000000	0.003877  
2294.000000	0.003816  
2293.000000	0.003646  
2292.000000	0.003506  
2291.000000	0.003427  
2290.000000	0.003336  
2289.000000	0.003178  
2288.000000	0.002930  
2287.000000	0.002560  
2286.000000	0.002091  
2285.000000	0.001695  
2284.000000	0.001566  
2283.000000	0.001690  
2282.000000	0.001823  
2281.000000	0.001785  
2280.000000	0.001671  
2279.000000	0.001702  
2278.000000	0.001915  
2277.000000	0.002127  
2276.000000	0.002201  
2275.000000	0.002238  
2274.000000	0.002453  
2273.000000	0.002880  
2272.000000	0.003297  
2271.000000	0.003448  
2270.000000	0.003288  
2269.000000	0.002966  
2268.000000	0.002601  
2267.000000	0.002192  
2266.000000	0.001764  
2265.000000	0.001477  
2264.000000	0.001470  
2263.000000	0.001673  
2262.000000	0.001876  
2261.000000	0.001979  
2260.000000	0.002037  
2259.000000	0.002124  
2258.000000	0.002242  
2257.000000	0.002378  
2256.000000	0.002521  
2255.000000	0.002602  
2254.000000	0.002534  
2253.000000	0.002356  
2252.000000	0.002239  
2251.000000	0.002286  
2250.000000	0.002413  
2249.000000	0.002459  
2248.000000	0.002337  
2247.000000	0.002028  
2246.000000	0.001563  
2245.000000	0.001080  
2244.000000	0.000825  
2243.000000	0.000941  
2242.000000	0.001317  
2241.000000	0.001711  
2240.000000	0.002004  
2239.000000	0.002221  
2238.000000	0.002359  
2237.000000	0.002333  
2236.000000	0.002127  
2235.000000	0.001876  
2234.000000	0.001747  
2233.000000	0.001770  
2232.000000	0.001822  
2231.000000	0.001747  
2230.000000	0.001496  
2229.000000	0.001169  
2228.000000	0.000944  
2227.000000	0.000932  
2226.000000	0.001073  
2225.000000	0.001172  
2224.000000	0.001038  
2223.000000	0.000627  
2222.000000	0.000112  
2221.000000	-0.000186 
2220.000000	-0.000030 
2219.000000	0.000513  
2218.000000	0.001107  
2217.000000	0.001480  
2216.000000	0.001666  
2215.000000	0.001854  
2214.000000	0.002074  
2213.000000	0.002174  
2212.000000	0.002103  
2211.000000	0.002012  
2210.000000	0.002013  
2209.000000	0.001976  
2208.000000	0.001714  
2207.000000	0.001311  
2206.000000	0.001102  
2205.000000	0.001322  
2204.000000	0.001880  
2203.000000	0.002506  
2202.000000	0.003019  
2201.000000	0.003381  
2200.000000	0.003576  
2199.000000	0.003551  
2198.000000	0.003299  
2197.000000	0.002932  
2196.000000	0.002589  
2195.000000	0.002316  
2194.000000	0.002069  
2193.000000	0.001814  
2192.000000	0.001542  
2191.000000	0.001218  
2190.000000	0.000812  
2189.000000	0.000446  
2188.000000	0.000393  
2187.000000	0.000809  
2186.000000	0.001470  
2185.000000	0.001925  
2184.000000	0.001942  
2183.000000	0.001752  
2182.000000	0.001775  
2181.000000	0.002159  
2180.000000	0.002640  
2179.000000	0.002833  
2178.000000	0.002601  
2177.000000	0.002165  
2176.000000	0.001867  
2175.000000	0.001812  
2174.000000	0.001766  
2173.000000	0.001483  
2172.000000	0.001075  
2171.000000	0.000932  
2170.000000	0.001242  
2169.000000	0.001723  
2168.000000	0.001940  
2167.000000	0.001810  
2166.000000	0.001668  
2165.000000	0.001828  
2164.000000	0.002221  
2163.000000	0.002502  
2162.000000	0.002436  
2161.000000	0.002107  
2160.000000	0.001812  
2159.000000	0.001783  
2158.000000	0.001991  
2157.000000	0.002219  
2156.000000	0.002280  
2155.000000	0.002144  
2154.000000	0.001894  
2153.000000	0.001669  
2152.000000	0.001606  
2151.000000	0.001750  
2150.000000	0.001966  
2149.000000	0.002028  
2148.000000	0.001864  
2147.000000	0.001676  
2146.000000	0.001730  
2145.000000	0.002066  
2144.000000	0.002474  
2143.000000	0.002718  
2142.000000	0.002685  
2141.000000	0.002361  
2140.000000	0.001829  
2139.000000	0.001302  
2138.000000	0.001048  
2137.000000	0.001158  
2136.000000	0.001434  
2135.000000	0.001575  
2134.000000	0.001476  
2133.000000	0.001304  
2132.000000	0.001303  
2131.000000	0.001563  
2130.000000	0.001950  
2129.000000	0.002236  
2128.000000	0.002296  
2127.000000	0.002187  
2126.000000	0.002026  
2125.000000	0.001843  
2124.000000	0.001607  
2123.000000	0.001385  
2122.000000	0.001365  
2121.000000	0.001641  
2120.000000	0.002054  
2119.000000	0.002323  
2118.000000	0.002332  
2117.000000	0.002228  
2116.000000	0.002248  
2115.000000	0.002465  
2114.000000	0.002706  
2113.000000	0.002711  
2112.000000	0.002393  
2111.000000	0.001950  
2110.000000	0.001702  
2109.000000	0.001761  
2108.000000	0.001921  
2107.000000	0.001904  
2106.000000	0.001664  
2105.000000	0.001372  
2104.000000	0.001168  
2103.000000	0.001052  
2102.000000	0.000995  
2101.000000	0.001017  
2100.000000	0.001088  
2099.000000	0.001084  
2098.000000	0.000937  
2097.000000	0.000751  
2096.000000	0.000689  
2095.000000	0.000769  
2094.000000	0.000874  
2093.000000	0.000941  
2092.000000	0.001010  
2091.000000	0.001105  
2090.000000	0.001156  
2089.000000	0.001120  
2088.000000	0.001104  
2087.000000	0.001282  
2086.000000	0.001664  
2085.000000	0.002007  
2084.000000	0.002024  
2083.000000	0.001666  
2082.000000	0.001196  
2081.000000	0.000977  
2080.000000	0.001174  
2079.000000	0.001648  
2078.000000	0.002079  
2077.000000	0.002214  
2076.000000	0.002051  
2075.000000	0.001834  
2074.000000	0.001828  
2073.000000	0.002053  
2072.000000	0.002266  
2071.000000	0.002243  
2070.000000	0.002027  
2069.000000	0.001830  
2068.000000	0.001737  
2067.000000	0.001643  
2066.000000	0.001485  
2065.000000	0.001393  
2064.000000	0.001525  
2063.000000	0.001834  
2062.000000	0.002115  
2061.000000	0.002208  
2060.000000	0.002094  
2059.000000	0.001848  
2058.000000	0.001594  
2057.000000	0.001462  
2056.000000	0.001457  
2055.000000	0.001420  
2054.000000	0.001196  
2053.000000	0.000847  
2052.000000	0.000573  
2051.000000	0.000474  
2050.000000	0.000522  
2049.000000	0.000766  
2048.000000	0.001339  
2047.000000	0.002139  
2046.000000	0.002691  
2045.000000	0.002560  
2044.000000	0.001840  
2043.000000	0.001054  
2042.000000	0.000609  
2041.000000	0.000546  
2040.000000	0.000758  
2039.000000	0.001181  
2038.000000	0.001653  
2037.000000	0.001838  
2036.000000	0.001557  
2035.000000	0.001112  
2034.000000	0.001030  
2033.000000	0.001464  
2032.000000	0.002022  
2031.000000	0.002215  
2030.000000	0.001909  
2029.000000	0.001305  
2028.000000	0.000671  
2027.000000	0.000186  
2026.000000	-0.000075 
2025.000000	-0.000136 
2024.000000	-0.000059 
2023.000000	0.000192  
2022.000000	0.000749  
2021.000000	0.001572  
2020.000000	0.002305  
2019.000000	0.002536  
2018.000000	0.002197  
2017.000000	0.001588  
2016.000000	0.001013  
2015.000000	0.000561  
2014.000000	0.000302  
2013.000000	0.000406  
2012.000000	0.000852  
2011.000000	0.001184  
2010.000000	0.000856  
2009.000000	-0.000134 
2008.000000	-0.001153 
2007.000000	-0.001581 
2006.000000	-0.001365 
2005.000000	-0.000853 
2004.000000	-0.000294 
2003.000000	0.000321  
2002.000000	0.001035  
2001.000000	0.001737  
2000.000000	0.002213  
1999.000000	0.002269  
1998.000000	0.001837  
1997.000000	0.001079  
1996.000000	0.000372  
1995.000000	0.000067  
1994.000000	0.000232  
1993.000000	0.000639  
1992.000000	0.000979  
1991.000000	0.001086  
1990.000000	0.000968  
1989.000000	0.000772  
1988.000000	0.000752  
1987.000000	0.001112  
1986.000000	0.001786  
1985.000000	0.002450  
1984.000000	0.002836  
1983.000000	0.002915  
1982.000000	0.002742  
1981.000000	0.002320  
1980.000000	0.001741  
1979.000000	0.001313  
1978.000000	0.001255  
1977.000000	0.001341  
1976.000000	0.001143  
1975.000000	0.000636  
1974.000000	0.000205  
1973.000000	0.000094  
1972.000000	0.000145  
1971.000000	0.000151  
1970.000000	0.000157  
1969.000000	0.000269  
1968.000000	0.000415  
1967.000000	0.000493  
1966.000000	0.000586  
1965.000000	0.000813  
1964.000000	0.001084  
1963.000000	0.001217  
1962.000000	0.001203  
1961.000000	0.001182  
1960.000000	0.001220  
1959.000000	0.001285  
1958.000000	0.001370  
1957.000000	0.001481  
1956.000000	0.001505  
1955.000000	0.001300  
1954.000000	0.000919  
1953.000000	0.000639  
1952.000000	0.000701  
1951.000000	0.001096  
1950.000000	0.001612  
1949.000000	0.002001  
1948.000000	0.002114  
1947.000000	0.001979  
1946.000000	0.001778  
1945.000000	0.001686  
1944.000000	0.001701  
1943.000000	0.001679  
1942.000000	0.001554  
1941.000000	0.001413  
1940.000000	0.001328  
1939.000000	0.001283  
1938.000000	0.001302  
1937.000000	0.001488  
1936.000000	0.001859  
1935.000000	0.002236  
1934.000000	0.002407  
1933.000000	0.002361  
1932.000000	0.002288  
1931.000000	0.002332  
1930.000000	0.002444  
1929.000000	0.002468  
1928.000000	0.002321  
1927.000000	0.002043  
1926.000000	0.001751  
1925.000000	0.001555  
1924.000000	0.001508  
1923.000000	0.001593  
1922.000000	0.001763  
1921.000000	0.001984  
1920.000000	0.002210  
1919.000000	0.002342  
1918.000000	0.002305  
1917.000000	0.002177  
1916.000000	0.002113  
1915.000000	0.002118  
1914.000000	0.002040  
1913.000000	0.001781  
1912.000000	0.001450  
1911.000000	0.001249  
1910.000000	0.001259  
1909.000000	0.001401  
1908.000000	0.001570  
1907.000000	0.001719  
1906.000000	0.001812  
1905.000000	0.001806  
1904.000000	0.001713  
1903.000000	0.001624  
1902.000000	0.001632  
1901.000000	0.001736  
1900.000000	0.001847  
1899.000000	0.001872  
1898.000000	0.001802  
1897.000000	0.001721  
1896.000000	0.001739  
1895.000000	0.001878  
1894.000000	0.002050  
1893.000000	0.002165  
1892.000000	0.002218  
1891.000000	0.002256  
1890.000000	0.002284  
1889.000000	0.002264  
1888.000000	0.002194  
1887.000000	0.002108  
1886.000000	0.002019  
1885.000000	0.001935  
1884.000000	0.001868  
1883.000000	0.001821  
1882.000000	0.001773  
1881.000000	0.001720  
1880.000000	0.001697  
1879.000000	0.001720  
1878.000000	0.001741  
1877.000000	0.001723  
1876.000000	0.001731  
1875.000000	0.001862  
1874.000000	0.002079  
1873.000000	0.002224  
1872.000000	0.002198  
1871.000000	0.002065  
1870.000000	0.001935  
1869.000000	0.001831  
1868.000000	0.001746  
1867.000000	0.001735  
1866.000000	0.001818  
1865.000000	0.001917  
1864.000000	0.001949  
1863.000000	0.001924  
1862.000000	0.001899  
1861.000000	0.001883  
1860.000000	0.001842  
1859.000000	0.001802  
1858.000000	0.001832  
1857.000000	0.001940  
1856.000000	0.002020  
1855.000000	0.001951  
1854.000000	0.001724  
1853.000000	0.001479  
1852.000000	0.001395  
1851.000000	0.001536  
1850.000000	0.001775  
1849.000000	0.001896  
1848.000000	0.001809  
1847.000000	0.001655  
1846.000000	0.001659  
1845.000000	0.001889  
1844.000000	0.002157  
1843.000000	0.002245  
1842.000000	0.002138  
1841.000000	0.001931  
1840.000000	0.001709  
1839.000000	0.001559  
1838.000000	0.001551  
1837.000000	0.001669  
1836.000000	0.001800  
1835.000000	0.001852  
1834.000000	0.001826  
1833.000000	0.001745  
1832.000000	0.001618  
1831.000000	0.001485  
1830.000000	0.001448  
1829.000000	0.001559  
1828.000000	0.001737  
1827.000000	0.001879  
1826.000000	0.001954  
1825.000000	0.001979  
1824.000000	0.001987  
1823.000000	0.002028  
1822.000000	0.002114  
1821.000000	0.002152  
1820.000000	0.002015  
1819.000000	0.001718  
1818.000000	0.001474  
1817.000000	0.001476  
1816.000000	0.001675  
1815.000000	0.001859  
1814.000000	0.001896  
1813.000000	0.001815  
1812.000000	0.001718  
1811.000000	0.001694  
1810.000000	0.001778  
1809.000000	0.001936  
1808.000000	0.002098  
1807.000000	0.002199  
1806.000000	0.002216  
1805.000000	0.002170  
1804.000000	0.002110  
1803.000000	0.002097  
1802.000000	0.002167  
1801.000000	0.002290  
1800.000000	0.002401  
1799.000000	0.002469  
1798.000000	0.002508  
1797.000000	0.002536  
1796.000000	0.002555  
1795.000000	0.002539  
1794.000000	0.002469  
1793.000000	0.002352  
1792.000000	0.002216  
1791.000000	0.002119  
1790.000000	0.002109  
1789.000000	0.002173  
1788.000000	0.002253  
1787.000000	0.002297  
1786.000000	0.002293  
1785.000000	0.002263  
1784.000000	0.002218  
1783.000000	0.002155  
1782.000000	0.002114  
1781.000000	0.002184  
1780.000000	0.002407  
1779.000000	0.002691  
1778.000000	0.002893  
1777.000000	0.002950  
1776.000000	0.002899  
1775.000000	0.002803  
1774.000000	0.002713  
1773.000000	0.002656  
1772.000000	0.002616  
1771.000000	0.002571  
1770.000000	0.002557  
1769.000000	0.002615  
1768.000000	0.002720  
1767.000000	0.002813  
1766.000000	0.002891  
1765.000000	0.003012  
1764.000000	0.003222  
1763.000000	0.003498  
1762.000000	0.003772  
1761.000000	0.004005  
1760.000000	0.004209  
1759.000000	0.004398  
1758.000000	0.004612  
1757.000000	0.004924  
1756.000000	0.005356  
1755.000000	0.005847  
1754.000000	0.006398  
1753.000000	0.007159  
1752.000000	0.008329  
1751.000000	0.009953  
1750.000000	0.011970  
1749.000000	0.014407  
1748.000000	0.017263  
1747.000000	0.020372  
1746.000000	0.023587  
1745.000000	0.026827  
1744.000000	0.029799  
1743.000000	0.031977  
1742.000000	0.032982  
1741.000000	0.032703  
1740.000000	0.031151  
1739.000000	0.028705  
1738.000000	0.026075  
1737.000000	0.023581  
1736.000000	0.020957  
1735.000000	0.017810  
1734.000000	0.014522  
1733.000000	0.012028  
1732.000000	0.010439  
1731.000000	0.009277  
1730.000000	0.008312  
1729.000000	0.007551  
1728.000000	0.007002  
1727.000000	0.006599  
1726.000000	0.006260  
1725.000000	0.005934  
1724.000000	0.005597  
1723.000000	0.005272  
1722.000000	0.005000  
1721.000000	0.004784  
1720.000000	0.004589  
1719.000000	0.004413  
1718.000000	0.004275  
1717.000000	0.004107  
1716.000000	0.003896  
1715.000000	0.003748  
1714.000000	0.003703  
1713.000000	0.003704  
1712.000000	0.003670  
1711.000000	0.003572  
1710.000000	0.003453  
1709.000000	0.003360  
1708.000000	0.003315  
1707.000000	0.003331  
1706.000000	0.003405  
1705.000000	0.003486  
1704.000000	0.003572  
1703.000000	0.003705  
1702.000000	0.003879  
1701.000000	0.003956  
1700.000000	0.003833  
1699.000000	0.003682  
1698.000000	0.003656  
1697.000000	0.003642  
1696.000000	0.003520  
1695.000000	0.003382  
1694.000000	0.003322  
1693.000000	0.003287  
1692.000000	0.003211  
1691.000000	0.003112  
1690.000000	0.003064  
1689.000000	0.003099  
1688.000000	0.003172  
1687.000000	0.003223  
1686.000000	0.003238  
1685.000000	0.003248  
1684.000000	0.003242  
1683.000000	0.003222  
1682.000000	0.003241  
1681.000000	0.003285  
1680.000000	0.003285  
1679.000000	0.003229  
1678.000000	0.003110  
1677.000000	0.002940  
1676.000000	0.002766  
1675.000000	0.002706  
1674.000000	0.002813  
1673.000000	0.003004  
1672.000000	0.003165  
1671.000000	0.003248  
1670.000000	0.003264  
1669.000000	0.003259  
1668.000000	0.003261  
1667.000000	0.003270  
1666.000000	0.003297  
1665.000000	0.003360  
1664.000000	0.003457  
1663.000000	0.003564  
1662.000000	0.003650  
1661.000000	0.003725  
1660.000000	0.003800  
1659.000000	0.003859  
1658.000000	0.003861  
1657.000000	0.003826  
1656.000000	0.003779  
1655.000000	0.003767  
1654.000000	0.003812  
1653.000000	0.003865  
1652.000000	0.003908  
1651.000000	0.003930  
1650.000000	0.003966  
1649.000000	0.004051  
1648.000000	0.004182  
1647.000000	0.004203  
1646.000000	0.004041  
1645.000000	0.003811  
1644.000000	0.003619  
1643.000000	0.003499  
1642.000000	0.003487  
1641.000000	0.003544  
1640.000000	0.003586  
1639.000000	0.003570  
1638.000000	0.003535  
1637.000000	0.003550  
1636.000000	0.003593  
1635.000000	0.003570  
1634.000000	0.003505  
1633.000000	0.003465  
1632.000000	0.003448  
1631.000000	0.003436  
1630.000000	0.003426  
1629.000000	0.003442  
1628.000000	0.003489  
1627.000000	0.003549  
1626.000000	0.003617  
1625.000000	0.003690  
1624.000000	0.003730  
1623.000000	0.003687  
1622.000000	0.003599  
1621.000000	0.003573  
1620.000000	0.003645  
1619.000000	0.003771  
1618.000000	0.003892  
1617.000000	0.003978  
1616.000000	0.004030  
1615.000000	0.004057  
1614.000000	0.004084  
1613.000000	0.004136  
1612.000000	0.004222  
1611.000000	0.004332  
1610.000000	0.004456  
1609.000000	0.004573  
1608.000000	0.004644  
1607.000000	0.004633  
1606.000000	0.004565  
1605.000000	0.004503  
1604.000000	0.004467  
1603.000000	0.004419  
1602.000000	0.004328  
1601.000000	0.004207  
1600.000000	0.004065  
1599.000000	0.003888  
1598.000000	0.003700  
1597.000000	0.003571  
1596.000000	0.003553  
1595.000000	0.003619  
1594.000000	0.003700  
1593.000000	0.003761  
1592.000000	0.003812  
1591.000000	0.003868  
1590.000000	0.003932  
1589.000000	0.003986  
1588.000000	0.004004  
1587.000000	0.003969  
1586.000000	0.003903  
1585.000000	0.003854  
1584.000000	0.003839  
1583.000000	0.003838  
1582.000000	0.003836  
1581.000000	0.003855  
1580.000000	0.003925  
1579.000000	0.004041  
1578.000000	0.004144  
1577.000000	0.004136  
1576.000000	0.003980  
1575.000000	0.003808  
1574.000000	0.003793  
1573.000000	0.003949  
1572.000000	0.004155  
1571.000000	0.004257  
1570.000000	0.004189  
1569.000000	0.004071  
1568.000000	0.004034  
1567.000000	0.004040  
1566.000000	0.003985  
1565.000000	0.003850  
1564.000000	0.003665  
1563.000000	0.003483  
1562.000000	0.003324  
1561.000000	0.003219  
1560.000000	0.003314  
1559.000000	0.003488  
1558.000000	0.003500  
1557.000000	0.003608  
1556.000000	0.003867  
1555.000000	0.004062  
1554.000000	0.004171  
1553.000000	0.004133  
1552.000000	0.003983  
1551.000000	0.003749  
1550.000000	0.003553  
1549.000000	0.003489  
1548.000000	0.003538  
1547.000000	0.003612  
1546.000000	0.003685  
1545.000000	0.003754  
1544.000000	0.003772  
1543.000000	0.003735  
1542.000000	0.003756  
1541.000000	0.003892  
1540.000000	0.003983  
1539.000000	0.003964  
1538.000000	0.003974  
1537.000000	0.004042  
1536.000000	0.004079  
1535.000000	0.004034  
1534.000000	0.003906  
1533.000000	0.003785  
1532.000000	0.003753  
1531.000000	0.003806  
1530.000000	0.003871  
1529.000000	0.003913  
1528.000000	0.003952  
1527.000000	0.004040  
1526.000000	0.004218  
1525.000000	0.004430  
1524.000000	0.004569  
1523.000000	0.004594  
1522.000000	0.004577  
1521.000000	0.004594  
1520.000000	0.004636  
1519.000000	0.004669  
1518.000000	0.004709  
1517.000000	0.004783  
1516.000000	0.004877  
1515.000000	0.005002  
1514.000000	0.005206  
1513.000000	0.005475  
1512.000000	0.005701  
1511.000000	0.005791  
1510.000000	0.005819  
1509.000000	0.005979  
1508.000000	0.006401  
1507.000000	0.006899  
1506.000000	0.007239  
1505.000000	0.007454  
1504.000000	0.007549  
1503.000000	0.007542  
1502.000000	0.007543  
1501.000000	0.007571  
1500.000000	0.007598  
1499.000000	0.007642  
1498.000000	0.007895  
1497.000000	0.008414  
1496.000000	0.008890  
1495.000000	0.009114  
1494.000000	0.009241  
1493.000000	0.009410  
1492.000000	0.009543  
1491.000000	0.009564  
1490.000000	0.009640  
1489.000000	0.009944  
1488.000000	0.010364  
1487.000000	0.010740  
1486.000000	0.011099  
1485.000000	0.011541  
1484.000000	0.012080  
1483.000000	0.012730  
1482.000000	0.013580  
1481.000000	0.014624  
1480.000000	0.015700  
1479.000000	0.016766  
1478.000000	0.018063  
1477.000000	0.019804  
1476.000000	0.021901  
1475.000000	0.024367  
1474.000000	0.027915  
1473.000000	0.033396  
1472.000000	0.040295  
1471.000000	0.047231  
1470.000000	0.053678  
1469.000000	0.059648  
1468.000000	0.064935  
1467.000000	0.069363  
1466.000000	0.073072  
1465.000000	0.076175  
1464.000000	0.078468  
1463.000000	0.079955  
1462.000000	0.081008  
1461.000000	0.081913  
1460.000000	0.082743  
1459.000000	0.083565  
1458.000000	0.084376  
1457.000000	0.084463  
1456.000000	0.083156  
1455.000000	0.080979  
1454.000000	0.078537  
1453.000000	0.075854  
1452.000000	0.072966  
1451.000000	0.070145  
1450.000000	0.067580  
1449.000000	0.065050  
1448.000000	0.062293  
1447.000000	0.059419  
1446.000000	0.056607  
1445.000000	0.053727  
1444.000000	0.050591  
1443.000000	0.047258  
1442.000000	0.043970  
1441.000000	0.040942  
1440.000000	0.038228  
1439.000000	0.035685  
1438.000000	0.033040  
1437.000000	0.030212  
1436.000000	0.027649  
1435.000000	0.025748  
1434.000000	0.024248  
1433.000000	0.022702  
1432.000000	0.020981  
1431.000000	0.019235  
1430.000000	0.017651  
1429.000000	0.016334  
1428.000000	0.015346  
1427.000000	0.014656  
1426.000000	0.014102  
1425.000000	0.013564  
1424.000000	0.013087  
1423.000000	0.012749  
1422.000000	0.012475  
1421.000000	0.012114  
1420.000000	0.011635  
1419.000000	0.011166  
1418.000000	0.010809  
1417.000000	0.010552  
1416.000000	0.010365  
1415.000000	0.010232  
1414.000000	0.010103  
1413.000000	0.009930  
1412.000000	0.009720  
1411.000000	0.009515  
1410.000000	0.009333  
1409.000000	0.009188  
1408.000000	0.009113  
1407.000000	0.009126  
1406.000000	0.009184  
1405.000000	0.009245  
1404.000000	0.009345  
1403.000000	0.009511  
1402.000000	0.009676  
1401.000000	0.009770  
1400.000000	0.009840  
1399.000000	0.009977  
1398.000000	0.010183  
1397.000000	0.010420  
1396.000000	0.010713  
1395.000000	0.011095  
1394.000000	0.011537  
1393.000000	0.012009  
1392.000000	0.012535  
1391.000000	0.013162  
1390.000000	0.013959  
1389.000000	0.015096  
1388.000000	0.016833  
1387.000000	0.019213  
1386.000000	0.021912  
1385.000000	0.024640  
1384.000000	0.027445  
1383.000000	0.030553  
1382.000000	0.034116  
1381.000000	0.038087  
1380.000000	0.042112  
1379.000000	0.045464  
1378.000000	0.047339  
1377.000000	0.047361  
1376.000000	0.045640  
1375.000000	0.042545  
1374.000000	0.038721  
1373.000000	0.035005  
1372.000000	0.031950  
1371.000000	0.029660  
1370.000000	0.028093  
1369.000000	0.027224  
1368.000000	0.026876  
1367.000000	0.026648  
1366.000000	0.026110  
1365.000000	0.025022  
1364.000000	0.023398  
1363.000000	0.021510  
1362.000000	0.019778  
1361.000000	0.018498  
1360.000000	0.017676  
1359.000000	0.017141  
1358.000000	0.016740  
1357.000000	0.016415  
1356.000000	0.016194  
1355.000000	0.016104  
1354.000000	0.016110  
1353.000000	0.016118  
1352.000000	0.016071  
1351.000000	0.015975  
1350.000000	0.015860  
1349.000000	0.015734  
1348.000000	0.015576  
1347.000000	0.015356  
1346.000000	0.015083  
1345.000000	0.014826  
1344.000000	0.014660  
1343.000000	0.014577  
1342.000000	0.014492  
1341.000000	0.014333  
1340.000000	0.014099  
1339.000000	0.013826  
1338.000000	0.013544  
1337.000000	0.013263  
1336.000000	0.012986  
1335.000000	0.012717  
1334.000000	0.012448  
1333.000000	0.012182  
1332.000000	0.011946  
1331.000000	0.011762  
1330.000000	0.011613  
1329.000000	0.011479  
1328.000000	0.011377  
1327.000000	0.011326  
1326.000000	0.011309  
1325.000000	0.011299  
1324.000000	0.011304  
1323.000000	0.011345  
1322.000000	0.011419  
1321.000000	0.011495  
1320.000000	0.011557  
1319.000000	0.011616  
1318.000000	0.011686  
1317.000000	0.011762  
1316.000000	0.011836  
1315.000000	0.011909  
1314.000000	0.011996  
1313.000000	0.012112  
1312.000000	0.012261  
1311.000000	0.012427  
1310.000000	0.012593  
1309.000000	0.012755  
1308.000000	0.012914  
1307.000000	0.013056  
1306.000000	0.013153  
1305.000000	0.013192  
1304.000000	0.013182  
1303.000000	0.013132  
1302.000000	0.013045  
1301.000000	0.012941  
1300.000000	0.012853  
1299.000000	0.012793  
1298.000000	0.012739  
1297.000000	0.012662  
1296.000000	0.012549  
1295.000000	0.012389  
1294.000000	0.012166  
1293.000000	0.011885  
1292.000000	0.011606  
1291.000000	0.011409  
1290.000000	0.011331  
1289.000000	0.011344  
1288.000000	0.011397  
1287.000000	0.011462  
1286.000000	0.011538  
1285.000000	0.011621  
1284.000000	0.011698  
1283.000000	0.011757  
1282.000000	0.011810  
1281.000000	0.011885  
1280.000000	0.011988  
1279.000000	0.012091  
1278.000000	0.012168  
1277.000000	0.012238  
1276.000000	0.012338  
1275.000000	0.012468  
1274.000000	0.012590  
1273.000000	0.012679  
1272.000000	0.012748  
1271.000000	0.012807  
1270.000000	0.012847  
1269.000000	0.012868  
1268.000000	0.012888  
1267.000000	0.012901  
1266.000000	0.012869  
1265.000000	0.012774  
1264.000000	0.012662  
1263.000000	0.012609  
1262.000000	0.012646  
1261.000000	0.012739  
1260.000000	0.012827  
1259.000000	0.012873  
1258.000000	0.012879  
1257.000000	0.012875  
1256.000000	0.012883  
1255.000000	0.012903  
1254.000000	0.012939  
1253.000000	0.013025  
1252.000000	0.013185  
1251.000000	0.013377  
1250.000000	0.013527  
1249.000000	0.013626  
1248.000000	0.013752  
1247.000000	0.013960  
1246.000000	0.014206  
1245.000000	0.014394  
1244.000000	0.014477  
1243.000000	0.014462  
1242.000000	0.014370  
1241.000000	0.014226  
1240.000000	0.014075  
1239.000000	0.013957  
1238.000000	0.013865  
1237.000000	0.013760  
1236.000000	0.013620  
1235.000000	0.013448  
1234.000000	0.013242  
1233.000000	0.013002  
1232.000000	0.012751  
1231.000000	0.012520  
1230.000000	0.012305  
1229.000000	0.012086  
1228.000000	0.011887  
1227.000000	0.011761  
1226.000000	0.011721  
1225.000000	0.011709  
1224.000000	0.011667  
1223.000000	0.011607  
1222.000000	0.011561  
1221.000000	0.011523  
1220.000000	0.011456  
1219.000000	0.011364  
1218.000000	0.011301  
1217.000000	0.011317  
1216.000000	0.011405  
1215.000000	0.011513  
1214.000000	0.011582  
1213.000000	0.011588  
1212.000000	0.011560  
1211.000000	0.011568  
1210.000000	0.011661  
1209.000000	0.011815  
1208.000000	0.011957  
1207.000000	0.012050  
1206.000000	0.012134  
1205.000000	0.012264  
1204.000000	0.012436  
1203.000000	0.012592  
1202.000000	0.012699  
1201.000000	0.012787  
1200.000000	0.012912  
1199.000000	0.013105  
1198.000000	0.013370  
1197.000000	0.013693  
1196.000000	0.014047  
1195.000000	0.014415  
1194.000000	0.014809  
1193.000000	0.015250  
1192.000000	0.015703  
1191.000000	0.016075  
1190.000000	0.016316  
1189.000000	0.016496  
1188.000000	0.016744  
1187.000000	0.017117  
1186.000000	0.017560  
1185.000000	0.018000  
1184.000000	0.018420  
1183.000000	0.018852  
1182.000000	0.019321  
1181.000000	0.019806  
1180.000000	0.020246  
1179.000000	0.020591  
1178.000000	0.020857  
1177.000000	0.021111  
1176.000000	0.021388  
1175.000000	0.021647  
1174.000000	0.021827  
1173.000000	0.021926  
1172.000000	0.021989  
1171.000000	0.022025  
1170.000000	0.021987  
1169.000000	0.021840  
1168.000000	0.021600  
1167.000000	0.021298  
1166.000000	0.020953  
1165.000000	0.020563  
1164.000000	0.020117  
1163.000000	0.019611  
1162.000000	0.019069  
1161.000000	0.018565  
1160.000000	0.018165  
1159.000000	0.017852  
1158.000000	0.017543  
1157.000000	0.017182  
1156.000000	0.016785  
1155.000000	0.016386  
1154.000000	0.015993  
1153.000000	0.015607  
1152.000000	0.015254  
1151.000000	0.014961  
1150.000000	0.014723  
1149.000000	0.014518  
1148.000000	0.014328  
1147.000000	0.014132  
1146.000000	0.013902  
1145.000000	0.013629  
1144.000000	0.013327  
1143.000000	0.013005  
1142.000000	0.012661  
1141.000000	0.012311  
1140.000000	0.011990  
1139.000000	0.011718  
1138.000000	0.011492  
1137.000000	0.011318  
1136.000000	0.011198  
1135.000000	0.011079  
1134.000000	0.010874  
1133.000000	0.010579  
1132.000000	0.010311  
1131.000000	0.010189  
1130.000000	0.010214  
1129.000000	0.010307  
1128.000000	0.010411  
1127.000000	0.010511  
1126.000000	0.010589  
1125.000000	0.010642  
1124.000000	0.010715  
1123.000000	0.010853  
1122.000000	0.011016  
1121.000000	0.011114  
1120.000000	0.011109  
1119.000000	0.011045  
1118.000000	0.010979  
1117.000000	0.010926  
1116.000000	0.010882  
1115.000000	0.010837  
1114.000000	0.010762  
1113.000000	0.010629  
1112.000000	0.010444  
1111.000000	0.010230  
1110.000000	0.009992  
1109.000000	0.009741  
1108.000000	0.009547  
1107.000000	0.009511  
1106.000000	0.009655  
1105.000000	0.009876  
1104.000000	0.010029  
1103.000000	0.010051  
1102.000000	0.009994  
1101.000000	0.009963  
1100.000000	0.010031  
1099.000000	0.010182  
1098.000000	0.010337  
1097.000000	0.010445  
1096.000000	0.010527  
1095.000000	0.010622  
1094.000000	0.010704  
1093.000000	0.010720  
1092.000000	0.010667  
1091.000000	0.010594  
1090.000000	0.010513  
1089.000000	0.010384  
1088.000000	0.010185  
1087.000000	0.009968  
1086.000000	0.009811  
1085.000000	0.009735  
1084.000000	0.009707  
1083.000000	0.009674  
1082.000000	0.009602  
1081.000000	0.009501  
1080.000000	0.009442  
1079.000000	0.009512  
1078.000000	0.009724  
1077.000000	0.010006  
1076.000000	0.010278  
1075.000000	0.010521  
1074.000000	0.010753  
1073.000000	0.010964  
1072.000000	0.011113  
1071.000000	0.011178  
1070.000000	0.011188  
1069.000000	0.011187  
1068.000000	0.011190  
1067.000000	0.011182  
1066.000000	0.011138  
1065.000000	0.011072  
1064.000000	0.011023  
1063.000000	0.011013  
1062.000000	0.011001  
1061.000000	0.010917  
1060.000000	0.010743  
1059.000000	0.010527  
1058.000000	0.010323  
1057.000000	0.010160  
1056.000000	0.010058  
1055.000000	0.010037  
1054.000000	0.010049  
1053.000000	0.009954  
1052.000000	0.009641  
1051.000000	0.009204  
1050.000000	0.008909  
1049.000000	0.008930  
1048.000000	0.009174  
1047.000000	0.009399  
1046.000000	0.009454  
1045.000000	0.009373  
1044.000000	0.009283  
1043.000000	0.009303  
1042.000000	0.009478  
1041.000000	0.009767  
1040.000000	0.010052  
1039.000000	0.010209  
1038.000000	0.010201  
1037.000000	0.010094  
1036.000000	0.009997  
1035.000000	0.009992  
1034.000000	0.010101  
1033.000000	0.010294  
1032.000000	0.010493  
1031.000000	0.010615  
1030.000000	0.010635  
1029.000000	0.010612  
1028.000000	0.010613  
1027.000000	0.010648  
1026.000000	0.010685  
1025.000000	0.010699  
1024.000000	0.010684  
1023.000000	0.010633  
1022.000000	0.010547  
1021.000000	0.010442  
1020.000000	0.010335  
1019.000000	0.010208  
1018.000000	0.010060  
1017.000000	0.009947  
1016.000000	0.009938  
1015.000000	0.010016  
1014.000000	0.010081  
1013.000000	0.010054  
1012.000000	0.009939  
1011.000000	0.009795  
1010.000000	0.009677  
1009.000000	0.009625  
1008.000000	0.009652  
1007.000000	0.009715  
1006.000000	0.009746  
1005.000000	0.009721  
1004.000000	0.009678  
1003.000000	0.009659  
1002.000000	0.009661  
1001.000000	0.009649  
1000.000000	0.009577  
999.000000	 0.009407  
998.000000	 0.009146  
997.000000	 0.008900  
996.000000	 0.008810  
995.000000	 0.008915  
994.000000	 0.009103  
993.000000	 0.009226  
992.000000	 0.009233  
991.000000	 0.009173  
990.000000	 0.009126  
989.000000	 0.009153  
988.000000	 0.009264  
987.000000	 0.009396  
986.000000	 0.009448  
985.000000	 0.009409  
984.000000	 0.009388  
983.000000	 0.009484  
982.000000	 0.009660  
981.000000	 0.009807  
980.000000	 0.009896  
979.000000	 0.009990  
978.000000	 0.010131  
977.000000	 0.010291  
976.000000	 0.010435  
975.000000	 0.010566  
974.000000	 0.010685  
973.000000	 0.010775  
972.000000	 0.010845  
971.000000	 0.010941  
970.000000	 0.011092  
969.000000	 0.011264  
968.000000	 0.011399  
967.000000	 0.011467  
966.000000	 0.011470  
965.000000	 0.011408  
964.000000	 0.011278  
963.000000	 0.011099  
962.000000	 0.010922  
961.000000	 0.010802  
960.000000	 0.010755  
959.000000	 0.010736  
958.000000	 0.010687  
957.000000	 0.010610  
956.000000	 0.010566  
955.000000	 0.010588  
954.000000	 0.010628  
953.000000	 0.010619  
952.000000	 0.010566  
951.000000	 0.010524  
950.000000	 0.010511  
949.000000	 0.010495  
948.000000	 0.010452  
947.000000	 0.010416  
946.000000	 0.010429  
945.000000	 0.010493  
944.000000	 0.010569  
943.000000	 0.010614  
942.000000	 0.010602  
941.000000	 0.010535  
940.000000	 0.010418  
939.000000	 0.010250  
938.000000	 0.010032  
937.000000	 0.009794  
936.000000	 0.009588  
935.000000	 0.009431  
934.000000	 0.009304  
933.000000	 0.009215  
932.000000	 0.009216  
931.000000	 0.009312  
930.000000	 0.009396  
929.000000	 0.009358  
928.000000	 0.009231  
927.000000	 0.009164  
926.000000	 0.009243  
925.000000	 0.009402  
924.000000	 0.009540  
923.000000	 0.009649  
922.000000	 0.009767  
921.000000	 0.009870  
920.000000	 0.009865  
919.000000	 0.009712  
918.000000	 0.009486  
917.000000	 0.009327  
916.000000	 0.009316  
915.000000	 0.009417  
914.000000	 0.009518  
913.000000	 0.009526  
912.000000	 0.009423  
911.000000	 0.009271  
910.000000	 0.009168  
909.000000	 0.009197  
908.000000	 0.009361  
907.000000	 0.009543  
906.000000	 0.009579  
905.000000	 0.009419  
904.000000	 0.009197  
903.000000	 0.009108  
902.000000	 0.009207  
901.000000	 0.009383  
900.000000	 0.009507  
899.000000	 0.009560  
898.000000	 0.009600  
897.000000	 0.009660  
896.000000	 0.009714  
895.000000	 0.009724  
894.000000	 0.009690  
893.000000	 0.009651  
892.000000	 0.009667  
891.000000	 0.009760  
890.000000	 0.009890  
889.000000	 0.009985  
888.000000	 0.010002  
887.000000	 0.009956  
886.000000	 0.009886  
885.000000	 0.009816  
884.000000	 0.009733  
883.000000	 0.009615  
882.000000	 0.009481  
881.000000	 0.009410  
880.000000	 0.009482  
879.000000	 0.009672  
878.000000	 0.009838  
877.000000	 0.009861  
876.000000	 0.009760  
875.000000	 0.009634  
874.000000	 0.009521  
873.000000	 0.009366  
872.000000	 0.009127  
871.000000	 0.008872  
870.000000	 0.008741  
869.000000	 0.008838  
868.000000	 0.009130  
867.000000	 0.009428  
866.000000	 0.009512  
865.000000	 0.009322  
864.000000	 0.009005  
863.000000	 0.008771  
862.000000	 0.008698  
861.000000	 0.008745  
860.000000	 0.008865  
859.000000	 0.009039  
858.000000	 0.009202  
857.000000	 0.009272  
856.000000	 0.009267  
855.000000	 0.009324  
854.000000	 0.009540  
853.000000	 0.009857  
852.000000	 0.010151  
851.000000	 0.010374  
850.000000	 0.010551  
849.000000	 0.010688  
848.000000	 0.010743  
847.000000	 0.010707  
846.000000	 0.010634  
845.000000	 0.010583  
844.000000	 0.010561  
843.000000	 0.010525  
842.000000	 0.010439  
841.000000	 0.010312  
840.000000	 0.010182  
839.000000	 0.010083  
838.000000	 0.010030  
837.000000	 0.010004  
836.000000	 0.009949  
835.000000	 0.009785  
834.000000	 0.009479  
833.000000	 0.009118  
832.000000	 0.008867  
831.000000	 0.008814  
830.000000	 0.008870  
829.000000	 0.008889  
828.000000	 0.008872  
827.000000	 0.008975  
826.000000	 0.009293  
825.000000	 0.009701  
824.000000	 0.009975  
823.000000	 0.010011  
822.000000	 0.009892  
821.000000	 0.009787  
820.000000	 0.009834  
819.000000	 0.010066  
818.000000	 0.010401  
817.000000	 0.010714  
816.000000	 0.010935  
815.000000	 0.011068  
814.000000	 0.011120  
813.000000	 0.011070  
812.000000	 0.010931  
811.000000	 0.010810  
810.000000	 0.010849  
809.000000	 0.011122  
808.000000	 0.011573  
807.000000	 0.012046  
806.000000	 0.012348  
805.000000	 0.012340  
804.000000	 0.012017  
803.000000	 0.011514  
802.000000	 0.011018  
801.000000	 0.010642  
800.000000	 0.010379  
799.000000	 0.010150  
798.000000	 0.009899  
797.000000	 0.009636  
796.000000	 0.009398  
795.000000	 0.009186  
794.000000	 0.008981  
793.000000	 0.008824  
792.000000	 0.008835  
791.000000	 0.009075  
790.000000	 0.009422  
789.000000	 0.009645  
788.000000	 0.009633  
787.000000	 0.009509  
786.000000	 0.009493  
785.000000	 0.009682  
784.000000	 0.010003  
783.000000	 0.010342  
782.000000	 0.010668  
781.000000	 0.011029  
780.000000	 0.011447  
779.000000	 0.011860  
778.000000	 0.012185  
777.000000	 0.012423  
776.000000	 0.012659  
775.000000	 0.012966  
774.000000	 0.013329  
773.000000	 0.013694  
772.000000	 0.014048  
771.000000	 0.014408  
770.000000	 0.014747  
769.000000	 0.015000  
768.000000	 0.015124  
767.000000	 0.015124  
766.000000	 0.014996  
765.000000	 0.014715  
764.000000	 0.014312  
763.000000	 0.013927  
762.000000	 0.013722  
761.000000	 0.013751  
760.000000	 0.013920  
759.000000	 0.014077  
758.000000	 0.014151  
757.000000	 0.014198  
756.000000	 0.014326  
755.000000	 0.014565  
754.000000	 0.014832  
753.000000	 0.015027  
752.000000	 0.015142  
751.000000	 0.015237  
750.000000	 0.015357  
749.000000	 0.015521  
748.000000	 0.015793  
747.000000	 0.016304  
746.000000	 0.017172  
745.000000	 0.018406  
744.000000	 0.019884  
743.000000	 0.021375  
742.000000	 0.022593  
741.000000	 0.023318  
740.000000	 0.023531  
739.000000	 0.023417  
738.000000	 0.023210  
737.000000	 0.023024  
736.000000	 0.022857  
735.000000	 0.022698  
734.000000	 0.022602  
733.000000	 0.022654  
732.000000	 0.022880  
731.000000	 0.023214  
730.000000	 0.023595  
729.000000	 0.024096  
728.000000	 0.024890  
727.000000	 0.026051  
726.000000	 0.027418  
725.000000	 0.028696  
724.000000	 0.029698  
723.000000	 0.030399  
722.000000	 0.030752  
721.000000	 0.030509  
720.000000	 0.029382  
719.000000	 0.027448  
718.000000	 0.025210  
717.000000	 0.023222  
716.000000	 0.021750  
715.000000	 0.020721  
714.000000	 0.019865  
713.000000	 0.018966  
712.000000	 0.018007  
711.000000	 0.017143  
710.000000	 0.016542  
709.000000	 0.016264  
708.000000	 0.016213  
707.000000	 0.016208  
706.000000	 0.016169  
705.000000	 0.016202  
704.000000	 0.016427  
703.000000	 0.016761  
702.000000	 0.016978  
701.000000	 0.016997  
700.000000	 0.017000  
699.000000	 0.017118  
698.000000	 0.017132  
697.000000	 0.016671  
696.000000	 0.015697  
695.000000	 0.014666  
694.000000	 0.014055  
693.000000	 0.013839  
692.000000	 0.013573  
691.000000	 0.012917  
690.000000	 0.011989  
689.000000	 0.011156  
688.000000	 0.010554  
687.000000	 0.010001  
686.000000	 0.009336  
685.000000	 0.008675  
684.000000	 0.008269  
683.000000	 0.008203  
682.000000	 0.008366  
681.000000	 0.008586  
680.000000	 0.008690  
679.000000	 0.008519  
678.000000	 0.008095  
677.000000	 0.007761  
676.000000	 0.007750  
675.000000	 0.007909  
674.000000	 0.007942  
673.000000	 0.007696  
672.000000	 0.006969  
671.000000	 0.005096  
670.000000	 0.001311  
669.000000	 -0.004557 
668.000000	 -0.009264 
667.000000	 -0.007325 
666.000000	 -0.001486 
665.000000	 0.003076  
664.000000	 0.005680  
663.000000	 0.007085  
662.000000	 0.007684  
661.000000	 0.007483  
660.000000	 0.006795  
659.000000	 0.006294  
658.000000	 0.006290  
657.000000	 0.006391  
656.000000	 0.005961  
655.000000	 0.004982  
654.000000	 0.004124  
653.000000	 0.003997  
652.000000	 0.004546  
651.000000	 0.005248  
650.000000	 0.005693  

