PE IR                   SPECTRUM    ASCII       PEDS        1.60        
  -1
NB4-12~1.ASC
17/04/10
13:34:55.00
17/04/10
13:34:55.00
Admin

650.000000
6









SPECTRUM ONE,CPU32 MAIN 00.02.5000 17-APRIL-2002 13:00:00
MIR TGS
MIR
OPTKBR
68128
0.200000

4.000000
STRONG
RATIO
SPECTRUM
MAGNITUDE

DOUBLE

COMBINED


0


#HDR
-1
-1
#GR
CM-1
A
0.00000011920928955078
0.0
4000.000000
-1.000000
3351
8
0.214778
-0.015155
#DATA
4000.000000	0.001236  
3999.000000	0.001237  
3998.000000	0.001313  
3997.000000	0.001483  
3996.000000	0.001699  
3995.000000	0.001647  
3994.000000	0.001723  
3993.000000	0.001705  
3992.000000	0.001625  
3991.000000	0.001537  
3990.000000	0.001481  
3989.000000	0.001456  
3988.000000	0.001423  
3987.000000	0.001356  
3986.000000	0.001281  
3985.000000	0.001258  
3984.000000	0.001303  
3983.000000	0.001348  
3982.000000	0.001297  
3981.000000	0.001125  
3980.000000	0.000914  
3979.000000	0.000783  
3978.000000	0.000789  
3977.000000	0.000900  
3976.000000	0.001051  
3975.000000	0.001190  
3974.000000	0.001291  
3973.000000	0.001334  
3972.000000	0.001312  
3971.000000	0.001255  
3970.000000	0.001216  
3969.000000	0.001225  
3968.000000	0.001244  
3967.000000	0.001214  
3966.000000	0.001125  
3965.000000	0.001044  
3964.000000	0.001062  
3963.000000	0.001210  
3962.000000	0.001427  
3961.000000	0.001605  
3960.000000	0.001670  
3959.000000	0.001608  
3958.000000	0.001449  
3957.000000	0.001247  
3956.000000	0.001059  
3955.000000	0.000938  
3954.000000	0.000909  
3953.000000	0.000953  
3952.000000	0.001025  
3951.000000	0.001094  
3950.000000	0.001173  
3949.000000	0.001294  
3948.000000	0.001446  
3947.000000	0.001559  
3946.000000	0.001554  
3945.000000	0.001425  
3944.000000	0.001251  
3943.000000	0.001137  
3942.000000	0.001116  
3941.000000	0.001137  
3940.000000	0.001159  
3939.000000	0.001202  
3938.000000	0.001297  
3937.000000	0.001424  
3936.000000	0.001511  
3935.000000	0.001509  
3934.000000	0.001455  
3933.000000	0.001432  
3932.000000	0.001481  
3931.000000	0.001548  
3930.000000	0.001565  
3929.000000	0.001520  
3928.000000	0.001466  
3927.000000	0.001468  
3926.000000	0.001551  
3925.000000	0.001685  
3924.000000	0.001812  
3923.000000	0.001901  
3922.000000	0.001967  
3921.000000	0.002021  
3920.000000	0.002035  
3919.000000	0.001962  
3918.000000	0.001801  
3917.000000	0.001625  
3916.000000	0.001520  
3915.000000	0.001511  
3914.000000	0.001556  
3913.000000	0.001579  
3912.000000	0.001534  
3911.000000	0.001436  
3910.000000	0.001356  
3909.000000	0.001369  
3908.000000	0.001495  
3907.000000	0.001684  
3906.000000	0.001866  
3905.000000	0.002004  
3904.000000	0.002091  
3903.000000	0.002099  
3902.000000	0.001999  
3901.000000	0.001833  
3900.000000	0.001706  
3899.000000	0.001690  
3898.000000	0.001752  
3897.000000	0.001802  
3896.000000	0.001793  
3895.000000	0.001730  
3894.000000	0.001648  
3893.000000	0.001579  
3892.000000	0.001540  
3891.000000	0.001516  
3890.000000	0.001490  
3889.000000	0.001463  
3888.000000	0.001427  
3887.000000	0.001367  
3886.000000	0.001297  
3885.000000	0.001247  
3884.000000	0.001217  
3883.000000	0.001177  
3882.000000	0.001108  
3881.000000	0.001041  
3880.000000	0.001005  
3879.000000	0.000995  
3878.000000	0.001012  
3877.000000	0.001077  
3876.000000	0.001213  
3875.000000	0.001438  
3874.000000	0.001725  
3873.000000	0.001991  
3872.000000	0.002166  
3871.000000	0.002276  
3870.000000	0.002393  
3869.000000	0.002496  
3868.000000	0.002484  
3867.000000	0.002295  
3866.000000	0.001973  
3865.000000	0.001666  
3864.000000	0.001535  
3863.000000	0.001605  
3862.000000	0.001753  
3861.000000	0.001823  
3860.000000	0.001739  
3859.000000	0.001547  
3858.000000	0.001358  
3857.000000	0.001268  
3856.000000	0.001254  
3855.000000	0.001157  
3854.000000	0.000980  
3853.000000	0.000903  
3852.000000	0.000983  
3851.000000	0.001172  
3850.000000	0.001425  
3849.000000	0.001705  
3848.000000	0.001991  
3847.000000	0.002251  
3846.000000	0.002443  
3845.000000	0.002550  
3844.000000	0.002594  
3843.000000	0.002603  
3842.000000	0.002581  
3841.000000	0.002515  
3840.000000	0.002393  
3839.000000	0.002217  
3838.000000	0.002022  
3837.000000	0.001889  
3836.000000	0.001891  
3835.000000	0.002031  
3834.000000	0.002243  
3833.000000	0.002435  
3832.000000	0.002530  
3831.000000	0.002518  
3830.000000	0.002447  
3829.000000	0.002359  
3828.000000	0.002261  
3827.000000	0.002149  
3826.000000	0.002060  
3825.000000	0.002071  
3824.000000	0.002224  
3823.000000	0.002453  
3822.000000	0.002621  
3821.000000	0.002607  
3820.000000	0.002341  
3819.000000	0.001879  
3818.000000	0.001397  
3817.000000	0.001103  
3816.000000	0.001103  
3815.000000	0.001312  
3814.000000	0.001555  
3813.000000	0.001711  
3812.000000	0.001745  
3811.000000	0.001666  
3810.000000	0.001496  
3809.000000	0.001275  
3808.000000	0.001101  
3807.000000	0.001098  
3806.000000	0.001294  
3805.000000	0.001584  
3804.000000	0.001817  
3803.000000	0.001871  
3802.000000	0.001757  
3801.000000	0.001604  
3800.000000	0.001518  
3799.000000	0.001529  
3798.000000	0.001613  
3797.000000	0.001743  
3796.000000	0.001890  
3795.000000	0.002011  
3794.000000	0.002076  
3793.000000	0.002074  
3792.000000	0.002010  
3791.000000	0.001897  
3790.000000	0.001752  
3789.000000	0.001596  
3788.000000	0.001448  
3787.000000	0.001334  
3786.000000	0.001290  
3785.000000	0.001329  
3784.000000	0.001419  
3783.000000	0.001496  
3782.000000	0.001513  
3781.000000	0.001471  
3780.000000	0.001428  
3779.000000	0.001436  
3778.000000	0.001484  
3777.000000	0.001532  
3776.000000	0.001560  
3775.000000	0.001568  
3774.000000	0.001556  
3773.000000	0.001517  
3772.000000	0.001471  
3771.000000	0.001488  
3770.000000	0.001645  
3769.000000	0.001914  
3768.000000	0.002149  
3767.000000	0.002200  
3766.000000	0.002029  
3765.000000	0.001748  
3764.000000	0.001534  
3763.000000	0.001497  
3762.000000	0.001624  
3761.000000	0.001812  
3760.000000	0.001961  
3759.000000	0.002044  
3758.000000	0.002083  
3757.000000	0.002081  
3756.000000	0.002022  
3755.000000	0.001935  
3754.000000	0.001953  
3753.000000	0.002233  
3752.000000	0.002744  
3751.000000	0.003148  
3750.000000	0.003125  
3749.000000	0.002767  
3748.000000	0.002391  
3747.000000	0.002230  
3746.000000	0.002329  
3745.000000	0.002557  
3744.000000	0.002700  
3743.000000	0.002700  
3742.000000	0.002675  
3741.000000	0.002757  
3740.000000	0.003022  
3739.000000	0.003471  
3738.000000	0.003960  
3737.000000	0.004258  
3736.000000	0.004220  
3735.000000	0.003925  
3734.000000	0.003591  
3733.000000	0.003377  
3732.000000	0.003299  
3731.000000	0.003318  
3730.000000	0.003408  
3729.000000	0.003533  
3728.000000	0.003611  
3727.000000	0.003561  
3726.000000	0.003370  
3725.000000	0.003114  
3724.000000	0.002874  
3723.000000	0.002665  
3722.000000	0.002439  
3721.000000	0.002157  
3720.000000	0.001844  
3719.000000	0.001585  
3718.000000	0.001458  
3717.000000	0.001467  
3716.000000	0.001540  
3715.000000	0.001595  
3714.000000	0.001619  
3713.000000	0.001705  
3712.000000	0.001961  
3711.000000	0.002314  
3710.000000	0.002546  
3709.000000	0.002554  
3708.000000	0.002458  
3707.000000	0.002445  
3706.000000	0.002583  
3705.000000	0.002743  
3704.000000	0.002708  
3703.000000	0.002379  
3702.000000	0.001908  
3701.000000	0.001558  
3700.000000	0.001460  
3699.000000	0.001552  
3698.000000	0.001698  
3697.000000	0.001815  
3696.000000	0.001914  
3695.000000	0.002054  
3694.000000	0.002225  
3693.000000	0.002308  
3692.000000	0.002161  
3691.000000	0.001817  
3690.000000	0.001535  
3689.000000	0.001526  
3688.000000	0.001694  
3687.000000	0.001817  
3686.000000	0.001811  
3685.000000	0.001757  
3684.000000	0.001798  
3683.000000	0.001970  
3682.000000	0.002152  
3681.000000	0.002183  
3680.000000	0.002024  
3679.000000	0.001778  
3678.000000	0.001597  
3677.000000	0.001576  
3676.000000	0.001752  
3675.000000	0.001993  
3674.000000	0.002120  
3673.000000	0.002117  
3672.000000	0.002091  
3671.000000	0.002126  
3670.000000	0.002234  
3669.000000	0.002327  
3668.000000	0.002306  
3667.000000	0.002175  
3666.000000	0.001985  
3665.000000	0.001745  
3664.000000	0.001435  
3663.000000	0.001075  
3662.000000	0.000755  
3661.000000	0.000575  
3660.000000	0.000567  
3659.000000	0.000685  
3658.000000	0.000878  
3657.000000	0.001146  
3656.000000	0.001493  
3655.000000	0.001860  
3654.000000	0.002137  
3653.000000	0.002209  
3652.000000	0.002004  
3651.000000	0.001617  
3650.000000	0.001328  
3649.000000	0.001322  
3648.000000	0.001501  
3647.000000	0.001689  
3646.000000	0.001813  
3645.000000	0.001896  
3644.000000	0.002004  
3643.000000	0.002186  
3642.000000	0.002416  
3641.000000	0.002594  
3640.000000	0.002613  
3639.000000	0.002460  
3638.000000	0.002241  
3637.000000	0.002106  
3636.000000	0.002158  
3635.000000	0.002391  
3634.000000	0.002697  
3633.000000	0.002940  
3632.000000	0.003033  
3631.000000	0.002971  
3630.000000	0.002851  
3629.000000	0.002786  
3628.000000	0.002716  
3627.000000	0.002555  
3626.000000	0.002374  
3625.000000	0.002286  
3624.000000	0.002321  
3623.000000	0.002391  
3622.000000	0.002342  
3621.000000	0.002085  
3620.000000	0.001726  
3619.000000	0.001485  
3618.000000	0.001460  
3617.000000	0.001577  
3616.000000	0.001723  
3615.000000	0.001854  
3614.000000	0.002006  
3613.000000	0.002228  
3612.000000	0.002500  
3611.000000	0.002753  
3610.000000	0.002922  
3609.000000	0.002958  
3608.000000	0.002840  
3607.000000	0.002572  
3606.000000	0.002197  
3605.000000	0.001793  
3604.000000	0.001466  
3603.000000	0.001320  
3602.000000	0.001422  
3601.000000	0.001749  
3600.000000	0.002179  
3599.000000	0.002554  
3598.000000	0.002756  
3597.000000	0.002757  
3596.000000	0.002621  
3595.000000	0.002465  
3594.000000	0.002371  
3593.000000	0.002331  
3592.000000	0.002288  
3591.000000	0.002207  
3590.000000	0.002110  
3589.000000	0.002067  
3588.000000	0.002130  
3587.000000	0.002242  
3586.000000	0.002290  
3585.000000	0.002235  
3584.000000	0.002107  
3583.000000	0.001944  
3582.000000	0.001795  
3581.000000	0.001737  
3580.000000	0.001813  
3579.000000	0.001957  
3578.000000	0.002019  
3577.000000	0.001909  
3576.000000	0.001693  
3575.000000	0.001518  
3574.000000	0.001450  
3573.000000	0.001422  
3572.000000	0.001346  
3571.000000	0.001227  
3570.000000	0.001166  
3569.000000	0.001275  
3568.000000	0.001550  
3567.000000	0.001837  
3566.000000	0.001973  
3565.000000	0.001964  
3564.000000	0.001927  
3563.000000	0.001926  
3562.000000	0.001944  
3561.000000	0.001945  
3560.000000	0.001944  
3559.000000	0.001976  
3558.000000	0.002023  
3557.000000	0.002000  
3556.000000	0.001825  
3555.000000	0.001508  
3554.000000	0.001163  
3553.000000	0.000944  
3552.000000	0.000934  
3551.000000	0.001094  
3550.000000	0.001296  
3549.000000	0.001401  
3548.000000	0.001337  
3547.000000	0.001171  
3546.000000	0.001074  
3545.000000	0.001173  
3544.000000	0.001427  
3543.000000	0.001687  
3542.000000	0.001851  
3541.000000	0.001933  
3540.000000	0.001991  
3539.000000	0.002017  
3538.000000	0.001937  
3537.000000	0.001713  
3536.000000	0.001429  
3535.000000	0.001234  
3534.000000	0.001216  
3533.000000	0.001350  
3532.000000	0.001548  
3531.000000	0.001734  
3530.000000	0.001864  
3529.000000	0.001917  
3528.000000	0.001875  
3527.000000	0.001733  
3526.000000	0.001516  
3525.000000	0.001278  
3524.000000	0.001088  
3523.000000	0.001005  
3522.000000	0.001045  
3521.000000	0.001163  
3520.000000	0.001288  
3519.000000	0.001379  
3518.000000	0.001446  
3517.000000	0.001523  
3516.000000	0.001620  
3515.000000	0.001721  
3514.000000	0.001801  
3513.000000	0.001841  
3512.000000	0.001825  
3511.000000	0.001748  
3510.000000	0.001634  
3509.000000	0.001535  
3508.000000	0.001492  
3507.000000	0.001504  
3506.000000	0.001544  
3505.000000	0.001593  
3504.000000	0.001661  
3503.000000	0.001750  
3502.000000	0.001831  
3501.000000	0.001859  
3500.000000	0.001823  
3499.000000	0.001778  
3498.000000	0.001807  
3497.000000	0.001943  
3496.000000	0.002124  
3495.000000	0.002245  
3494.000000	0.002238  
3493.000000	0.002098  
3492.000000	0.001868  
3491.000000	0.001621  
3490.000000	0.001444  
3489.000000	0.001403  
3488.000000	0.001494  
3487.000000	0.001655  
3486.000000	0.001831  
3485.000000	0.001998  
3484.000000	0.002128  
3483.000000	0.002162  
3482.000000	0.002064  
3481.000000	0.001886  
3480.000000	0.001741  
3479.000000	0.001700  
3478.000000	0.001731  
3477.000000	0.001748  
3476.000000	0.001708  
3475.000000	0.001661  
3474.000000	0.001682  
3473.000000	0.001773  
3472.000000	0.001837  
3471.000000	0.001772  
3470.000000	0.001583  
3469.000000	0.001383  
3468.000000	0.001287  
3467.000000	0.001324  
3466.000000	0.001438  
3465.000000	0.001558  
3464.000000	0.001618  
3463.000000	0.001572  
3462.000000	0.001426  
3461.000000	0.001257  
3460.000000	0.001167  
3459.000000	0.001197  
3458.000000	0.001308  
3457.000000	0.001433  
3456.000000	0.001537  
3455.000000	0.001614  
3454.000000	0.001679  
3453.000000	0.001758  
3452.000000	0.001860  
3451.000000	0.001945  
3450.000000	0.001947  
3449.000000	0.001856  
3448.000000	0.001759  
3447.000000	0.001771  
3446.000000	0.001919  
3445.000000	0.002131  
3444.000000	0.002299  
3443.000000	0.002352  
3442.000000	0.002291  
3441.000000	0.002188  
3440.000000	0.002151  
3439.000000	0.002240  
3438.000000	0.002399  
3437.000000	0.002486  
3436.000000	0.002391  
3435.000000	0.002130  
3434.000000	0.001850  
3433.000000	0.001717  
3432.000000	0.001783  
3431.000000	0.001952  
3430.000000	0.002069  
3429.000000	0.002045  
3428.000000	0.001907  
3427.000000	0.001727  
3426.000000	0.001564  
3425.000000	0.001454  
3424.000000	0.001426  
3423.000000	0.001490  
3422.000000	0.001614  
3421.000000	0.001745  
3420.000000	0.001846  
3419.000000	0.001914  
3418.000000	0.001960  
3417.000000	0.001989  
3416.000000	0.002007  
3415.000000	0.002030  
3414.000000	0.002074  
3413.000000	0.002151  
3412.000000	0.002262  
3411.000000	0.002376  
3410.000000	0.002426  
3409.000000	0.002342  
3408.000000	0.002112  
3407.000000	0.001813  
3406.000000	0.001569  
3405.000000	0.001473  
3404.000000	0.001525  
3403.000000	0.001657  
3402.000000	0.001802  
3401.000000	0.001936  
3400.000000	0.002053  
3399.000000	0.002130  
3398.000000	0.002144  
3397.000000	0.002122  
3396.000000	0.002145  
3395.000000	0.002271  
3394.000000	0.002473  
3393.000000	0.002648  
3392.000000	0.002697  
3391.000000	0.002596  
3390.000000	0.002416  
3389.000000	0.002265  
3388.000000	0.002211  
3387.000000	0.002218  
3386.000000	0.002194  
3385.000000	0.002112  
3384.000000	0.002057  
3383.000000	0.002130  
3382.000000	0.002321  
3381.000000	0.002512  
3380.000000	0.002591  
3379.000000	0.002532  
3378.000000	0.002350  
3377.000000	0.002063  
3376.000000	0.001711  
3375.000000	0.001405  
3374.000000	0.001281  
3373.000000	0.001380  
3372.000000	0.001618  
3371.000000	0.001868  
3370.000000	0.002066  
3369.000000	0.002231  
3368.000000	0.002389  
3367.000000	0.002520  
3366.000000	0.002580  
3365.000000	0.002557  
3364.000000	0.002473  
3363.000000	0.002365  
3362.000000	0.002272  
3361.000000	0.002236  
3360.000000	0.002283  
3359.000000	0.002375  
3358.000000	0.002430  
3357.000000	0.002409  
3356.000000	0.002351  
3355.000000	0.002314  
3354.000000	0.002286  
3353.000000	0.002206  
3352.000000	0.002055  
3351.000000	0.001883  
3350.000000	0.001752  
3349.000000	0.001689  
3348.000000	0.001707  
3347.000000	0.001822  
3346.000000	0.002014  
3345.000000	0.002202  
3344.000000	0.002308  
3343.000000	0.002335  
3342.000000	0.002346  
3341.000000	0.002378  
3340.000000	0.002392  
3339.000000	0.002339  
3338.000000	0.002236  
3337.000000	0.002163  
3336.000000	0.002176  
3335.000000	0.002248  
3334.000000	0.002297  
3333.000000	0.002273  
3332.000000	0.002201  
3331.000000	0.002141  
3330.000000	0.002122  
3329.000000	0.002142  
3328.000000	0.002200  
3327.000000	0.002291  
3326.000000	0.002375  
3325.000000	0.002388  
3324.000000	0.002323  
3323.000000	0.002255  
3322.000000	0.002261  
3321.000000	0.002339  
3320.000000	0.002414  
3319.000000	0.002442  
3318.000000	0.002437  
3317.000000	0.002429  
3316.000000	0.002407  
3315.000000	0.002342  
3314.000000	0.002241  
3313.000000	0.002154  
3312.000000	0.002143  
3311.000000	0.002236  
3310.000000	0.002402  
3309.000000	0.002541  
3308.000000	0.002544  
3307.000000	0.002382  
3306.000000	0.002163  
3305.000000	0.002060  
3304.000000	0.002154  
3303.000000	0.002363  
3302.000000	0.002542  
3301.000000	0.002619  
3300.000000	0.002619  
3299.000000	0.002571  
3298.000000	0.002460  
3297.000000	0.002289  
3296.000000	0.002124  
3295.000000	0.002040  
3294.000000	0.002056  
3293.000000	0.002152  
3292.000000	0.002312  
3291.000000	0.002509  
3290.000000	0.002658  
3289.000000	0.002663  
3288.000000	0.002518  
3287.000000	0.002320  
3286.000000	0.002155  
3285.000000	0.002027  
3284.000000	0.001911  
3283.000000	0.001835  
3282.000000	0.001865  
3281.000000	0.002005  
3280.000000	0.002172  
3279.000000	0.002274  
3278.000000	0.002296  
3277.000000	0.002303  
3276.000000	0.002373  
3275.000000	0.002535  
3274.000000	0.002759  
3273.000000	0.002962  
3272.000000	0.003047  
3271.000000	0.002950  
3270.000000	0.002679  
3269.000000	0.002327  
3268.000000	0.002004  
3267.000000	0.001779  
3266.000000	0.001676  
3265.000000	0.001710  
3264.000000	0.001888  
3263.000000	0.002150  
3262.000000	0.002381  
3261.000000	0.002503  
3260.000000	0.002553  
3259.000000	0.002630  
3258.000000	0.002752  
3257.000000	0.002822  
3256.000000	0.002737  
3255.000000	0.002511  
3254.000000	0.002282  
3253.000000	0.002213  
3252.000000	0.002356  
3251.000000	0.002602  
3250.000000	0.002765  
3249.000000	0.002748  
3248.000000	0.002624  
3247.000000	0.002532  
3246.000000	0.002506  
3245.000000	0.002472  
3244.000000	0.002392  
3243.000000	0.002327  
3242.000000	0.002349  
3241.000000	0.002433  
3240.000000	0.002495  
3239.000000	0.002482  
3238.000000	0.002388  
3237.000000	0.002226  
3236.000000	0.002026  
3235.000000	0.001842  
3234.000000	0.001730  
3233.000000	0.001722  
3232.000000	0.001835  
3231.000000	0.002053  
3230.000000	0.002298  
3229.000000	0.002448  
3228.000000	0.002448  
3227.000000	0.002375  
3226.000000	0.002349  
3225.000000	0.002404  
3224.000000	0.002488  
3223.000000	0.002549  
3222.000000	0.002564  
3221.000000	0.002515  
3220.000000	0.002403  
3219.000000	0.002287  
3218.000000	0.002254  
3217.000000	0.002335  
3216.000000	0.002477  
3215.000000	0.002614  
3214.000000	0.002712  
3213.000000	0.002772  
3212.000000	0.002809  
3211.000000	0.002852  
3210.000000	0.002922  
3209.000000	0.003000  
3208.000000	0.003047  
3207.000000	0.003054  
3206.000000	0.003047  
3205.000000	0.003054  
3204.000000	0.003080  
3203.000000	0.003129  
3202.000000	0.003192  
3201.000000	0.003218  
3200.000000	0.003138  
3199.000000	0.002937  
3198.000000	0.002679  
3197.000000	0.002440  
3196.000000	0.002247  
3195.000000	0.002090  
3194.000000	0.001975  
3193.000000	0.001927  
3192.000000	0.001973  
3191.000000	0.002131  
3190.000000	0.002407  
3189.000000	0.002753  
3188.000000	0.003064  
3187.000000	0.003234  
3186.000000	0.003239  
3185.000000	0.003148  
3184.000000	0.003049  
3183.000000	0.002972  
3182.000000	0.002891  
3181.000000	0.002773  
3180.000000	0.002617  
3179.000000	0.002446  
3178.000000	0.002298  
3177.000000	0.002225  
3176.000000	0.002280  
3175.000000	0.002462  
3174.000000	0.002684  
3173.000000	0.002815  
3172.000000	0.002785  
3171.000000	0.002638  
3170.000000	0.002487  
3169.000000	0.002426  
3168.000000	0.002478  
3167.000000	0.002601  
3166.000000	0.002722  
3165.000000	0.002784  
3164.000000	0.002777  
3163.000000	0.002734  
3162.000000	0.002684  
3161.000000	0.002633  
3160.000000	0.002593  
3159.000000	0.002601  
3158.000000	0.002684  
3157.000000	0.002818  
3156.000000	0.002950  
3155.000000	0.003048  
3154.000000	0.003115  
3153.000000	0.003156  
3152.000000	0.003151  
3151.000000	0.003058  
3150.000000	0.002850  
3149.000000	0.002569  
3148.000000	0.002325  
3147.000000	0.002212  
3146.000000	0.002213  
3145.000000	0.002228  
3144.000000	0.002195  
3143.000000	0.002156  
3142.000000	0.002172  
3141.000000	0.002234  
3140.000000	0.002296  
3139.000000	0.002366  
3138.000000	0.002496  
3137.000000	0.002678  
3136.000000	0.002822  
3135.000000	0.002848  
3134.000000	0.002762  
3133.000000	0.002651  
3132.000000	0.002614  
3131.000000	0.002693  
3130.000000	0.002836  
3129.000000	0.002928  
3128.000000	0.002892  
3127.000000	0.002761  
3126.000000	0.002631  
3125.000000	0.002558  
3124.000000	0.002546  
3123.000000	0.002596  
3122.000000	0.002728  
3121.000000	0.002921  
3120.000000	0.003093  
3119.000000	0.003163  
3118.000000	0.003111  
3117.000000	0.002980  
3116.000000	0.002842  
3115.000000	0.002768  
3114.000000	0.002787  
3113.000000	0.002865  
3112.000000	0.002936  
3111.000000	0.002979  
3110.000000	0.003016  
3109.000000	0.003052  
3108.000000	0.003036  
3107.000000	0.002924  
3106.000000	0.002735  
3105.000000	0.002549  
3104.000000	0.002452  
3103.000000	0.002490  
3102.000000	0.002646  
3101.000000	0.002823  
3100.000000	0.002898  
3099.000000	0.002804  
3098.000000	0.002585  
3097.000000	0.002360  
3096.000000	0.002251  
3095.000000	0.002317  
3094.000000	0.002529  
3093.000000	0.002779  
3092.000000	0.002958  
3091.000000	0.003041  
3090.000000	0.003078  
3089.000000	0.003102  
3088.000000	0.003091  
3087.000000	0.003035  
3086.000000	0.002999  
3085.000000	0.003049  
3084.000000	0.003154  
3083.000000	0.003212  
3082.000000	0.003172  
3081.000000	0.003104  
3080.000000	0.003127  
3079.000000	0.003287  
3078.000000	0.003524  
3077.000000	0.003730  
3076.000000	0.003820  
3075.000000	0.003775  
3074.000000	0.003633  
3073.000000	0.003475  
3072.000000	0.003397  
3071.000000	0.003459  
3070.000000	0.003632  
3069.000000	0.003810  
3068.000000	0.003887  
3067.000000	0.003849  
3066.000000	0.003776  
3065.000000	0.003768  
3064.000000	0.003867  
3063.000000	0.004044  
3062.000000	0.004219  
3061.000000	0.004302  
3060.000000	0.004250  
3059.000000	0.004108  
3058.000000	0.003970  
3057.000000	0.003901  
3056.000000	0.003909  
3055.000000	0.003973  
3054.000000	0.004069  
3053.000000	0.004144  
3052.000000	0.004127  
3051.000000	0.004008  
3050.000000	0.003875  
3049.000000	0.003843  
3048.000000	0.003945  
3047.000000	0.004125  
3046.000000	0.004310  
3045.000000	0.004451  
3044.000000	0.004514  
3043.000000	0.004494  
3042.000000	0.004429  
3041.000000	0.004391  
3040.000000	0.004435  
3039.000000	0.004561  
3038.000000	0.004722  
3037.000000	0.004858  
3036.000000	0.004919  
3035.000000	0.004886  
3034.000000	0.004787  
3033.000000	0.004685  
3032.000000	0.004651  
3031.000000	0.004741  
3030.000000	0.004957  
3029.000000	0.005235  
3028.000000	0.005479  
3027.000000	0.005640  
3026.000000	0.005760  
3025.000000	0.005926  
3024.000000	0.006195  
3023.000000	0.006551  
3022.000000	0.006921  
3021.000000	0.007209  
3020.000000	0.007355  
3019.000000	0.007401  
3018.000000	0.007487  
3017.000000	0.007726  
3016.000000	0.008095  
3015.000000	0.008463  
3014.000000	0.008734  
3013.000000	0.008916  
3012.000000	0.009067  
3011.000000	0.009215  
3010.000000	0.009353  
3009.000000	0.009476  
3008.000000	0.009588  
3007.000000	0.009688  
3006.000000	0.009756  
3005.000000	0.009746  
3004.000000	0.009610  
3003.000000	0.009353  
3002.000000	0.009076  
3001.000000	0.008938  
3000.000000	0.009039  
2999.000000	0.009324  
2998.000000	0.009636  
2997.000000	0.009839  
2996.000000	0.009920  
2995.000000	0.009975  
2994.000000	0.010124  
2993.000000	0.010434  
2992.000000	0.010889  
2991.000000	0.011426  
2990.000000	0.011985  
2989.000000	0.012538  
2988.000000	0.013098  
2987.000000	0.013721  
2986.000000	0.014479  
2985.000000	0.015409  
2984.000000	0.016482  
2983.000000	0.017637  
2982.000000	0.018851  
2981.000000	0.020163  
2980.000000	0.021627  
2979.000000	0.023268  
2978.000000	0.025098  
2977.000000	0.027164  
2976.000000	0.029558  
2975.000000	0.032362  
2974.000000	0.035592  
2973.000000	0.039193  
2972.000000	0.043069  
2971.000000	0.047158  
2970.000000	0.051480  
2969.000000	0.056132  
2968.000000	0.061196  
2967.000000	0.066620  
2966.000000	0.072208  
2965.000000	0.077736  
2964.000000	0.083088  
2963.000000	0.088256  
2962.000000	0.093237  
2961.000000	0.097974  
2960.000000	0.102373  
2959.000000	0.106329  
2958.000000	0.109697  
2957.000000	0.112311  
2956.000000	0.114069  
2955.000000	0.114980  
2954.000000	0.115101  
2953.000000	0.114462  
2952.000000	0.113100  
2951.000000	0.111148  
2950.000000	0.108849  
2949.000000	0.106477  
2948.000000	0.104261  
2947.000000	0.102382  
2946.000000	0.101000  
2945.000000	0.100267  
2944.000000	0.100312  
2943.000000	0.101227  
2942.000000	0.103050  
2941.000000	0.105771  
2940.000000	0.109349  
2939.000000	0.113733  
2938.000000	0.118864  
2937.000000	0.124649  
2936.000000	0.130959  
2935.000000	0.137649  
2934.000000	0.144612  
2933.000000	0.151817  
2932.000000	0.159281  
2931.000000	0.166994  
2930.000000	0.174837  
2929.000000	0.182588  
2928.000000	0.189989  
2927.000000	0.196801  
2926.000000	0.202809  
2925.000000	0.207812  
2924.000000	0.211612  
2923.000000	0.213995  
2922.000000	0.214778  
2921.000000	0.213950  
2920.000000	0.211732  
2919.000000	0.208449  
2918.000000	0.204319  
2917.000000	0.199457  
2916.000000	0.194034  
2915.000000	0.188326  
2914.000000	0.182590  
2913.000000	0.176964  
2912.000000	0.171515  
2911.000000	0.166326  
2910.000000	0.161473  
2909.000000	0.156936  
2908.000000	0.152590  
2907.000000	0.148300  
2906.000000	0.144007  
2905.000000	0.139731  
2904.000000	0.135540  
2903.000000	0.131509  
2902.000000	0.127674  
2901.000000	0.124008  
2900.000000	0.120420  
2899.000000	0.116825  
2898.000000	0.113213  
2897.000000	0.109655  
2896.000000	0.106225  
2895.000000	0.102939  
2894.000000	0.099750  
2893.000000	0.096584  
2892.000000	0.093384  
2891.000000	0.090143  
2890.000000	0.086938  
2889.000000	0.083917  
2888.000000	0.081219  
2887.000000	0.078904  
2886.000000	0.076954  
2885.000000	0.075361  
2884.000000	0.074166  
2883.000000	0.073437  
2882.000000	0.073227  
2881.000000	0.073572  
2880.000000	0.074527  
2879.000000	0.076161  
2878.000000	0.078497  
2877.000000	0.081439  
2876.000000	0.084753  
2875.000000	0.088118  
2874.000000	0.091200  
2873.000000	0.093734  
2872.000000	0.095562  
2871.000000	0.096653  
2870.000000	0.097117  
2869.000000	0.097208  
2868.000000	0.097256  
2867.000000	0.097558  
2866.000000	0.098313  
2865.000000	0.099651  
2864.000000	0.101673  
2863.000000	0.104420  
2862.000000	0.107826  
2861.000000	0.111759  
2860.000000	0.116108  
2859.000000	0.120773  
2858.000000	0.125558  
2857.000000	0.130101  
2856.000000	0.133943  
2855.000000	0.136630  
2854.000000	0.137781  
2853.000000	0.137146  
2852.000000	0.134699  
2851.000000	0.130658  
2850.000000	0.125378  
2849.000000	0.119207  
2848.000000	0.112425  
2847.000000	0.105276  
2846.000000	0.098015  
2845.000000	0.090881  
2844.000000	0.084022  
2843.000000	0.077456  
2842.000000	0.071144  
2841.000000	0.065092  
2840.000000	0.059381  
2839.000000	0.054112  
2838.000000	0.049346  
2837.000000	0.045084  
2836.000000	0.041297  
2835.000000	0.037928  
2834.000000	0.034909  
2833.000000	0.032177  
2832.000000	0.029713  
2831.000000	0.027538  
2830.000000	0.025677  
2829.000000	0.024111  
2828.000000	0.022760  
2827.000000	0.021529  
2826.000000	0.020357  
2825.000000	0.019255  
2824.000000	0.018275  
2823.000000	0.017454  
2822.000000	0.016784  
2821.000000	0.016212  
2820.000000	0.015678  
2819.000000	0.015148  
2818.000000	0.014616  
2817.000000	0.014088  
2816.000000	0.013576  
2815.000000	0.013085  
2814.000000	0.012620  
2813.000000	0.012175  
2812.000000	0.011741  
2811.000000	0.011319  
2810.000000	0.010937  
2809.000000	0.010637  
2808.000000	0.010445  
2807.000000	0.010341  
2806.000000	0.010271  
2805.000000	0.010175  
2804.000000	0.010008  
2803.000000	0.009750  
2802.000000	0.009420  
2801.000000	0.009079  
2800.000000	0.008803  
2799.000000	0.008639  
2798.000000	0.008566  
2797.000000	0.008526  
2796.000000	0.008469  
2795.000000	0.008380  
2794.000000	0.008242  
2793.000000	0.008006  
2792.000000	0.007641  
2791.000000	0.007207  
2790.000000	0.006840  
2789.000000	0.006648  
2788.000000	0.006624  
2787.000000	0.006672  
2786.000000	0.006701  
2785.000000	0.006672  
2784.000000	0.006577  
2783.000000	0.006430  
2782.000000	0.006278  
2781.000000	0.006192  
2780.000000	0.006210  
2779.000000	0.006292  
2778.000000	0.006347  
2777.000000	0.006286  
2776.000000	0.006088  
2775.000000	0.005820  
2774.000000	0.005606  
2773.000000	0.005539  
2772.000000	0.005608  
2771.000000	0.005698  
2770.000000	0.005699  
2769.000000	0.005588  
2768.000000	0.005421  
2767.000000	0.005263  
2766.000000	0.005143  
2765.000000	0.005078  
2764.000000	0.005073  
2763.000000	0.005118  
2762.000000	0.005170  
2761.000000	0.005188  
2760.000000	0.005154  
2759.000000	0.005070  
2758.000000	0.004949  
2757.000000	0.004816  
2756.000000	0.004717  
2755.000000	0.004689  
2754.000000	0.004717  
2753.000000	0.004746  
2752.000000	0.004727  
2751.000000	0.004673  
2750.000000	0.004646  
2749.000000	0.004684  
2748.000000	0.004755  
2747.000000	0.004786  
2746.000000	0.004733  
2745.000000	0.004630  
2744.000000	0.004555  
2743.000000	0.004562  
2742.000000	0.004633  
2741.000000	0.004713  
2740.000000	0.004767  
2739.000000	0.004802  
2738.000000	0.004848  
2737.000000	0.004919  
2736.000000	0.005019  
2735.000000	0.005148  
2734.000000	0.005301  
2733.000000	0.005435  
2732.000000	0.005487  
2731.000000	0.005419  
2730.000000	0.005283  
2729.000000	0.005187  
2728.000000	0.005207  
2727.000000	0.005306  
2726.000000	0.005374  
2725.000000	0.005332  
2724.000000	0.005211  
2723.000000	0.005102  
2722.000000	0.005071  
2721.000000	0.005110  
2720.000000	0.005176  
2719.000000	0.005232  
2718.000000	0.005254  
2717.000000	0.005231  
2716.000000	0.005163  
2715.000000	0.005065  
2714.000000	0.004941  
2713.000000	0.004787  
2712.000000	0.004606  
2711.000000	0.004432  
2710.000000	0.004316  
2709.000000	0.004281  
2708.000000	0.004303  
2707.000000	0.004332  
2706.000000	0.004327  
2705.000000	0.004272  
2704.000000	0.004179  
2703.000000	0.004076  
2702.000000	0.003982  
2701.000000	0.003903  
2700.000000	0.003835  
2699.000000	0.003787  
2698.000000	0.003778  
2697.000000	0.003821  
2696.000000	0.003910  
2695.000000	0.004021  
2694.000000	0.004125  
2693.000000	0.004192  
2692.000000	0.004199  
2691.000000	0.004148  
2690.000000	0.004098  
2689.000000	0.004135  
2688.000000	0.004295  
2687.000000	0.004511  
2686.000000	0.004651  
2685.000000	0.004646  
2684.000000	0.004552  
2683.000000	0.004488  
2682.000000	0.004514  
2681.000000	0.004593  
2680.000000	0.004652  
2679.000000	0.004652  
2678.000000	0.004607  
2677.000000	0.004572  
2676.000000	0.004607  
2675.000000	0.004736  
2674.000000	0.004906  
2673.000000	0.005016  
2672.000000	0.004998  
2671.000000	0.004871  
2670.000000	0.004714  
2669.000000	0.004605  
2668.000000	0.004587  
2667.000000	0.004666  
2666.000000	0.004808  
2665.000000	0.004942  
2664.000000	0.004998  
2663.000000	0.004944  
2662.000000	0.004781  
2661.000000	0.004540  
2660.000000	0.004289  
2659.000000	0.004114  
2658.000000	0.004056  
2657.000000	0.004071  
2656.000000	0.004096  
2655.000000	0.004122  
2654.000000	0.004171  
2653.000000	0.004233  
2652.000000	0.004261  
2651.000000	0.004245  
2650.000000	0.004226  
2649.000000	0.004233  
2648.000000	0.004243  
2647.000000	0.004221  
2646.000000	0.004170  
2645.000000	0.004114  
2644.000000	0.004078  
2643.000000	0.004078  
2642.000000	0.004122  
2641.000000	0.004182  
2640.000000	0.004195  
2639.000000	0.004108  
2638.000000	0.003927  
2637.000000	0.003706  
2636.000000	0.003522  
2635.000000	0.003454  
2634.000000	0.003546  
2633.000000	0.003762  
2632.000000	0.003989  
2631.000000	0.004125  
2630.000000	0.004136  
2629.000000	0.004052  
2628.000000	0.003937  
2627.000000	0.003879  
2626.000000	0.003932  
2625.000000	0.004041  
2624.000000	0.004060  
2623.000000	0.003898  
2622.000000	0.003631  
2621.000000	0.003416  
2620.000000	0.003324  
2619.000000	0.003307  
2618.000000	0.003308  
2617.000000	0.003334  
2616.000000	0.003406  
2615.000000	0.003498  
2614.000000	0.003559  
2613.000000	0.003573  
2612.000000	0.003559  
2611.000000	0.003548  
2610.000000	0.003558  
2609.000000	0.003608  
2608.000000	0.003705  
2607.000000	0.003837  
2606.000000	0.003969  
2605.000000	0.004042  
2604.000000	0.004002  
2603.000000	0.003838  
2602.000000	0.003623  
2601.000000	0.003480  
2600.000000	0.003485  
2599.000000	0.003591  
2598.000000	0.003657  
2597.000000	0.003576  
2596.000000	0.003379  
2595.000000	0.003194  
2594.000000	0.003100  
2593.000000	0.003051  
2592.000000	0.002960  
2591.000000	0.002836  
2590.000000	0.002772  
2589.000000	0.002794  
2588.000000	0.002819  
2587.000000	0.002787  
2586.000000	0.002764  
2585.000000	0.002840  
2584.000000	0.002971  
2583.000000	0.003018  
2582.000000	0.002922  
2581.000000	0.002775  
2580.000000	0.002698  
2579.000000	0.002716  
2578.000000	0.002764  
2577.000000	0.002779  
2576.000000	0.002735  
2575.000000	0.002641  
2574.000000	0.002547  
2573.000000	0.002526  
2572.000000	0.002609  
2571.000000	0.002737  
2570.000000	0.002808  
2569.000000	0.002764  
2568.000000	0.002631  
2567.000000	0.002481  
2566.000000	0.002371  
2565.000000	0.002320  
2564.000000	0.002306  
2563.000000	0.002296  
2562.000000	0.002275  
2561.000000	0.002253  
2560.000000	0.002242  
2559.000000	0.002247  
2558.000000	0.002273  
2557.000000	0.002346  
2556.000000	0.002482  
2555.000000	0.002635  
2554.000000	0.002715  
2553.000000	0.002687  
2552.000000	0.002634  
2551.000000	0.002694  
2550.000000	0.002903  
2549.000000	0.003149  
2548.000000	0.003282  
2547.000000	0.003228  
2546.000000	0.003002  
2545.000000	0.002650  
2544.000000	0.002261  
2543.000000	0.001976  
2542.000000	0.001895  
2541.000000	0.001970  
2540.000000	0.002059  
2539.000000	0.002110  
2538.000000	0.002217  
2537.000000	0.002434  
2536.000000	0.002643  
2535.000000	0.002664  
2534.000000	0.002474  
2533.000000	0.002232  
2532.000000	0.002096  
2531.000000	0.002069  
2530.000000	0.002038  
2529.000000	0.001922  
2528.000000	0.001754  
2527.000000	0.001652  
2526.000000	0.001709  
2525.000000	0.001911  
2524.000000	0.002162  
2523.000000	0.002366  
2522.000000	0.002478  
2521.000000	0.002465  
2520.000000	0.002306  
2519.000000	0.002072  
2518.000000	0.001939  
2517.000000	0.002047  
2516.000000	0.002338  
2515.000000	0.002602  
2514.000000	0.002686  
2513.000000	0.002611  
2512.000000	0.002493  
2511.000000	0.002407  
2510.000000	0.002360  
2509.000000	0.002334  
2508.000000	0.002332  
2507.000000	0.002369  
2506.000000	0.002443  
2505.000000	0.002506  
2504.000000	0.002488  
2503.000000	0.002363  
2502.000000	0.002200  
2501.000000	0.002106  
2500.000000	0.002120  
2499.000000	0.002175  
2498.000000	0.002157  
2497.000000	0.001980  
2496.000000	0.001639  
2495.000000	0.001240  
2494.000000	0.000973  
2493.000000	0.000990  
2492.000000	0.001281  
2491.000000	0.001685  
2490.000000	0.002038  
2489.000000	0.002269  
2488.000000	0.002381  
2487.000000	0.002375  
2486.000000	0.002247  
2485.000000	0.002016  
2484.000000	0.001755  
2483.000000	0.001585  
2482.000000	0.001626  
2481.000000	0.001915  
2480.000000	0.002352  
2479.000000	0.002744  
2478.000000	0.002932  
2477.000000	0.002867  
2476.000000	0.002606  
2475.000000	0.002266  
2474.000000	0.001977  
2473.000000	0.001822  
2472.000000	0.001793  
2471.000000	0.001801  
2470.000000	0.001759  
2469.000000	0.001666  
2468.000000	0.001605  
2467.000000	0.001678  
2466.000000	0.001907  
2465.000000	0.002190  
2464.000000	0.002367  
2463.000000	0.002372  
2462.000000	0.002277  
2461.000000	0.002175  
2460.000000	0.002078  
2459.000000	0.001980  
2458.000000	0.001953  
2457.000000	0.002063  
2456.000000	0.002225  
2455.000000	0.002237  
2454.000000	0.002026  
2453.000000	0.001738  
2452.000000	0.001551  
2451.000000	0.001476  
2450.000000	0.001412  
2449.000000	0.001339  
2448.000000	0.001343  
2447.000000	0.001487  
2446.000000	0.001730  
2445.000000	0.001976  
2444.000000	0.002154  
2443.000000	0.002249  
2442.000000	0.002288  
2441.000000	0.002311  
2440.000000	0.002319  
2439.000000	0.002272  
2438.000000	0.002168  
2437.000000	0.002078  
2436.000000	0.002061  
2435.000000	0.002064  
2434.000000	0.001977  
2433.000000	0.001786  
2432.000000	0.001599  
2431.000000	0.001512  
2430.000000	0.001513  
2429.000000	0.001540  
2428.000000	0.001583  
2427.000000	0.001675  
2426.000000	0.001811  
2425.000000	0.001928  
2424.000000	0.001972  
2423.000000	0.001948  
2422.000000	0.001900  
2421.000000	0.001864  
2420.000000	0.001855  
2419.000000	0.001875  
2418.000000	0.001919  
2417.000000	0.001977  
2416.000000	0.002043  
2415.000000	0.002124  
2414.000000	0.002227  
2413.000000	0.002335  
2412.000000	0.002407  
2411.000000	0.002429  
2410.000000	0.002429  
2409.000000	0.002442  
2408.000000	0.002457  
2407.000000	0.002412  
2406.000000	0.002252  
2405.000000	0.001992  
2404.000000	0.001716  
2403.000000	0.001523  
2402.000000	0.001439  
2401.000000	0.001410  
2400.000000	0.001378  
2399.000000	0.001371  
2398.000000	0.001469  
2397.000000	0.001688  
2396.000000	0.001926  
2395.000000	0.002078  
2394.000000	0.002155  
2393.000000	0.002259  
2392.000000	0.002444  
2391.000000	0.002662  
2390.000000	0.002843  
2389.000000	0.002990  
2388.000000	0.003193  
2387.000000	0.003566  
2386.000000	0.004165  
2385.000000	0.004919  
2384.000000	0.005602  
2383.000000	0.005929  
2382.000000	0.005731  
2381.000000	0.005061  
2380.000000	0.004145  
2379.000000	0.003221  
2378.000000	0.002425  
2377.000000	0.001790  
2376.000000	0.001361  
2375.000000	0.001277  
2374.000000	0.001690  
2373.000000	0.002583  
2372.000000	0.003694  
2371.000000	0.004650  
2370.000000	0.005192  
2369.000000	0.005240  
2368.000000	0.004884  
2367.000000	0.004388  
2366.000000	0.004077  
2365.000000	0.004069  
2364.000000	0.004135  
2363.000000	0.004026  
2362.000000	0.003746  
2361.000000	0.003585  
2360.000000	0.003983  
2359.000000	0.004899  
2358.000000	0.005657  
2357.000000	0.005551  
2356.000000	0.004634  
2355.000000	0.003659  
2354.000000	0.003057  
2353.000000	0.002860  
2352.000000	0.003021  
2351.000000	0.003470  
2350.000000	0.004032  
2349.000000	0.004306  
2348.000000	0.004145  
2347.000000	0.003710  
2346.000000	0.003589  
2345.000000	0.004238  
2344.000000	0.005234  
2343.000000	0.005746  
2342.000000	0.005159  
2341.000000	0.003951  
2340.000000	0.003129  
2339.000000	0.003017  
2338.000000	0.003014  
2337.000000	0.002586  
2336.000000	0.001974  
2335.000000	0.001720  
2334.000000	0.001852  
2333.000000	0.002105  
2332.000000	0.002417  
2331.000000	0.002955  
2330.000000	0.003838  
2329.000000	0.004808  
2328.000000	0.005737  
2327.000000	0.006482  
2326.000000	0.006921  
2325.000000	0.006950  
2324.000000	0.006501  
2323.000000	0.005770  
2322.000000	0.004969  
2321.000000	0.004503  
2320.000000	0.004637  
2319.000000	0.005304  
2318.000000	0.006024  
2317.000000	0.006272  
2316.000000	0.005940  
2315.000000	0.005359  
2314.000000	0.005040  
2313.000000	0.005208  
2312.000000	0.005721  
2311.000000	0.006237  
2310.000000	0.006570  
2309.000000	0.006742  
2308.000000	0.006831  
2307.000000	0.006816  
2306.000000	0.006639  
2305.000000	0.006371  
2304.000000	0.006167  
2303.000000	0.006115  
2302.000000	0.006123  
2301.000000	0.006039  
2300.000000	0.005820  
2299.000000	0.005576  
2298.000000	0.005472  
2297.000000	0.005534  
2296.000000	0.005616  
2295.000000	0.005511  
2294.000000	0.005174  
2293.000000	0.004756  
2292.000000	0.004425  
2291.000000	0.004191  
2290.000000	0.003955  
2289.000000	0.003683  
2288.000000	0.003407  
2287.000000	0.003116  
2286.000000	0.002748  
2285.000000	0.002351  
2284.000000	0.002102  
2283.000000	0.002119  
2282.000000	0.002298  
2281.000000	0.002439  
2280.000000	0.002469  
2279.000000	0.002468  
2278.000000	0.002478  
2277.000000	0.002450  
2276.000000	0.002399  
2275.000000	0.002503  
2274.000000	0.002929  
2273.000000	0.003582  
2272.000000	0.004135  
2271.000000	0.004331  
2270.000000	0.004196  
2269.000000	0.003914  
2268.000000	0.003565  
2267.000000	0.003099  
2266.000000	0.002547  
2265.000000	0.002115  
2264.000000	0.001999  
2263.000000	0.002166  
2262.000000	0.002421  
2261.000000	0.002632  
2260.000000	0.002772  
2259.000000	0.002836  
2258.000000	0.002829  
2257.000000	0.002856  
2256.000000	0.003051  
2255.000000	0.003378  
2254.000000	0.003608  
2253.000000	0.003565  
2252.000000	0.003309  
2251.000000	0.003015  
2250.000000	0.002770  
2249.000000	0.002550  
2248.000000	0.002304  
2247.000000	0.001980  
2246.000000	0.001567  
2245.000000	0.001180  
2244.000000	0.001042  
2243.000000	0.001270  
2242.000000	0.001714  
2241.000000	0.002100  
2240.000000	0.002296  
2239.000000	0.002350  
2238.000000	0.002313  
2237.000000	0.002168  
2236.000000	0.001945  
2235.000000	0.001777  
2234.000000	0.001794  
2233.000000	0.002005  
2232.000000	0.002283  
2231.000000	0.002464  
2230.000000	0.002443  
2229.000000	0.002245  
2228.000000	0.002004  
2227.000000	0.001822  
2226.000000	0.001669  
2225.000000	0.001449  
2224.000000	0.001140  
2223.000000	0.000817  
2222.000000	0.000600  
2221.000000	0.000610  
2220.000000	0.000909  
2219.000000	0.001394  
2218.000000	0.001810  
2217.000000	0.002000  
2216.000000	0.002116  
2215.000000	0.002412  
2214.000000	0.002845  
2213.000000	0.003060  
2212.000000	0.002855  
2211.000000	0.002453  
2210.000000	0.002193  
2209.000000	0.002082  
2208.000000	0.001853  
2207.000000	0.001405  
2206.000000	0.001001  
2205.000000	0.000997  
2204.000000	0.001478  
2203.000000	0.002216  
2202.000000	0.002908  
2201.000000	0.003398  
2200.000000	0.003714  
2199.000000	0.003944  
2198.000000	0.004095  
2197.000000	0.004075  
2196.000000	0.003817  
2195.000000	0.003379  
2194.000000	0.002917  
2193.000000	0.002549  
2192.000000	0.002259  
2191.000000	0.001927  
2190.000000	0.001490  
2189.000000	0.001101  
2188.000000	0.001049  
2187.000000	0.001458  
2186.000000	0.002058  
2185.000000	0.002369  
2184.000000	0.002180  
2183.000000	0.001773  
2182.000000	0.001634  
2181.000000	0.001995  
2180.000000	0.002669  
2179.000000	0.003263  
2178.000000	0.003476  
2177.000000	0.003284  
2176.000000	0.002921  
2175.000000	0.002617  
2174.000000	0.002339  
2173.000000	0.001896  
2172.000000	0.001318  
2171.000000	0.000953  
2170.000000	0.001045  
2169.000000	0.001353  
2168.000000	0.001412  
2167.000000	0.001164  
2166.000000	0.001068  
2165.000000	0.001485  
2164.000000	0.002151  
2163.000000	0.002459  
2162.000000	0.002152  
2161.000000	0.001560  
2160.000000	0.001207  
2159.000000	0.001297  
2158.000000	0.001633  
2157.000000	0.001905  
2156.000000	0.001938  
2155.000000	0.001760  
2154.000000	0.001549  
2153.000000	0.001498  
2152.000000	0.001634  
2151.000000	0.001764  
2150.000000	0.001660  
2149.000000	0.001320  
2148.000000	0.001015  
2147.000000	0.001025  
2146.000000	0.001368  
2145.000000	0.001825  
2144.000000	0.002186  
2143.000000	0.002391  
2142.000000	0.002427  
2141.000000	0.002236  
2140.000000	0.001814  
2139.000000	0.001356  
2138.000000	0.001190  
2137.000000	0.001485  
2136.000000	0.002047  
2135.000000	0.002435  
2134.000000	0.002342  
2133.000000	0.001879  
2132.000000	0.001473  
2131.000000	0.001467  
2130.000000	0.001817  
2129.000000	0.002212  
2128.000000	0.002424  
2127.000000	0.002465  
2126.000000	0.002403  
2125.000000	0.002203  
2124.000000	0.001840  
2123.000000	0.001495  
2122.000000	0.001456  
2121.000000	0.001800  
2120.000000	0.002279  
2119.000000	0.002557  
2118.000000	0.002510  
2117.000000	0.002285  
2116.000000	0.002148  
2115.000000	0.002250  
2114.000000	0.002490  
2113.000000	0.002581  
2112.000000	0.002344  
2111.000000	0.001948  
2110.000000	0.001772  
2109.000000	0.001972  
2108.000000	0.002294  
2107.000000	0.002378  
2106.000000	0.002149  
2105.000000	0.001824  
2104.000000	0.001610  
2103.000000	0.001539  
2102.000000	0.001544  
2101.000000	0.001549  
2100.000000	0.001464  
2099.000000	0.001231  
2098.000000	0.000926  
2097.000000	0.000719  
2096.000000	0.000687  
2095.000000	0.000733  
2094.000000	0.000747  
2093.000000	0.000767  
2092.000000	0.000901  
2091.000000	0.001135  
2090.000000	0.001311  
2089.000000	0.001317  
2088.000000	0.001253  
2087.000000	0.001339  
2086.000000	0.001666  
2085.000000	0.002065  
2084.000000	0.002241  
2083.000000	0.002052  
2082.000000	0.001631  
2081.000000	0.001269  
2080.000000	0.001194  
2079.000000	0.001436  
2078.000000	0.001817  
2077.000000	0.002067  
2076.000000	0.002021  
2075.000000	0.001801  
2074.000000	0.001723  
2073.000000	0.001966  
2072.000000	0.002360  
2071.000000	0.002581  
2070.000000	0.002511  
2069.000000	0.002283  
2068.000000	0.002029  
2067.000000	0.001758  
2066.000000	0.001513  
2065.000000	0.001461  
2064.000000	0.001701  
2063.000000	0.002099  
2062.000000	0.002401  
2061.000000	0.002445  
2060.000000	0.002207  
2059.000000	0.001760  
2058.000000	0.001292  
2057.000000	0.001068  
2056.000000	0.001185  
2055.000000	0.001419  
2054.000000	0.001458  
2053.000000	0.001267  
2052.000000	0.001085  
2051.000000	0.001101  
2050.000000	0.001317  
2049.000000	0.001731  
2048.000000	0.002376  
2047.000000	0.003072  
2046.000000	0.003347  
2045.000000	0.002885  
2044.000000	0.001954  
2043.000000	0.001146  
2042.000000	0.000766  
2041.000000	0.000670  
2040.000000	0.000680  
2039.000000	0.000873  
2038.000000	0.001338  
2037.000000	0.001880  
2036.000000	0.002187  
2035.000000	0.002241  
2034.000000	0.002331  
2033.000000	0.002641  
2032.000000	0.002968  
2031.000000	0.002924  
2030.000000	0.002316  
2029.000000	0.001322  
2028.000000	0.000363  
2027.000000	-0.000170 
2026.000000	-0.000166 
2025.000000	0.000139  
2024.000000	0.000374  
2023.000000	0.000403  
2022.000000	0.000448  
2021.000000	0.000768  
2020.000000	0.001273  
2019.000000	0.001579  
2018.000000	0.001438  
2017.000000	0.001000  
2016.000000	0.000618  
2015.000000	0.000499  
2014.000000	0.000673  
2013.000000	0.001112  
2012.000000	0.001662  
2011.000000	0.001948  
2010.000000	0.001611  
2009.000000	0.000734  
2008.000000	-0.000117 
2007.000000	-0.000428 
2006.000000	-0.000188 
2005.000000	0.000249  
2004.000000	0.000619  
2003.000000	0.000923  
2002.000000	0.001295  
2001.000000	0.001823  
2000.000000	0.002417  
1999.000000	0.002774  
1998.000000	0.002562  
1997.000000	0.001800  
1996.000000	0.000971  
1995.000000	0.000615  
1994.000000	0.000835  
1993.000000	0.001309  
1992.000000	0.001712  
1991.000000	0.001981  
1990.000000	0.002151  
1989.000000	0.002192  
1988.000000	0.002120  
1987.000000	0.002060  
1986.000000	0.002069  
1985.000000	0.002063  
1984.000000	0.002025  
1983.000000	0.002105  
1982.000000	0.002359  
1981.000000	0.002555  
1980.000000	0.002464  
1979.000000	0.002220  
1978.000000	0.002127  
1977.000000	0.002144  
1976.000000	0.001940  
1975.000000	0.001435  
1974.000000	0.000926  
1973.000000	0.000639  
1972.000000	0.000500  
1971.000000	0.000430  
1970.000000	0.000531  
1969.000000	0.000834  
1968.000000	0.001092  
1967.000000	0.001090  
1966.000000	0.000984  
1965.000000	0.001085  
1964.000000	0.001437  
1963.000000	0.001796  
1962.000000	0.001941  
1961.000000	0.001843  
1960.000000	0.001629  
1959.000000	0.001472  
1958.000000	0.001486  
1957.000000	0.001602  
1956.000000	0.001590  
1955.000000	0.001321  
1954.000000	0.000953  
1953.000000	0.000783  
1952.000000	0.000958  
1951.000000	0.001392  
1950.000000	0.001888  
1949.000000	0.002220  
1948.000000	0.002217  
1947.000000	0.001909  
1946.000000	0.001580  
1945.000000	0.001517  
1944.000000	0.001707  
1943.000000	0.001869  
1942.000000	0.001813  
1941.000000	0.001629  
1940.000000	0.001462  
1939.000000	0.001330  
1938.000000	0.001236  
1937.000000	0.001270  
1936.000000	0.001492  
1935.000000	0.001826  
1934.000000	0.002130  
1933.000000	0.002330  
1932.000000	0.002436  
1931.000000	0.002463  
1930.000000	0.002412  
1929.000000	0.002298  
1928.000000	0.002141  
1927.000000	0.001934  
1926.000000	0.001685  
1925.000000	0.001472  
1924.000000	0.001395  
1923.000000	0.001484  
1922.000000	0.001693  
1921.000000	0.001964  
1920.000000	0.002248  
1919.000000	0.002455  
1918.000000	0.002511  
1917.000000	0.002484  
1916.000000	0.002504  
1915.000000	0.002546  
1914.000000	0.002444  
1913.000000	0.002118  
1912.000000	0.001727  
1911.000000	0.001512  
1910.000000	0.001553  
1909.000000	0.001725  
1908.000000	0.001868  
1907.000000	0.001911  
1906.000000	0.001844  
1905.000000	0.001708  
1904.000000	0.001593  
1903.000000	0.001587  
1902.000000	0.001699  
1901.000000	0.001852  
1900.000000	0.001969  
1899.000000	0.002014  
1898.000000	0.001983  
1897.000000	0.001890  
1896.000000	0.001799  
1895.000000	0.001793  
1894.000000	0.001904  
1893.000000	0.002087  
1892.000000	0.002267  
1891.000000	0.002392  
1890.000000	0.002431  
1889.000000	0.002389  
1888.000000	0.002294  
1887.000000	0.002169  
1886.000000	0.002037  
1885.000000	0.001960  
1884.000000	0.001988  
1883.000000	0.002079  
1882.000000	0.002112  
1881.000000	0.002029  
1880.000000	0.001905  
1879.000000	0.001832  
1878.000000	0.001813  
1877.000000	0.001819  
1876.000000	0.001885  
1875.000000	0.002069  
1874.000000	0.002321  
1873.000000	0.002496  
1872.000000	0.002505  
1871.000000	0.002377  
1870.000000	0.002166  
1869.000000	0.001911  
1868.000000	0.001711  
1867.000000	0.001680  
1866.000000	0.001800  
1865.000000	0.001952  
1864.000000	0.002052  
1863.000000	0.002110  
1862.000000	0.002149  
1861.000000	0.002150  
1860.000000	0.002099  
1859.000000	0.002063  
1858.000000	0.002118  
1857.000000	0.002252  
1856.000000	0.002360  
1855.000000	0.002344  
1854.000000	0.002195  
1853.000000	0.002006  
1852.000000	0.001902  
1851.000000	0.001931  
1850.000000	0.002001  
1849.000000	0.001960  
1848.000000	0.001780  
1847.000000	0.001622  
1846.000000	0.001680  
1845.000000	0.001961  
1844.000000	0.002244  
1843.000000	0.002324  
1842.000000	0.002218  
1841.000000	0.002059  
1840.000000	0.001936  
1839.000000	0.001884  
1838.000000	0.001911  
1837.000000	0.001990  
1836.000000	0.002055  
1835.000000	0.002058  
1834.000000	0.002005  
1833.000000	0.001912  
1832.000000	0.001771  
1831.000000	0.001600  
1830.000000	0.001501  
1829.000000	0.001582  
1828.000000	0.001806  
1827.000000	0.002041  
1826.000000	0.002176  
1825.000000	0.002166  
1824.000000	0.002081  
1823.000000	0.002054  
1822.000000	0.002127  
1821.000000	0.002194  
1820.000000	0.002118  
1819.000000	0.001902  
1818.000000	0.001719  
1817.000000	0.001717  
1816.000000	0.001858  
1815.000000	0.001998  
1814.000000	0.002042  
1813.000000	0.001996  
1812.000000	0.001929  
1811.000000	0.001932  
1810.000000	0.002058  
1809.000000	0.002266  
1808.000000	0.002460  
1807.000000	0.002553  
1806.000000	0.002513  
1805.000000	0.002378  
1804.000000	0.002247  
1803.000000	0.002222  
1802.000000	0.002328  
1801.000000	0.002489  
1800.000000	0.002626  
1799.000000	0.002724  
1798.000000	0.002776  
1797.000000	0.002758  
1796.000000	0.002685  
1795.000000	0.002606  
1794.000000	0.002555  
1793.000000	0.002512  
1792.000000	0.002457  
1791.000000	0.002416  
1790.000000	0.002407  
1789.000000	0.002404  
1788.000000	0.002389  
1787.000000	0.002379  
1786.000000	0.002400  
1785.000000	0.002448  
1784.000000	0.002481  
1783.000000	0.002474  
1782.000000	0.002460  
1781.000000	0.002502  
1780.000000	0.002645  
1779.000000	0.002851  
1778.000000	0.003022  
1777.000000	0.003086  
1776.000000	0.003052  
1775.000000	0.002980  
1774.000000	0.002920  
1773.000000	0.002865  
1772.000000	0.002784  
1771.000000	0.002711  
1770.000000	0.002727  
1769.000000	0.002857  
1768.000000	0.003018  
1767.000000	0.003111  
1766.000000	0.003147  
1765.000000	0.003225  
1764.000000	0.003411  
1763.000000	0.003679  
1762.000000	0.003953  
1761.000000	0.004189  
1760.000000	0.004396  
1759.000000	0.004602  
1758.000000	0.004860  
1757.000000	0.005211  
1756.000000	0.005634  
1755.000000	0.006088  
1754.000000	0.006642  
1753.000000	0.007471  
1752.000000	0.008711  
1751.000000	0.010317  
1750.000000	0.012231  
1749.000000	0.014584  
1748.000000	0.017441  
1747.000000	0.020626  
1746.000000	0.023952  
1745.000000	0.027287  
1744.000000	0.030297  
1743.000000	0.032454  
1742.000000	0.033429  
1741.000000	0.033136  
1740.000000	0.031555  
1739.000000	0.029050  
1738.000000	0.026391  
1737.000000	0.023967  
1736.000000	0.021505  
1735.000000	0.018476  
1734.000000	0.015129  
1733.000000	0.012471  
1732.000000	0.010724  
1731.000000	0.009455  
1730.000000	0.008446  
1729.000000	0.007687  
1728.000000	0.007141  
1727.000000	0.006721  
1726.000000	0.006368  
1725.000000	0.006057  
1724.000000	0.005752  
1723.000000	0.005432  
1722.000000	0.005129  
1721.000000	0.004888  
1720.000000	0.004716  
1719.000000	0.004598  
1718.000000	0.004492  
1717.000000	0.004287  
1716.000000	0.004009  
1715.000000	0.003828  
1714.000000	0.003799  
1713.000000	0.003841  
1712.000000	0.003848  
1711.000000	0.003779  
1710.000000	0.003662  
1709.000000	0.003526  
1708.000000	0.003387  
1707.000000	0.003288  
1706.000000	0.003277  
1705.000000	0.003335  
1704.000000	0.003457  
1703.000000	0.003693  
1702.000000	0.004045  
1701.000000	0.004247  
1700.000000	0.004044  
1699.000000	0.003687  
1698.000000	0.003501  
1697.000000	0.003486  
1696.000000	0.003517  
1695.000000	0.003540  
1694.000000	0.003514  
1693.000000	0.003427  
1692.000000	0.003322  
1691.000000	0.003242  
1690.000000	0.003211  
1689.000000	0.003207  
1688.000000	0.003204  
1687.000000	0.003200  
1686.000000	0.003204  
1685.000000	0.003187  
1684.000000	0.003154  
1683.000000	0.003174  
1682.000000	0.003236  
1681.000000	0.003294  
1680.000000	0.003309  
1679.000000	0.003284  
1678.000000	0.003231  
1677.000000	0.003160  
1676.000000	0.003063  
1675.000000	0.002988  
1674.000000	0.003002  
1673.000000	0.003102  
1672.000000	0.003249  
1671.000000	0.003398  
1670.000000	0.003497  
1669.000000	0.003535  
1668.000000	0.003529  
1667.000000	0.003499  
1666.000000	0.003497  
1665.000000	0.003572  
1664.000000	0.003709  
1663.000000	0.003838  
1662.000000	0.003905  
1661.000000	0.003935  
1660.000000	0.003973  
1659.000000	0.004017  
1658.000000	0.004002  
1657.000000	0.003937  
1656.000000	0.003869  
1655.000000	0.003873  
1654.000000	0.003899  
1653.000000	0.003963  
1652.000000	0.004089  
1651.000000	0.004095  
1650.000000	0.004058  
1649.000000	0.004101  
1648.000000	0.004223  
1647.000000	0.004282  
1646.000000	0.004216  
1645.000000	0.004072  
1644.000000	0.003905  
1643.000000	0.003791  
1642.000000	0.003810  
1641.000000	0.003909  
1640.000000	0.003988  
1639.000000	0.004000  
1638.000000	0.003993  
1637.000000	0.004001  
1636.000000	0.003985  
1635.000000	0.003922  
1634.000000	0.003847  
1633.000000	0.003791  
1632.000000	0.003760  
1631.000000	0.003742  
1630.000000	0.003713  
1629.000000	0.003683  
1628.000000	0.003674  
1627.000000	0.003692  
1626.000000	0.003737  
1625.000000	0.003800  
1624.000000	0.003843  
1623.000000	0.003824  
1622.000000	0.003782  
1621.000000	0.003799  
1620.000000	0.003900  
1619.000000	0.004048  
1618.000000	0.004165  
1617.000000	0.004212  
1616.000000	0.004239  
1615.000000	0.004283  
1614.000000	0.004350  
1613.000000	0.004453  
1612.000000	0.004574  
1611.000000	0.004668  
1610.000000	0.004719  
1609.000000	0.004755  
1608.000000	0.004772  
1607.000000	0.004721  
1606.000000	0.004603  
1605.000000	0.004487  
1604.000000	0.004425  
1603.000000	0.004397  
1602.000000	0.004367  
1601.000000	0.004323  
1600.000000	0.004253  
1599.000000	0.004130  
1598.000000	0.003978  
1597.000000	0.003874  
1596.000000	0.003866  
1595.000000	0.003916  
1594.000000	0.003961  
1593.000000	0.003996  
1592.000000	0.004062  
1591.000000	0.004164  
1590.000000	0.004265  
1589.000000	0.004332  
1588.000000	0.004355  
1587.000000	0.004323  
1586.000000	0.004249  
1585.000000	0.004167  
1584.000000	0.004106  
1583.000000	0.004071  
1582.000000	0.004058  
1581.000000	0.004073  
1580.000000	0.004131  
1579.000000	0.004229  
1578.000000	0.004322  
1577.000000	0.004334  
1576.000000	0.004245  
1575.000000	0.004133  
1574.000000	0.004100  
1573.000000	0.004193  
1572.000000	0.004354  
1571.000000	0.004451  
1570.000000	0.004394  
1569.000000	0.004282  
1568.000000	0.004229  
1567.000000	0.004203  
1566.000000	0.004135  
1565.000000	0.004026  
1564.000000	0.003869  
1563.000000	0.003697  
1562.000000	0.003529  
1561.000000	0.003418  
1560.000000	0.003432  
1559.000000	0.003501  
1558.000000	0.003540  
1557.000000	0.003679  
1556.000000	0.003918  
1555.000000	0.004113  
1554.000000	0.004284  
1553.000000	0.004332  
1552.000000	0.004261  
1551.000000	0.004071  
1550.000000	0.003866  
1549.000000	0.003759  
1548.000000	0.003775  
1547.000000	0.003856  
1546.000000	0.003963  
1545.000000	0.004048  
1544.000000	0.004062  
1543.000000	0.004029  
1542.000000	0.004057  
1541.000000	0.004118  
1540.000000	0.004063  
1539.000000	0.003969  
1538.000000	0.003974  
1537.000000	0.004058  
1536.000000	0.004164  
1535.000000	0.004243  
1534.000000	0.004214  
1533.000000	0.004091  
1532.000000	0.003979  
1531.000000	0.003939  
1530.000000	0.003934  
1529.000000	0.003940  
1528.000000	0.003972  
1527.000000	0.004072  
1526.000000	0.004258  
1525.000000	0.004465  
1524.000000	0.004612  
1523.000000	0.004706  
1522.000000	0.004800  
1521.000000	0.004900  
1520.000000	0.004959  
1519.000000	0.004963  
1518.000000	0.004970  
1517.000000	0.005018  
1516.000000	0.005104  
1515.000000	0.005256  
1514.000000	0.005504  
1513.000000	0.005800  
1512.000000	0.005993  
1511.000000	0.006015  
1510.000000	0.005990  
1509.000000	0.006134  
1508.000000	0.006507  
1507.000000	0.006951  
1506.000000	0.007405  
1505.000000	0.007782  
1504.000000	0.007914  
1503.000000	0.007868  
1502.000000	0.007816  
1501.000000	0.007777  
1500.000000	0.007717  
1499.000000	0.007688  
1498.000000	0.007938  
1497.000000	0.008520  
1496.000000	0.009061  
1495.000000	0.009317  
1494.000000	0.009479  
1493.000000	0.009712  
1492.000000	0.009906  
1491.000000	0.009914  
1490.000000	0.009881  
1489.000000	0.010044  
1488.000000	0.010380  
1487.000000	0.010769  
1486.000000	0.011208  
1485.000000	0.011731  
1484.000000	0.012307  
1483.000000	0.012951  
1482.000000	0.013784  
1481.000000	0.014827  
1480.000000	0.015916  
1479.000000	0.017001  
1478.000000	0.018310  
1477.000000	0.020047  
1476.000000	0.022130  
1475.000000	0.024600  
1474.000000	0.028180  
1473.000000	0.033680  
1472.000000	0.040566  
1471.000000	0.047485  
1470.000000	0.053933  
1469.000000	0.059924  
1468.000000	0.065239  
1467.000000	0.069672  
1466.000000	0.073349  
1465.000000	0.076397  
1464.000000	0.078642  
1463.000000	0.080090  
1462.000000	0.081095  
1461.000000	0.081937  
1460.000000	0.082724  
1459.000000	0.083584  
1458.000000	0.084540  
1457.000000	0.084778  
1456.000000	0.083481  
1455.000000	0.081214  
1454.000000	0.078730  
1453.000000	0.076092  
1452.000000	0.073275  
1451.000000	0.070490  
1450.000000	0.067932  
1449.000000	0.065388  
1448.000000	0.062580  
1447.000000	0.059619  
1446.000000	0.056723  
1445.000000	0.053780  
1444.000000	0.050616  
1443.000000	0.047298  
1442.000000	0.044064  
1441.000000	0.041106  
1440.000000	0.038473  
1439.000000	0.036038  
1438.000000	0.033515  
1437.000000	0.030764  
1436.000000	0.028190  
1435.000000	0.026228  
1434.000000	0.024672  
1433.000000	0.023098  
1432.000000	0.021361  
1431.000000	0.019602  
1430.000000	0.018017  
1429.000000	0.016704  
1428.000000	0.015701  
1427.000000	0.014978  
1426.000000	0.014404  
1425.000000	0.013850  
1424.000000	0.013322  
1423.000000	0.012905  
1422.000000	0.012595  
1421.000000	0.012285  
1420.000000	0.011906  
1419.000000	0.011514  
1418.000000	0.011203  
1417.000000	0.010973  
1416.000000	0.010782  
1415.000000	0.010611  
1414.000000	0.010433  
1413.000000	0.010221  
1412.000000	0.009980  
1411.000000	0.009727  
1410.000000	0.009490  
1409.000000	0.009316  
1408.000000	0.009265  
1407.000000	0.009350  
1406.000000	0.009496  
1405.000000	0.009617  
1404.000000	0.009717  
1403.000000	0.009852  
1402.000000	0.010015  
1401.000000	0.010165  
1400.000000	0.010306  
1399.000000	0.010450  
1398.000000	0.010585  
1397.000000	0.010725  
1396.000000	0.010933  
1395.000000	0.011264  
1394.000000	0.011704  
1393.000000	0.012213  
1392.000000	0.012786  
1391.000000	0.013466  
1390.000000	0.014329  
1389.000000	0.015534  
1388.000000	0.017294  
1387.000000	0.019623  
1386.000000	0.022236  
1385.000000	0.024906  
1384.000000	0.027706  
1383.000000	0.030837  
1382.000000	0.034413  
1381.000000	0.038365  
1380.000000	0.042348  
1379.000000	0.045654  
1378.000000	0.047504  
1377.000000	0.047539  
1376.000000	0.045852  
1375.000000	0.042769  
1374.000000	0.038922  
1373.000000	0.035188  
1372.000000	0.032145  
1371.000000	0.029877  
1370.000000	0.028313  
1369.000000	0.027418  
1368.000000	0.027027  
1367.000000	0.026756  
1366.000000	0.026189  
1365.000000	0.025099  
1364.000000	0.023506  
1363.000000	0.021665  
1362.000000	0.019970  
1361.000000	0.018710  
1360.000000	0.017899  
1359.000000	0.017379  
1358.000000	0.016996  
1357.000000	0.016697  
1356.000000	0.016507  
1355.000000	0.016442  
1354.000000	0.016440  
1353.000000	0.016411  
1352.000000	0.016326  
1351.000000	0.016213  
1350.000000	0.016087  
1349.000000	0.015935  
1348.000000	0.015747  
1347.000000	0.015518  
1346.000000	0.015258  
1345.000000	0.015009  
1344.000000	0.014833  
1343.000000	0.014740  
1342.000000	0.014675  
1341.000000	0.014574  
1340.000000	0.014418  
1339.000000	0.014211  
1338.000000	0.013948  
1337.000000	0.013623  
1336.000000	0.013262  
1335.000000	0.012913  
1334.000000	0.012599  
1333.000000	0.012318  
1332.000000	0.012082  
1331.000000	0.011913  
1330.000000	0.011799  
1329.000000	0.011708  
1328.000000	0.011625  
1327.000000	0.011558  
1326.000000	0.011513  
1325.000000	0.011494  
1324.000000	0.011512  
1323.000000	0.011571  
1322.000000	0.011653  
1321.000000	0.011731  
1320.000000	0.011796  
1319.000000	0.011854  
1318.000000	0.011907  
1317.000000	0.011955  
1316.000000	0.012006  
1315.000000	0.012078  
1314.000000	0.012186  
1313.000000	0.012328  
1312.000000	0.012483  
1311.000000	0.012636  
1310.000000	0.012789  
1309.000000	0.012957  
1308.000000	0.013143  
1307.000000	0.013319  
1306.000000	0.013441  
1305.000000	0.013483  
1304.000000	0.013453  
1303.000000	0.013374  
1302.000000	0.013273  
1301.000000	0.013182  
1300.000000	0.013121  
1299.000000	0.013074  
1298.000000	0.013000  
1297.000000	0.012875  
1296.000000	0.012716  
1295.000000	0.012543  
1294.000000	0.012350  
1293.000000	0.012124  
1292.000000	0.011890  
1291.000000	0.011702  
1290.000000	0.011600  
1289.000000	0.011581  
1288.000000	0.011616  
1287.000000	0.011686  
1286.000000	0.011787  
1285.000000	0.011913  
1284.000000	0.012043  
1283.000000	0.012147  
1282.000000	0.012213  
1281.000000	0.012252  
1280.000000	0.012284  
1279.000000	0.012321  
1278.000000	0.012364  
1277.000000	0.012424  
1276.000000	0.012513  
1275.000000	0.012633  
1274.000000	0.012763  
1273.000000	0.012883  
1272.000000	0.012982  
1271.000000	0.013056  
1270.000000	0.013106  
1269.000000	0.013142  
1268.000000	0.013174  
1267.000000	0.013184  
1266.000000	0.013136  
1265.000000	0.013018  
1264.000000	0.012876  
1263.000000	0.012785  
1262.000000	0.012802  
1261.000000	0.012922  
1260.000000	0.013082  
1259.000000	0.013203  
1258.000000	0.013241  
1257.000000	0.013209  
1256.000000	0.013144  
1255.000000	0.013086  
1254.000000	0.013076  
1253.000000	0.013164  
1252.000000	0.013361  
1251.000000	0.013602  
1250.000000	0.013801  
1249.000000	0.013939  
1248.000000	0.014077  
1247.000000	0.014264  
1246.000000	0.014472  
1245.000000	0.014632  
1244.000000	0.014703  
1243.000000	0.014690  
1242.000000	0.014620  
1241.000000	0.014525  
1240.000000	0.014420  
1239.000000	0.014294  
1238.000000	0.014119  
1237.000000	0.013895  
1236.000000	0.013675  
1235.000000	0.013505  
1234.000000	0.013369  
1233.000000	0.013205  
1232.000000	0.012981  
1231.000000	0.012724  
1230.000000	0.012473  
1229.000000	0.012248  
1228.000000	0.012069  
1227.000000	0.011961  
1226.000000	0.011916  
1225.000000	0.011884  
1224.000000	0.011823  
1223.000000	0.011748  
1222.000000	0.011700  
1221.000000	0.011673  
1220.000000	0.011631  
1219.000000	0.011571  
1218.000000	0.011553  
1217.000000	0.011621  
1216.000000	0.011750  
1215.000000	0.011862  
1214.000000	0.011903  
1213.000000	0.011879  
1212.000000	0.011850  
1211.000000	0.011894  
1210.000000	0.012034  
1209.000000	0.012205  
1208.000000	0.012294  
1207.000000	0.012272  
1206.000000	0.012238  
1205.000000	0.012306  
1204.000000	0.012475  
1203.000000	0.012650  
1202.000000	0.012779  
1201.000000	0.012909  
1200.000000	0.013107  
1199.000000	0.013378  
1198.000000	0.013693  
1197.000000	0.014031  
1196.000000	0.014373  
1195.000000	0.014700  
1194.000000	0.015025  
1193.000000	0.015402  
1192.000000	0.015845  
1191.000000	0.016278  
1190.000000	0.016619  
1189.000000	0.016883  
1188.000000	0.017161  
1187.000000	0.017508  
1186.000000	0.017906  
1185.000000	0.018327  
1184.000000	0.018767  
1183.000000	0.019232  
1182.000000	0.019715  
1181.000000	0.020198  
1180.000000	0.020648  
1179.000000	0.021022  
1178.000000	0.021304  
1177.000000	0.021537  
1176.000000	0.021779  
1175.000000	0.022029  
1174.000000	0.022233  
1173.000000	0.022346  
1172.000000	0.022369  
1171.000000	0.022311  
1170.000000	0.022174  
1169.000000	0.021963  
1168.000000	0.021696  
1167.000000	0.021390  
1166.000000	0.021062  
1165.000000	0.020719  
1164.000000	0.020336  
1163.000000	0.019865  
1162.000000	0.019309  
1161.000000	0.018766  
1160.000000	0.018353  
1159.000000	0.018072  
1158.000000	0.017809  
1157.000000	0.017473  
1156.000000	0.017071  
1155.000000	0.016652  
1154.000000	0.016227  
1153.000000	0.015789  
1152.000000	0.015371  
1151.000000	0.015026  
1150.000000	0.014771  
1149.000000	0.014589  
1148.000000	0.014447  
1147.000000	0.014309  
1146.000000	0.014130  
1145.000000	0.013883  
1144.000000	0.013585  
1143.000000	0.013272  
1142.000000	0.012952  
1141.000000	0.012607  
1140.000000	0.012230  
1139.000000	0.011849  
1138.000000	0.011527  
1137.000000	0.011332  
1136.000000	0.011266  
1135.000000	0.011234  
1134.000000	0.011112  
1133.000000	0.010877  
1132.000000	0.010632  
1131.000000	0.010483  
1130.000000	0.010447  
1129.000000	0.010482  
1128.000000	0.010563  
1127.000000	0.010676  
1126.000000	0.010782  
1125.000000	0.010856  
1124.000000	0.010925  
1123.000000	0.011034  
1122.000000	0.011172  
1121.000000	0.011286  
1120.000000	0.011346  
1119.000000	0.011352  
1118.000000	0.011300  
1117.000000	0.011197  
1116.000000	0.011085  
1115.000000	0.011005  
1114.000000	0.010929  
1113.000000	0.010790  
1112.000000	0.010581  
1111.000000	0.010370  
1110.000000	0.010213  
1109.000000	0.010103  
1108.000000	0.010023  
1107.000000	0.009997  
1106.000000	0.010050  
1105.000000	0.010146  
1104.000000	0.010211  
1103.000000	0.010204  
1102.000000	0.010163  
1101.000000	0.010162  
1100.000000	0.010241  
1099.000000	0.010380  
1098.000000	0.010514  
1097.000000	0.010604  
1096.000000	0.010675  
1095.000000	0.010760  
1094.000000	0.010837  
1093.000000	0.010846  
1092.000000	0.010772  
1091.000000	0.010673  
1090.000000	0.010594  
1089.000000	0.010511  
1088.000000	0.010380  
1087.000000	0.010214  
1086.000000	0.010081  
1085.000000	0.010031  
1084.000000	0.010033  
1083.000000	0.010006  
1082.000000	0.009891  
1081.000000	0.009723  
1080.000000	0.009610  
1079.000000	0.009642  
1078.000000	0.009809  
1077.000000	0.010027  
1076.000000	0.010243  
1075.000000	0.010470  
1074.000000	0.010726  
1073.000000	0.010971  
1072.000000	0.011132  
1071.000000	0.011187  
1070.000000	0.011197  
1069.000000	0.011231  
1068.000000	0.011304  
1067.000000	0.011372  
1066.000000	0.011396  
1065.000000	0.011403  
1064.000000	0.011436  
1063.000000	0.011482  
1062.000000	0.011445  
1061.000000	0.011249  
1060.000000	0.010941  
1059.000000	0.010654  
1058.000000	0.010484  
1057.000000	0.010434  
1056.000000	0.010467  
1055.000000	0.010564  
1054.000000	0.010671  
1053.000000	0.010647  
1052.000000	0.010354  
1051.000000	0.009843  
1050.000000	0.009366  
1049.000000	0.009145  
1048.000000	0.009173  
1047.000000	0.009286  
1046.000000	0.009367  
1045.000000	0.009417  
1044.000000	0.009484  
1043.000000	0.009594  
1042.000000	0.009749  
1041.000000	0.009936  
1040.000000	0.010112  
1039.000000	0.010206  
1038.000000	0.010173  
1037.000000	0.010059  
1036.000000	0.009973  
1035.000000	0.010002  
1034.000000	0.010149  
1033.000000	0.010340  
1032.000000	0.010493  
1031.000000	0.010568  
1030.000000	0.010584  
1029.000000	0.010596  
1028.000000	0.010647  
1027.000000	0.010736  
1026.000000	0.010821  
1025.000000	0.010859  
1024.000000	0.010826  
1023.000000	0.010732  
1022.000000	0.010613  
1021.000000	0.010513  
1020.000000	0.010441  
1019.000000	0.010362  
1018.000000	0.010255  
1017.000000	0.010153  
1016.000000	0.010110  
1015.000000	0.010126  
1014.000000	0.010129  
1013.000000	0.010050  
1012.000000	0.009881  
1011.000000	0.009676  
1010.000000	0.009509  
1009.000000	0.009442  
1008.000000	0.009487  
1007.000000	0.009598  
1006.000000	0.009697  
1005.000000	0.009732  
1004.000000	0.009710  
1003.000000	0.009666  
1002.000000	0.009624  
1001.000000	0.009582  
1000.000000	0.009515  
999.000000	 0.009385  
998.000000	 0.009183  
997.000000	 0.008978  
996.000000	 0.008877  
995.000000	 0.008931  
994.000000	 0.009075  
993.000000	 0.009188  
992.000000	 0.009190  
991.000000	 0.009096  
990.000000	 0.008995  
989.000000	 0.008979  
988.000000	 0.009070  
987.000000	 0.009196  
986.000000	 0.009257  
985.000000	 0.009237  
984.000000	 0.009227  
983.000000	 0.009313  
982.000000	 0.009476  
981.000000	 0.009627  
980.000000	 0.009722  
979.000000	 0.009808  
978.000000	 0.009955  
977.000000	 0.010171  
976.000000	 0.010388  
975.000000	 0.010524  
974.000000	 0.010559  
973.000000	 0.010564  
972.000000	 0.010645  
971.000000	 0.010844  
970.000000	 0.011105  
969.000000	 0.011339  
968.000000	 0.011494  
967.000000	 0.011562  
966.000000	 0.011538  
965.000000	 0.011407  
964.000000	 0.011173  
963.000000	 0.010896  
962.000000	 0.010670  
961.000000	 0.010575  
960.000000	 0.010606  
959.000000	 0.010674  
958.000000	 0.010682  
957.000000	 0.010626  
956.000000	 0.010585  
955.000000	 0.010601  
954.000000	 0.010622  
953.000000	 0.010589  
952.000000	 0.010531  
951.000000	 0.010528  
950.000000	 0.010593  
949.000000	 0.010653  
948.000000	 0.010650  
947.000000	 0.010614  
946.000000	 0.010612  
945.000000	 0.010667  
944.000000	 0.010741  
943.000000	 0.010779  
942.000000	 0.010749  
941.000000	 0.010650  
940.000000	 0.010483  
939.000000	 0.010245  
938.000000	 0.009948  
937.000000	 0.009641  
936.000000	 0.009392  
935.000000	 0.009234  
934.000000	 0.009158  
933.000000	 0.009162  
932.000000	 0.009262  
931.000000	 0.009419  
930.000000	 0.009512  
929.000000	 0.009439  
928.000000	 0.009248  
927.000000	 0.009102  
926.000000	 0.009112  
925.000000	 0.009249  
924.000000	 0.009404  
923.000000	 0.009514  
922.000000	 0.009578  
921.000000	 0.009617  
920.000000	 0.009627  
919.000000	 0.009596  
918.000000	 0.009526  
917.000000	 0.009457  
916.000000	 0.009443  
915.000000	 0.009493  
914.000000	 0.009542  
913.000000	 0.009490  
912.000000	 0.009305  
911.000000	 0.009066  
910.000000	 0.008904  
909.000000	 0.008906  
908.000000	 0.009050  
907.000000	 0.009217  
906.000000	 0.009276  
905.000000	 0.009198  
904.000000	 0.009083  
903.000000	 0.009057  
902.000000	 0.009139  
901.000000	 0.009236  
900.000000	 0.009280  
899.000000	 0.009301  
898.000000	 0.009363  
897.000000	 0.009467  
896.000000	 0.009554  
895.000000	 0.009580  
894.000000	 0.009571  
893.000000	 0.009578  
892.000000	 0.009630  
891.000000	 0.009721  
890.000000	 0.009825  
889.000000	 0.009920  
888.000000	 0.009992  
887.000000	 0.010024  
886.000000	 0.010000  
885.000000	 0.009903  
884.000000	 0.009737  
883.000000	 0.009541  
882.000000	 0.009398  
881.000000	 0.009397  
880.000000	 0.009567  
879.000000	 0.009819  
878.000000	 0.010001  
877.000000	 0.010012  
876.000000	 0.009877  
875.000000	 0.009689  
874.000000	 0.009506  
873.000000	 0.009320  
872.000000	 0.009109  
871.000000	 0.008905  
870.000000	 0.008810  
869.000000	 0.008924  
868.000000	 0.009220  
867.000000	 0.009509  
866.000000	 0.009575  
865.000000	 0.009378  
864.000000	 0.009092  
863.000000	 0.008907  
862.000000	 0.008858  
861.000000	 0.008869  
860.000000	 0.008915  
859.000000	 0.009027  
858.000000	 0.009186  
857.000000	 0.009300  
856.000000	 0.009336  
855.000000	 0.009397  
854.000000	 0.009607  
853.000000	 0.009964  
852.000000	 0.010344  
851.000000	 0.010631  
850.000000	 0.010791  
849.000000	 0.010842  
848.000000	 0.010809  
847.000000	 0.010721  
846.000000	 0.010632  
845.000000	 0.010586  
844.000000	 0.010574  
843.000000	 0.010540  
842.000000	 0.010447  
841.000000	 0.010328  
840.000000	 0.010253  
839.000000	 0.010264  
838.000000	 0.010332  
837.000000	 0.010373  
836.000000	 0.010289  
835.000000	 0.010016  
834.000000	 0.009587  
833.000000	 0.009155  
832.000000	 0.008891  
831.000000	 0.008840  
830.000000	 0.008894  
829.000000	 0.008950  
828.000000	 0.009057  
827.000000	 0.009328  
826.000000	 0.009736  
825.000000	 0.010073  
824.000000	 0.010158  
823.000000	 0.010014  
822.000000	 0.009823  
821.000000	 0.009759  
820.000000	 0.009894  
819.000000	 0.010198  
818.000000	 0.010584  
817.000000	 0.010952  
816.000000	 0.011220  
815.000000	 0.011329  
814.000000	 0.011255  
813.000000	 0.011052  
812.000000	 0.010859  
811.000000	 0.010817  
810.000000	 0.010976  
809.000000	 0.011289  
808.000000	 0.011676  
807.000000	 0.012041  
806.000000	 0.012267  
805.000000	 0.012253  
804.000000	 0.011990  
803.000000	 0.011569  
802.000000	 0.011115  
801.000000	 0.010711  
800.000000	 0.010385  
799.000000	 0.010115  
798.000000	 0.009867  
797.000000	 0.009641  
796.000000	 0.009470  
795.000000	 0.009371  
794.000000	 0.009301  
793.000000	 0.009229  
792.000000	 0.009210  
791.000000	 0.009325  
790.000000	 0.009537  
789.000000	 0.009677  
788.000000	 0.009623  
787.000000	 0.009456  
786.000000	 0.009404  
785.000000	 0.009623  
784.000000	 0.010066  
783.000000	 0.010541  
782.000000	 0.010898  
781.000000	 0.011143  
780.000000	 0.011382  
779.000000	 0.011681  
778.000000	 0.012015  
777.000000	 0.012349  
776.000000	 0.012717  
775.000000	 0.013172  
774.000000	 0.013681  
773.000000	 0.014131  
772.000000	 0.014436  
771.000000	 0.014601  
770.000000	 0.014694  
769.000000	 0.014773  
768.000000	 0.014848  
767.000000	 0.014881  
766.000000	 0.014803  
765.000000	 0.014574  
764.000000	 0.014249  
763.000000	 0.013971  
762.000000	 0.013876  
761.000000	 0.013992  
760.000000	 0.014226  
759.000000	 0.014443  
758.000000	 0.014586  
757.000000	 0.014708  
756.000000	 0.014898  
755.000000	 0.015149  
754.000000	 0.015360  
753.000000	 0.015460  
752.000000	 0.015489  
751.000000	 0.015522  
750.000000	 0.015589  
749.000000	 0.015716  
748.000000	 0.016010  
747.000000	 0.016604  
746.000000	 0.017540  
745.000000	 0.018741  
744.000000	 0.020080  
743.000000	 0.021407  
742.000000	 0.022523  
741.000000	 0.023242  
740.000000	 0.023540  
739.000000	 0.023568  
738.000000	 0.023488  
737.000000	 0.023357  
736.000000	 0.023173  
735.000000	 0.022975  
734.000000	 0.022838  
733.000000	 0.022809  
732.000000	 0.022902  
731.000000	 0.023109  
730.000000	 0.023439  
729.000000	 0.023972  
728.000000	 0.024834  
727.000000	 0.026066  
726.000000	 0.027524  
725.000000	 0.028948  
724.000000	 0.030138  
723.000000	 0.031030  
722.000000	 0.031534  
721.000000	 0.031364  
720.000000	 0.030199  
719.000000	 0.028126  
718.000000	 0.025721  
717.000000	 0.023614  
716.000000	 0.022103  
715.000000	 0.021083  
714.000000	 0.020227  
713.000000	 0.019300  
712.000000	 0.018327  
711.000000	 0.017484  
710.000000	 0.016898  
709.000000	 0.016571  
708.000000	 0.016448  
707.000000	 0.016477  
706.000000	 0.016657  
705.000000	 0.017002  
704.000000	 0.017439  
703.000000	 0.017788  
702.000000	 0.017888  
701.000000	 0.017749  
700.000000	 0.017567  
699.000000	 0.017466  
698.000000	 0.017319  
697.000000	 0.016896  
696.000000	 0.016182  
695.000000	 0.015492  
694.000000	 0.015114  
693.000000	 0.014915  
692.000000	 0.014464  
691.000000	 0.013507  
690.000000	 0.012299  
689.000000	 0.011324  
688.000000	 0.010731  
687.000000	 0.010224  
686.000000	 0.009533  
685.000000	 0.008801  
684.000000	 0.008391  
683.000000	 0.008426  
682.000000	 0.008692  
681.000000	 0.008907  
680.000000	 0.008933  
679.000000	 0.008754  
678.000000	 0.008493  
677.000000	 0.008442  
676.000000	 0.008629  
675.000000	 0.008775  
674.000000	 0.008699  
673.000000	 0.008421  
672.000000	 0.007622  
671.000000	 0.005158  
670.000000	 -0.000101 
669.000000	 -0.008344 
668.000000	 -0.015155 
667.000000	 -0.012625 
666.000000	 -0.004333 
665.000000	 0.002245  
664.000000	 0.005877  
663.000000	 0.007639  
662.000000	 0.008358  
661.000000	 0.008273  
660.000000	 0.007732  
659.000000	 0.007370  
658.000000	 0.007426  
657.000000	 0.007440  
656.000000	 0.006737  
655.000000	 0.005394  
654.000000	 0.004288  
653.000000	 0.004137  
652.000000	 0.004778  
651.000000	 0.005498  
650.000000	 0.005830  

