PE IR                   SPECTRUM    ASCII       PEDS        1.60        
  -1
NB4-17~2.ASC
17/04/10
13:41:49.00
17/04/10
13:41:49.00
Admin

650.000000
6









SPECTRUM ONE,CPU32 MAIN 00.02.5000 17-APRIL-2002 13:00:00
MIR TGS
MIR
OPTKBR
68128
0.200000

4.000000
STRONG
RATIO
SPECTRUM
MAGNITUDE

DOUBLE

COMBINED


0


#HDR
-1
-1
#GR
CM-1
A
0.00000011920928955078
0.0
4000.000000
-1.000000
3351
8
0.211659
-0.018419
#DATA
4000.000000	0.001808  
3999.000000	0.001816  
3998.000000	0.001933  
3997.000000	0.002165  
3996.000000	0.002454  
3995.000000	0.002452  
3994.000000	0.002588  
3993.000000	0.002605  
3992.000000	0.002519  
3991.000000	0.002364  
3990.000000	0.002180  
3989.000000	0.002003  
3988.000000	0.001851  
3987.000000	0.001737  
3986.000000	0.001681  
3985.000000	0.001702  
3984.000000	0.001770  
3983.000000	0.001809  
3982.000000	0.001747  
3981.000000	0.001592  
3980.000000	0.001438  
3979.000000	0.001392  
3978.000000	0.001487  
3977.000000	0.001676  
3976.000000	0.001889  
3975.000000	0.002079  
3974.000000	0.002224  
3973.000000	0.002294  
3972.000000	0.002268  
3971.000000	0.002166  
3970.000000	0.002049  
3969.000000	0.001963  
3968.000000	0.001899  
3967.000000	0.001824  
3966.000000	0.001744  
3965.000000	0.001719  
3964.000000	0.001799  
3963.000000	0.001965  
3962.000000	0.002127  
3961.000000	0.002209  
3960.000000	0.002196  
3959.000000	0.002124  
3958.000000	0.002025  
3957.000000	0.001909  
3956.000000	0.001786  
3955.000000	0.001682  
3954.000000	0.001628  
3953.000000	0.001629  
3952.000000	0.001665  
3951.000000	0.001709  
3950.000000	0.001760  
3949.000000	0.001843  
3948.000000	0.001973  
3947.000000	0.002124  
3946.000000	0.002239  
3945.000000	0.002270  
3944.000000	0.002208  
3943.000000	0.002097  
3942.000000	0.001987  
3941.000000	0.001902  
3940.000000	0.001856  
3939.000000	0.001868  
3938.000000	0.001953  
3937.000000	0.002090  
3936.000000	0.002215  
3935.000000	0.002277  
3934.000000	0.002277  
3933.000000	0.002274  
3932.000000	0.002320  
3931.000000	0.002404  
3930.000000	0.002471  
3929.000000	0.002483  
3928.000000	0.002452  
3927.000000	0.002429  
3926.000000	0.002455  
3925.000000	0.002521  
3924.000000	0.002585  
3923.000000	0.002621  
3922.000000	0.002643  
3921.000000	0.002672  
3920.000000	0.002696  
3919.000000	0.002679  
3918.000000	0.002598  
3917.000000	0.002484  
3916.000000	0.002388  
3915.000000	0.002339  
3914.000000	0.002316  
3913.000000	0.002270  
3912.000000	0.002172  
3911.000000	0.002040  
3910.000000	0.001944  
3909.000000	0.001960  
3908.000000	0.002114  
3907.000000	0.002366  
3906.000000	0.002638  
3905.000000	0.002869  
3904.000000	0.003033  
3903.000000	0.003098  
3902.000000	0.003026  
3901.000000	0.002830  
3900.000000	0.002609  
3899.000000	0.002480  
3898.000000	0.002479  
3897.000000	0.002536  
3896.000000	0.002559  
3895.000000	0.002490  
3894.000000	0.002345  
3893.000000	0.002199  
3892.000000	0.002134  
3891.000000	0.002164  
3890.000000	0.002240  
3889.000000	0.002320  
3888.000000	0.002377  
3887.000000	0.002396  
3886.000000	0.002391  
3885.000000	0.002387  
3884.000000	0.002389  
3883.000000	0.002378  
3882.000000	0.002339  
3881.000000	0.002295  
3880.000000	0.002283  
3879.000000	0.002313  
3878.000000	0.002379  
3877.000000	0.002451  
3876.000000	0.002507  
3875.000000	0.002577  
3874.000000	0.002726  
3873.000000	0.002969  
3872.000000	0.003235  
3871.000000	0.003417  
3870.000000	0.003462  
3869.000000	0.003405  
3868.000000	0.003327  
3867.000000	0.003277  
3866.000000	0.003251  
3865.000000	0.003216  
3864.000000	0.003152  
3863.000000	0.003045  
3862.000000	0.002901  
3861.000000	0.002732  
3860.000000	0.002563  
3859.000000	0.002431  
3858.000000	0.002378  
3857.000000	0.002429  
3856.000000	0.002543  
3855.000000	0.002594  
3854.000000	0.002569  
3853.000000	0.002549  
3852.000000	0.002561  
3851.000000	0.002600  
3850.000000	0.002659  
3849.000000	0.002736  
3848.000000	0.002840  
3847.000000	0.002976  
3846.000000	0.003142  
3845.000000	0.003367  
3844.000000	0.003682  
3843.000000	0.004055  
3842.000000	0.004382  
3841.000000	0.004541  
3840.000000	0.004456  
3839.000000	0.004145  
3838.000000	0.003742  
3837.000000	0.003426  
3836.000000	0.003307  
3835.000000	0.003365  
3834.000000	0.003499  
3833.000000	0.003587  
3832.000000	0.003551  
3831.000000	0.003410  
3830.000000	0.003249  
3829.000000	0.003135  
3828.000000	0.003062  
3827.000000	0.002987  
3826.000000	0.002917  
3825.000000	0.002939  
3824.000000	0.003139  
3823.000000	0.003498  
3822.000000	0.003874  
3821.000000	0.004061  
3820.000000	0.003935  
3819.000000	0.003544  
3818.000000	0.003047  
3817.000000	0.002615  
3816.000000	0.002372  
3815.000000	0.002326  
3814.000000	0.002393  
3813.000000	0.002472  
3812.000000	0.002496  
3811.000000	0.002459  
3810.000000	0.002389  
3809.000000	0.002327  
3808.000000	0.002331  
3807.000000	0.002455  
3806.000000	0.002706  
3805.000000	0.003021  
3804.000000	0.003285  
3803.000000	0.003362  
3802.000000	0.003216  
3801.000000	0.002982  
3800.000000	0.002832  
3799.000000	0.002823  
3798.000000	0.002887  
3797.000000	0.002941  
3796.000000	0.002949  
3795.000000	0.002919  
3794.000000	0.002864  
3793.000000	0.002781  
3792.000000	0.002666  
3791.000000	0.002534  
3790.000000	0.002421  
3789.000000	0.002355  
3788.000000	0.002335  
3787.000000	0.002333  
3786.000000	0.002321  
3785.000000	0.002294  
3784.000000	0.002277  
3783.000000	0.002296  
3782.000000	0.002349  
3781.000000	0.002403  
3780.000000	0.002435  
3779.000000	0.002437  
3778.000000	0.002421  
3777.000000	0.002399  
3776.000000	0.002380  
3775.000000	0.002354  
3774.000000	0.002303  
3773.000000	0.002226  
3772.000000	0.002158  
3771.000000	0.002185  
3770.000000	0.002384  
3769.000000	0.002714  
3768.000000	0.003005  
3767.000000	0.003086  
3766.000000	0.002906  
3765.000000	0.002584  
3764.000000	0.002317  
3763.000000	0.002227  
3762.000000	0.002301  
3761.000000	0.002442  
3760.000000	0.002578  
3759.000000	0.002709  
3758.000000	0.002853  
3757.000000	0.002982  
3756.000000	0.003051  
3755.000000	0.003099  
3754.000000	0.003303  
3753.000000	0.003858  
3752.000000	0.004685  
3751.000000	0.005290  
3750.000000	0.005232  
3749.000000	0.004659  
3748.000000	0.004027  
3747.000000	0.003671  
3746.000000	0.003673  
3745.000000	0.003879  
3744.000000	0.004042  
3743.000000	0.004094  
3742.000000	0.004136  
3741.000000	0.004256  
3740.000000	0.004507  
3739.000000	0.004907  
3738.000000	0.005365  
3737.000000	0.005688  
3736.000000	0.005724  
3735.000000	0.005505  
3734.000000	0.005212  
3733.000000	0.004967  
3732.000000	0.004767  
3731.000000	0.004602  
3730.000000	0.004516  
3729.000000	0.004532  
3728.000000	0.004594  
3727.000000	0.004613  
3726.000000	0.004545  
3725.000000	0.004429  
3724.000000	0.004306  
3723.000000	0.004153  
3722.000000	0.003913  
3721.000000	0.003552  
3720.000000	0.003112  
3719.000000	0.002708  
3718.000000	0.002460  
3717.000000	0.002416  
3716.000000	0.002518  
3715.000000	0.002654  
3714.000000	0.002743  
3713.000000	0.002823  
3712.000000	0.002996  
3711.000000	0.003248  
3710.000000	0.003431  
3709.000000	0.003472  
3708.000000	0.003457  
3707.000000	0.003521  
3706.000000	0.003686  
3705.000000	0.003816  
3704.000000	0.003728  
3703.000000	0.003369  
3702.000000	0.002901  
3701.000000	0.002550  
3700.000000	0.002407  
3699.000000	0.002412  
3698.000000	0.002478  
3697.000000	0.002583  
3696.000000	0.002774  
3695.000000	0.003086  
3694.000000	0.003444  
3693.000000	0.003677  
3692.000000	0.003638  
3691.000000	0.003363  
3690.000000	0.003080  
3689.000000	0.002957  
3688.000000	0.002943  
3687.000000	0.002921  
3686.000000	0.002860  
3685.000000	0.002813  
3684.000000	0.002856  
3683.000000	0.002993  
3682.000000	0.003137  
3681.000000	0.003180  
3680.000000	0.003116  
3679.000000	0.003043  
3678.000000	0.003078  
3677.000000	0.003251  
3676.000000	0.003500  
3675.000000	0.003696  
3674.000000	0.003778  
3673.000000	0.003805  
3672.000000	0.003837  
3671.000000	0.003858  
3670.000000	0.003824  
3669.000000	0.003700  
3668.000000	0.003475  
3667.000000	0.003172  
3666.000000	0.002827  
3665.000000	0.002457  
3664.000000	0.002078  
3663.000000	0.001726  
3662.000000	0.001457  
3661.000000	0.001319  
3660.000000	0.001319  
3659.000000	0.001427  
3658.000000	0.001622  
3657.000000	0.001922  
3656.000000	0.002349  
3655.000000	0.002857  
3654.000000	0.003326  
3653.000000	0.003599  
3652.000000	0.003566  
3651.000000	0.003320  
3650.000000	0.003160  
3649.000000	0.003249  
3648.000000	0.003424  
3647.000000	0.003485  
3646.000000	0.003398  
3645.000000	0.003235  
3644.000000	0.003090  
3643.000000	0.003040  
3642.000000	0.003105  
3641.000000	0.003227  
3640.000000	0.003301  
3639.000000	0.003270  
3638.000000	0.003185  
3637.000000	0.003170  
3636.000000	0.003309  
3635.000000	0.003572  
3634.000000	0.003840  
3633.000000	0.004007  
3632.000000	0.004053  
3631.000000	0.004039  
3630.000000	0.004057  
3629.000000	0.004123  
3628.000000	0.004106  
3627.000000	0.003934  
3626.000000	0.003685  
3625.000000	0.003465  
3624.000000	0.003318  
3623.000000	0.003199  
3622.000000	0.003015  
3621.000000	0.002737  
3620.000000	0.002489  
3619.000000	0.002440  
3618.000000	0.002606  
3617.000000	0.002858  
3616.000000	0.003052  
3615.000000	0.003129  
3614.000000	0.003142  
3613.000000	0.003203  
3612.000000	0.003378  
3611.000000	0.003648  
3610.000000	0.003910  
3609.000000	0.004021  
3608.000000	0.003891  
3607.000000	0.003550  
3606.000000	0.003114  
3605.000000	0.002711  
3604.000000	0.002441  
3603.000000	0.002368  
3602.000000	0.002523  
3601.000000	0.002885  
3600.000000	0.003372  
3599.000000	0.003862  
3598.000000	0.004222  
3597.000000	0.004356  
3596.000000	0.004263  
3595.000000	0.004047  
3594.000000	0.003834  
3593.000000	0.003658  
3592.000000	0.003455  
3591.000000	0.003176  
3590.000000	0.002876  
3589.000000	0.002718  
3588.000000	0.002835  
3587.000000	0.003139  
3586.000000	0.003393  
3585.000000	0.003446  
3584.000000	0.003291  
3583.000000	0.003015  
3582.000000	0.002748  
3581.000000	0.002619  
3580.000000	0.002666  
3579.000000	0.002806  
3578.000000	0.002894  
3577.000000	0.002865  
3576.000000	0.002766  
3575.000000	0.002675  
3574.000000	0.002590  
3573.000000	0.002456  
3572.000000	0.002264  
3571.000000	0.002109  
3570.000000	0.002135  
3569.000000	0.002407  
3568.000000	0.002812  
3567.000000	0.003108  
3566.000000	0.003164  
3565.000000	0.003057  
3564.000000	0.002910  
3563.000000	0.002762  
3562.000000	0.002611  
3561.000000	0.002496  
3560.000000	0.002484  
3559.000000	0.002590  
3558.000000	0.002736  
3557.000000	0.002819  
3556.000000	0.002792  
3555.000000	0.002683  
3554.000000	0.002547  
3553.000000	0.002422  
3552.000000	0.002329  
3551.000000	0.002268  
3550.000000	0.002232  
3549.000000	0.002201  
3548.000000	0.002171  
3547.000000	0.002168  
3546.000000	0.002232  
3545.000000	0.002360  
3544.000000	0.002500  
3543.000000	0.002599  
3542.000000	0.002664  
3541.000000	0.002740  
3540.000000	0.002839  
3539.000000	0.002894  
3538.000000	0.002810  
3537.000000	0.002573  
3536.000000	0.002294  
3535.000000	0.002129  
3534.000000	0.002164  
3533.000000	0.002375  
3532.000000	0.002671  
3531.000000	0.002949  
3530.000000	0.003132  
3529.000000	0.003190  
3528.000000	0.003145  
3527.000000	0.003054  
3526.000000	0.002949  
3525.000000	0.002819  
3524.000000	0.002638  
3523.000000	0.002434  
3522.000000	0.002279  
3521.000000	0.002230  
3520.000000	0.002282  
3519.000000	0.002387  
3518.000000	0.002495  
3517.000000	0.002577  
3516.000000	0.002639  
3515.000000	0.002708  
3514.000000	0.002811  
3513.000000	0.002945  
3512.000000	0.003070  
3511.000000	0.003148  
3510.000000	0.003170  
3509.000000	0.003149  
3508.000000	0.003091  
3507.000000	0.003007  
3506.000000	0.002942  
3505.000000	0.002955  
3504.000000	0.003053  
3503.000000	0.003165  
3502.000000	0.003196  
3501.000000	0.003119  
3500.000000	0.002993  
3499.000000	0.002912  
3498.000000	0.002940  
3497.000000	0.003061  
3496.000000	0.003198  
3495.000000	0.003276  
3494.000000	0.003269  
3493.000000	0.003193  
3492.000000	0.003061  
3491.000000	0.002889  
3490.000000	0.002722  
3489.000000	0.002611  
3488.000000	0.002569  
3487.000000	0.002587  
3486.000000	0.002681  
3485.000000	0.002891  
3484.000000	0.003186  
3483.000000	0.003428  
3482.000000	0.003480  
3481.000000	0.003339  
3480.000000	0.003131  
3479.000000	0.002969  
3478.000000	0.002874  
3477.000000	0.002806  
3476.000000	0.002747  
3475.000000	0.002735  
3474.000000	0.002819  
3473.000000	0.002992  
3472.000000	0.003166  
3471.000000	0.003225  
3470.000000	0.003131  
3469.000000	0.002953  
3468.000000	0.002809  
3467.000000	0.002768  
3466.000000	0.002832  
3465.000000	0.002958  
3464.000000	0.003072  
3463.000000	0.003087  
3462.000000	0.002966  
3461.000000	0.002771  
3460.000000	0.002623  
3459.000000	0.002598  
3458.000000	0.002686  
3457.000000	0.002838  
3456.000000	0.003011  
3455.000000	0.003165  
3454.000000	0.003274  
3453.000000	0.003340  
3452.000000	0.003386  
3451.000000	0.003411  
3450.000000	0.003385  
3449.000000	0.003309  
3448.000000	0.003240  
3447.000000	0.003246  
3446.000000	0.003334  
3445.000000	0.003462  
3444.000000	0.003587  
3443.000000	0.003664  
3442.000000	0.003664  
3441.000000	0.003618  
3440.000000	0.003612  
3439.000000	0.003703  
3438.000000	0.003824  
3437.000000	0.003827  
3436.000000	0.003626  
3435.000000	0.003303  
3434.000000	0.003049  
3433.000000	0.003006  
3432.000000	0.003156  
3431.000000	0.003338  
3430.000000	0.003383  
3429.000000	0.003247  
3428.000000	0.003014  
3427.000000	0.002809  
3426.000000	0.002704  
3425.000000	0.002713  
3424.000000	0.002814  
3423.000000	0.002963  
3422.000000	0.003114  
3421.000000	0.003244  
3420.000000	0.003359  
3419.000000	0.003466  
3418.000000	0.003553  
3417.000000	0.003609  
3416.000000	0.003632  
3415.000000	0.003622  
3414.000000	0.003568  
3413.000000	0.003489  
3412.000000	0.003444  
3411.000000	0.003487  
3410.000000	0.003593  
3409.000000	0.003659  
3408.000000	0.003594  
3407.000000	0.003410  
3406.000000	0.003204  
3405.000000	0.003071  
3404.000000	0.003041  
3403.000000	0.003094  
3402.000000	0.003211  
3401.000000	0.003390  
3400.000000	0.003592  
3399.000000	0.003723  
3398.000000	0.003718  
3397.000000	0.003633  
3396.000000	0.003622  
3395.000000	0.003786  
3394.000000	0.004062  
3393.000000	0.004284  
3392.000000	0.004321  
3391.000000	0.004177  
3390.000000	0.003953  
3389.000000	0.003767  
3388.000000	0.003662  
3387.000000	0.003597  
3386.000000	0.003519  
3385.000000	0.003453  
3384.000000	0.003501  
3383.000000	0.003721  
3382.000000	0.004033  
3381.000000	0.004279  
3380.000000	0.004359  
3379.000000	0.004277  
3378.000000	0.004074  
3377.000000	0.003781  
3376.000000	0.003448  
3375.000000	0.003181  
3374.000000	0.003082  
3373.000000	0.003168  
3372.000000	0.003354  
3371.000000	0.003546  
3370.000000	0.003725  
3369.000000	0.003926  
3368.000000	0.004147  
3367.000000	0.004302  
3366.000000	0.004299  
3365.000000	0.004143  
3364.000000	0.003934  
3363.000000	0.003774  
3362.000000	0.003699  
3361.000000	0.003708  
3360.000000	0.003791  
3359.000000	0.003912  
3358.000000	0.003991  
3357.000000	0.003980  
3356.000000	0.003921  
3355.000000	0.003895  
3354.000000	0.003915  
3353.000000	0.003923  
3352.000000	0.003878  
3351.000000	0.003799  
3350.000000	0.003714  
3349.000000	0.003637  
3348.000000	0.003605  
3347.000000	0.003679  
3346.000000	0.003867  
3345.000000	0.004067  
3344.000000	0.004161  
3343.000000	0.004122  
3342.000000	0.004028  
3341.000000	0.003948  
3340.000000	0.003876  
3339.000000	0.003777  
3338.000000	0.003666  
3337.000000	0.003620  
3336.000000	0.003693  
3335.000000	0.003851  
3334.000000	0.003991  
3333.000000	0.004047  
3332.000000	0.004037  
3331.000000	0.004025  
3330.000000	0.004044  
3329.000000	0.004080  
3328.000000	0.004122  
3327.000000	0.004164  
3326.000000	0.004177  
3325.000000	0.004111  
3324.000000	0.003966  
3323.000000	0.003810  
3322.000000	0.003718  
3321.000000	0.003714  
3320.000000	0.003782  
3319.000000	0.003917  
3318.000000	0.004104  
3317.000000	0.004283  
3316.000000	0.004368  
3315.000000	0.004331  
3314.000000	0.004230  
3313.000000	0.004156  
3312.000000	0.004165  
3311.000000	0.004254  
3310.000000	0.004384  
3309.000000	0.004479  
3308.000000	0.004452  
3307.000000	0.004272  
3306.000000	0.004023  
3305.000000	0.003865  
3304.000000	0.003905  
3303.000000	0.004102  
3302.000000	0.004325  
3301.000000	0.004472  
3300.000000	0.004528  
3299.000000	0.004502  
3298.000000	0.004387  
3297.000000	0.004203  
3296.000000	0.004039  
3295.000000	0.003995  
3294.000000	0.004083  
3293.000000	0.004231  
3292.000000	0.004369  
3291.000000	0.004475  
3290.000000	0.004525  
3289.000000	0.004470  
3288.000000	0.004294  
3287.000000	0.004059  
3286.000000	0.003850  
3285.000000	0.003702  
3284.000000	0.003603  
3283.000000	0.003558  
3282.000000	0.003598  
3281.000000	0.003722  
3280.000000	0.003868  
3279.000000	0.003966  
3278.000000	0.004002  
3277.000000	0.004026  
3276.000000	0.004099  
3275.000000	0.004251  
3274.000000	0.004463  
3273.000000	0.004678  
3272.000000	0.004814  
3271.000000	0.004814  
3270.000000	0.004681  
3269.000000	0.004473  
3268.000000	0.004252  
3267.000000	0.004044  
3266.000000	0.003872  
3265.000000	0.003795  
3264.000000	0.003868  
3263.000000	0.004065  
3262.000000	0.004275  
3261.000000	0.004408  
3260.000000	0.004475  
3259.000000	0.004542  
3258.000000	0.004629  
3257.000000	0.004682  
3256.000000	0.004656  
3255.000000	0.004573  
3254.000000	0.004508  
3253.000000	0.004520  
3252.000000	0.004608  
3251.000000	0.004699  
3250.000000	0.004705  
3249.000000	0.004608  
3248.000000	0.004493  
3247.000000	0.004455  
3246.000000	0.004493  
3245.000000	0.004538  
3244.000000	0.004555  
3243.000000	0.004586  
3242.000000	0.004651  
3241.000000	0.004693  
3240.000000	0.004641  
3239.000000	0.004480  
3238.000000	0.004244  
3237.000000	0.003976  
3236.000000	0.003728  
3235.000000	0.003559  
3234.000000	0.003503  
3233.000000	0.003553  
3232.000000	0.003687  
3231.000000	0.003887  
3230.000000	0.004096  
3229.000000	0.004218  
3228.000000	0.004221  
3227.000000	0.004195  
3226.000000	0.004259  
3225.000000	0.004418  
3224.000000	0.004573  
3223.000000	0.004635  
3222.000000	0.004596  
3221.000000	0.004481  
3220.000000	0.004315  
3219.000000	0.004138  
3218.000000	0.004021  
3217.000000	0.004022  
3216.000000	0.004136  
3215.000000	0.004307  
3214.000000	0.004456  
3213.000000	0.004524  
3212.000000	0.004507  
3211.000000	0.004455  
3210.000000	0.004420  
3209.000000	0.004415  
3208.000000	0.004437  
3207.000000	0.004502  
3206.000000	0.004631  
3205.000000	0.004800  
3204.000000	0.004945  
3203.000000	0.005031  
3202.000000	0.005051  
3201.000000	0.004977  
3200.000000	0.004767  
3199.000000	0.004432  
3198.000000	0.004072  
3197.000000	0.003800  
3196.000000	0.003653  
3195.000000	0.003596  
3194.000000	0.003584  
3193.000000	0.003600  
3192.000000	0.003656  
3191.000000	0.003775  
3190.000000	0.003973  
3189.000000	0.004220  
3188.000000	0.004435  
3187.000000	0.004552  
3186.000000	0.004574  
3185.000000	0.004561  
3184.000000	0.004554  
3183.000000	0.004535  
3182.000000	0.004466  
3181.000000	0.004336  
3180.000000	0.004173  
3179.000000	0.004018  
3178.000000	0.003908  
3177.000000	0.003879  
3176.000000	0.003957  
3175.000000	0.004121  
3174.000000	0.004286  
3173.000000	0.004347  
3172.000000	0.004270  
3171.000000	0.004120  
3170.000000	0.004013  
3169.000000	0.004025  
3168.000000	0.004148  
3167.000000	0.004316  
3166.000000	0.004453  
3165.000000	0.004518  
3164.000000	0.004521  
3163.000000	0.004505  
3162.000000	0.004497  
3161.000000	0.004487  
3160.000000	0.004454  
3159.000000	0.004397  
3158.000000	0.004341  
3157.000000	0.004310  
3156.000000	0.004312  
3155.000000	0.004346  
3154.000000	0.004411  
3153.000000	0.004496  
3152.000000	0.004557  
3151.000000	0.004533  
3150.000000	0.004391  
3149.000000	0.004176  
3148.000000	0.003994  
3147.000000	0.003914  
3146.000000	0.003905  
3145.000000	0.003888  
3144.000000	0.003850  
3143.000000	0.003844  
3142.000000	0.003896  
3141.000000	0.003957  
3140.000000	0.003987  
3139.000000	0.004024  
3138.000000	0.004128  
3137.000000	0.004274  
3136.000000	0.004359  
3135.000000	0.004316  
3134.000000	0.004173  
3133.000000	0.004027  
3132.000000	0.003972  
3131.000000	0.004039  
3130.000000	0.004177  
3129.000000	0.004285  
3128.000000	0.004295  
3127.000000	0.004235  
3126.000000	0.004177  
3125.000000	0.004163  
3124.000000	0.004191  
3123.000000	0.004266  
3122.000000	0.004393  
3121.000000	0.004528  
3120.000000	0.004584  
3119.000000	0.004510  
3118.000000	0.004343  
3117.000000	0.004162  
3116.000000	0.004040  
3115.000000	0.004020  
3114.000000	0.004104  
3113.000000	0.004233  
3112.000000	0.004320  
3111.000000	0.004325  
3110.000000	0.004281  
3109.000000	0.004245  
3108.000000	0.004219  
3107.000000	0.004159  
3106.000000	0.004051  
3105.000000	0.003939  
3104.000000	0.003907  
3103.000000	0.004004  
3102.000000	0.004190  
3101.000000	0.004351  
3100.000000	0.004381  
3099.000000	0.004261  
3098.000000	0.004071  
3097.000000	0.003912  
3096.000000	0.003854  
3095.000000	0.003919  
3094.000000	0.004075  
3093.000000	0.004243  
3092.000000	0.004345  
3091.000000	0.004364  
3090.000000	0.004352  
3089.000000	0.004354  
3088.000000	0.004366  
3087.000000	0.004372  
3086.000000	0.004394  
3085.000000	0.004450  
3084.000000	0.004506  
3083.000000	0.004503  
3082.000000	0.004439  
3081.000000	0.004397  
3080.000000	0.004463  
3079.000000	0.004653  
3078.000000	0.004897  
3077.000000	0.005095  
3076.000000	0.005173  
3075.000000	0.005113  
3074.000000	0.004959  
3073.000000	0.004787  
3072.000000	0.004678  
3071.000000	0.004678  
3070.000000	0.004777  
3069.000000	0.004907  
3068.000000	0.004985  
3067.000000	0.004983  
3066.000000	0.004955  
3065.000000	0.005000  
3064.000000	0.005167  
3063.000000	0.005406  
3062.000000	0.005585  
3061.000000	0.005597  
3060.000000	0.005447  
3059.000000	0.005251  
3058.000000	0.005130  
3057.000000	0.005109  
3056.000000	0.005137  
3055.000000	0.005183  
3054.000000	0.005263  
3053.000000	0.005360  
3052.000000	0.005397  
3051.000000	0.005316  
3050.000000	0.005175  
3049.000000	0.005113  
3048.000000	0.005208  
3047.000000	0.005414  
3046.000000	0.005606  
3045.000000	0.005689  
3044.000000	0.005655  
3043.000000	0.005568  
3042.000000	0.005516  
3041.000000	0.005545  
3040.000000	0.005652  
3039.000000	0.005804  
3038.000000	0.005964  
3037.000000	0.006090  
3036.000000	0.006149  
3035.000000	0.006130  
3034.000000	0.006058  
3033.000000	0.005979  
3032.000000	0.005948  
3031.000000	0.006029  
3030.000000	0.006253  
3029.000000	0.006571  
3028.000000	0.006878  
3027.000000	0.007102  
3026.000000	0.007265  
3025.000000	0.007435  
3024.000000	0.007657  
3023.000000	0.007935  
3022.000000	0.008255  
3021.000000	0.008568  
3020.000000	0.008806  
3019.000000	0.008952  
3018.000000	0.009102  
3017.000000	0.009381  
3016.000000	0.009808  
3015.000000	0.010277  
3014.000000	0.010681  
3013.000000	0.010992  
3012.000000	0.011226  
3011.000000	0.011379  
3010.000000	0.011446  
3009.000000	0.011471  
3008.000000	0.011517  
3007.000000	0.011605  
3006.000000	0.011688  
3005.000000	0.011681  
3004.000000	0.011517  
3003.000000	0.011205  
3002.000000	0.010863  
3001.000000	0.010671  
3000.000000	0.010737  
2999.000000	0.011012  
2998.000000	0.011324  
2997.000000	0.011522  
2996.000000	0.011568  
2995.000000	0.011544  
2994.000000	0.011585  
2993.000000	0.011812  
2992.000000	0.012265  
2991.000000	0.012881  
2990.000000	0.013531  
2989.000000	0.014114  
2988.000000	0.014630  
2987.000000	0.015173  
2986.000000	0.015852  
2985.000000	0.016711  
2984.000000	0.017719  
2983.000000	0.018820  
2982.000000	0.019996  
2981.000000	0.021279  
2980.000000	0.022717  
2979.000000	0.024336  
2978.000000	0.026150  
2977.000000	0.028201  
2976.000000	0.030565  
2975.000000	0.033311  
2974.000000	0.036449  
2973.000000	0.039929  
2972.000000	0.043686  
2971.000000	0.047686  
2970.000000	0.051950  
2969.000000	0.056543  
2968.000000	0.061514  
2967.000000	0.066819  
2966.000000	0.072283  
2965.000000	0.077685  
2964.000000	0.082889  
2963.000000	0.087882  
2962.000000	0.092692  
2961.000000	0.097278  
2960.000000	0.101523  
2959.000000	0.105274  
2958.000000	0.108382  
2957.000000	0.110737  
2956.000000	0.112306  
2955.000000	0.113117  
2954.000000	0.113197  
2953.000000	0.112538  
2952.000000	0.111183  
2951.000000	0.109298  
2950.000000	0.107148  
2949.000000	0.104990  
2948.000000	0.103008  
2947.000000	0.101345  
2946.000000	0.100161  
2945.000000	0.099645  
2944.000000	0.099970  
2943.000000	0.101225  
2942.000000	0.103391  
2941.000000	0.106357  
2940.000000	0.109998  
2939.000000	0.114258  
2938.000000	0.119170  
2937.000000	0.124775  
2936.000000	0.131027  
2935.000000	0.137752  
2934.000000	0.144745  
2933.000000	0.151889  
2932.000000	0.159194  
2931.000000	0.166695  
2930.000000	0.174319  
2929.000000	0.181865  
2928.000000	0.189062  
2927.000000	0.195626  
2926.000000	0.201282  
2925.000000	0.205820  
2924.000000	0.209128  
2923.000000	0.211114  
2922.000000	0.211659  
2921.000000	0.210715  
2920.000000	0.208437  
2919.000000	0.205116  
2918.000000	0.200978  
2917.000000	0.196145  
2916.000000	0.190784  
2915.000000	0.185165  
2914.000000	0.179532  
2913.000000	0.173975  
2912.000000	0.168508  
2911.000000	0.163218  
2910.000000	0.158261  
2909.000000	0.153715  
2908.000000	0.149481  
2907.000000	0.145359  
2906.000000	0.141204  
2905.000000	0.137017  
2904.000000	0.132907  
2903.000000	0.128993  
2902.000000	0.125309  
2901.000000	0.121786  
2900.000000	0.118303  
2899.000000	0.114756  
2898.000000	0.111137  
2897.000000	0.107543  
2896.000000	0.104112  
2895.000000	0.100922  
2894.000000	0.097928  
2893.000000	0.094991  
2892.000000	0.091987  
2891.000000	0.088895  
2890.000000	0.085810  
2889.000000	0.082884  
2888.000000	0.080249  
2887.000000	0.077980  
2886.000000	0.076096  
2885.000000	0.074598  
2884.000000	0.073507  
2883.000000	0.072863  
2882.000000	0.072710  
2881.000000	0.073079  
2880.000000	0.074006  
2879.000000	0.075561  
2878.000000	0.077790  
2877.000000	0.080616  
2876.000000	0.083801  
2875.000000	0.087016  
2874.000000	0.089958  
2873.000000	0.092401  
2872.000000	0.094187  
2871.000000	0.095260  
2870.000000	0.095726  
2869.000000	0.095854  
2868.000000	0.095971  
2867.000000	0.096347  
2866.000000	0.097166  
2865.000000	0.098574  
2864.000000	0.100693  
2863.000000	0.103552  
2862.000000	0.107054  
2861.000000	0.111040  
2860.000000	0.115387  
2859.000000	0.120002  
2858.000000	0.124713  
2857.000000	0.129187  
2856.000000	0.132972  
2855.000000	0.135592  
2854.000000	0.136648  
2853.000000	0.135904  
2852.000000	0.133357  
2851.000000	0.129236  
2850.000000	0.123894  
2849.000000	0.117682  
2848.000000	0.110895  
2847.000000	0.103806  
2846.000000	0.096689  
2845.000000	0.089769  
2844.000000	0.083135  
2843.000000	0.076749  
2842.000000	0.070575  
2841.000000	0.064684  
2840.000000	0.059209  
2839.000000	0.054241  
2838.000000	0.049782  
2837.000000	0.045788  
2836.000000	0.042198  
2835.000000	0.038939  
2834.000000	0.035948  
2833.000000	0.033216  
2832.000000	0.030791  
2831.000000	0.028718  
2830.000000	0.026984  
2829.000000	0.025517  
2828.000000	0.024225  
2827.000000	0.023036  
2826.000000	0.021922  
2825.000000	0.020891  
2824.000000	0.019958  
2823.000000	0.019128  
2822.000000	0.018399  
2821.000000	0.017767  
2820.000000	0.017221  
2819.000000	0.016730  
2818.000000	0.016249  
2817.000000	0.015745  
2816.000000	0.015216  
2815.000000	0.014686  
2814.000000	0.014189  
2813.000000	0.013733  
2812.000000	0.013299  
2811.000000	0.012859  
2810.000000	0.012430  
2809.000000	0.012064  
2808.000000	0.011807  
2807.000000	0.011655  
2806.000000	0.011564  
2805.000000	0.011478  
2804.000000	0.011343  
2803.000000	0.011114  
2802.000000	0.010795  
2801.000000	0.010458  
2800.000000	0.010201  
2799.000000	0.010066  
2798.000000	0.010015  
2797.000000	0.009988  
2796.000000	0.009948  
2795.000000	0.009873  
2794.000000	0.009730  
2793.000000	0.009486  
2792.000000	0.009145  
2791.000000	0.008767  
2790.000000	0.008446  
2789.000000	0.008270  
2788.000000	0.008260  
2787.000000	0.008350  
2786.000000	0.008423  
2785.000000	0.008395  
2784.000000	0.008264  
2783.000000	0.008094  
2782.000000	0.007962  
2781.000000	0.007918  
2780.000000	0.007965  
2779.000000	0.008038  
2778.000000	0.008032  
2777.000000	0.007861  
2776.000000	0.007543  
2775.000000	0.007194  
2774.000000	0.006954  
2773.000000	0.006895  
2772.000000	0.006976  
2771.000000	0.007084  
2770.000000	0.007118  
2769.000000	0.007036  
2768.000000	0.006861  
2767.000000	0.006646  
2766.000000	0.006445  
2765.000000	0.006313  
2764.000000	0.006279  
2763.000000	0.006324  
2762.000000	0.006386  
2761.000000	0.006406  
2760.000000	0.006368  
2759.000000	0.006292  
2758.000000	0.006201  
2757.000000	0.006108  
2756.000000	0.006021  
2755.000000	0.005945  
2754.000000	0.005880  
2753.000000	0.005829  
2752.000000	0.005806  
2751.000000	0.005822  
2750.000000	0.005866  
2749.000000	0.005906  
2748.000000	0.005915  
2747.000000	0.005883  
2746.000000	0.005813  
2745.000000	0.005732  
2744.000000	0.005683  
2743.000000	0.005687  
2742.000000	0.005721  
2741.000000	0.005749  
2740.000000	0.005772  
2739.000000	0.005819  
2738.000000	0.005898  
2737.000000	0.005986  
2736.000000	0.006066  
2735.000000	0.006159  
2734.000000	0.006275  
2733.000000	0.006381  
2732.000000	0.006418  
2731.000000	0.006371  
2730.000000	0.006280  
2729.000000	0.006213  
2728.000000	0.006203  
2727.000000	0.006230  
2726.000000	0.006234  
2725.000000	0.006169  
2724.000000	0.006051  
2723.000000	0.005953  
2722.000000	0.005930  
2721.000000	0.005973  
2720.000000	0.006031  
2719.000000	0.006069  
2718.000000	0.006075  
2717.000000	0.006056  
2716.000000	0.006024  
2715.000000	0.005990  
2714.000000	0.005945  
2713.000000	0.005849  
2712.000000	0.005679  
2711.000000	0.005478  
2710.000000	0.005325  
2709.000000	0.005253  
2708.000000	0.005226  
2707.000000	0.005194  
2706.000000	0.005143  
2705.000000	0.005089  
2704.000000	0.005040  
2703.000000	0.004987  
2702.000000	0.004913  
2701.000000	0.004812  
2700.000000	0.004695  
2699.000000	0.004599  
2698.000000	0.004564  
2697.000000	0.004599  
2696.000000	0.004672  
2695.000000	0.004756  
2694.000000	0.004847  
2693.000000	0.004942  
2692.000000	0.005015  
2691.000000	0.005052  
2690.000000	0.005094  
2689.000000	0.005207  
2688.000000	0.005402  
2687.000000	0.005601  
2686.000000	0.005707  
2685.000000	0.005695  
2684.000000	0.005630  
2683.000000	0.005590  
2682.000000	0.005601  
2681.000000	0.005626  
2680.000000	0.005615  
2679.000000	0.005557  
2678.000000	0.005488  
2677.000000	0.005467  
2676.000000	0.005530  
2675.000000	0.005658  
2674.000000	0.005787  
2673.000000	0.005850  
2672.000000	0.005817  
2671.000000	0.005708  
2670.000000	0.005569  
2669.000000	0.005453  
2668.000000	0.005408  
2667.000000	0.005462  
2666.000000	0.005591  
2665.000000	0.005725  
2664.000000	0.005787  
2663.000000	0.005733  
2662.000000	0.005566  
2661.000000	0.005327  
2660.000000	0.005093  
2659.000000	0.004930  
2658.000000	0.004843  
2657.000000	0.004776  
2656.000000	0.004703  
2655.000000	0.004664  
2654.000000	0.004704  
2653.000000	0.004781  
2652.000000	0.004806  
2651.000000	0.004766  
2650.000000	0.004743  
2649.000000	0.004799  
2648.000000	0.004900  
2647.000000	0.004974  
2646.000000	0.004988  
2645.000000	0.004959  
2644.000000	0.004906  
2643.000000	0.004854  
2642.000000	0.004839  
2641.000000	0.004871  
2640.000000	0.004899  
2639.000000	0.004854  
2638.000000	0.004714  
2637.000000	0.004520  
2636.000000	0.004339  
2635.000000	0.004241  
2634.000000	0.004281  
2633.000000	0.004458  
2632.000000	0.004678  
2631.000000	0.004805  
2630.000000	0.004766  
2629.000000	0.004602  
2628.000000	0.004430  
2627.000000	0.004357  
2626.000000	0.004419  
2625.000000	0.004538  
2624.000000	0.004578  
2623.000000	0.004456  
2622.000000	0.004230  
2621.000000	0.004026  
2620.000000	0.003907  
2619.000000	0.003839  
2618.000000	0.003784  
2617.000000	0.003768  
2616.000000	0.003839  
2615.000000	0.003991  
2614.000000	0.004164  
2613.000000	0.004312  
2612.000000	0.004429  
2611.000000	0.004526  
2610.000000	0.004611  
2609.000000	0.004685  
2608.000000	0.004745  
2607.000000	0.004788  
2606.000000	0.004800  
2605.000000	0.004760  
2604.000000	0.004657  
2603.000000	0.004514  
2602.000000	0.004390  
2601.000000	0.004347  
2600.000000	0.004394  
2599.000000	0.004469  
2598.000000	0.004485  
2597.000000	0.004399  
2596.000000	0.004252  
2595.000000	0.004120  
2594.000000	0.004027  
2593.000000	0.003914  
2592.000000	0.003723  
2591.000000	0.003498  
2590.000000	0.003357  
2589.000000	0.003356  
2588.000000	0.003434  
2587.000000	0.003515  
2586.000000	0.003606  
2585.000000	0.003745  
2584.000000	0.003879  
2583.000000	0.003889  
2582.000000	0.003730  
2581.000000	0.003493  
2580.000000	0.003330  
2579.000000	0.003330  
2578.000000	0.003479  
2577.000000	0.003679  
2576.000000	0.003797  
2575.000000	0.003756  
2574.000000	0.003604  
2573.000000	0.003470  
2572.000000	0.003436  
2571.000000	0.003464  
2570.000000	0.003461  
2569.000000	0.003382  
2568.000000	0.003258  
2567.000000	0.003138  
2566.000000	0.003059  
2565.000000	0.003038  
2564.000000	0.003066  
2563.000000	0.003116  
2562.000000	0.003161  
2561.000000	0.003195  
2560.000000	0.003218  
2559.000000	0.003222  
2558.000000	0.003220  
2557.000000	0.003261  
2556.000000	0.003381  
2555.000000	0.003531  
2554.000000	0.003587  
2553.000000	0.003482  
2552.000000	0.003296  
2551.000000	0.003190  
2550.000000	0.003253  
2549.000000	0.003428  
2548.000000	0.003587  
2547.000000	0.003627  
2546.000000	0.003504  
2545.000000	0.003229  
2544.000000	0.002902  
2543.000000	0.002685  
2542.000000	0.002678  
2541.000000	0.002808  
2540.000000	0.002908  
2539.000000	0.002917  
2538.000000	0.002936  
2537.000000	0.003054  
2536.000000	0.003197  
2535.000000	0.003214  
2534.000000	0.003066  
2533.000000	0.002864  
2532.000000	0.002727  
2531.000000	0.002655  
2530.000000	0.002556  
2529.000000	0.002383  
2528.000000	0.002202  
2527.000000	0.002157  
2526.000000	0.002335  
2525.000000	0.002671  
2524.000000	0.002996  
2523.000000	0.003188  
2522.000000	0.003244  
2521.000000	0.003209  
2520.000000	0.003087  
2519.000000	0.002895  
2518.000000	0.002734  
2517.000000	0.002739  
2516.000000	0.002924  
2515.000000	0.003166  
2514.000000	0.003329  
2513.000000	0.003363  
2512.000000	0.003282  
2511.000000	0.003120  
2510.000000	0.002922  
2509.000000	0.002757  
2508.000000	0.002687  
2507.000000	0.002736  
2506.000000	0.002900  
2505.000000	0.003127  
2504.000000	0.003307  
2503.000000	0.003325  
2502.000000	0.003180  
2501.000000	0.003013  
2500.000000	0.002972  
2499.000000	0.003051  
2498.000000	0.003080  
2497.000000	0.002890  
2496.000000	0.002479  
2495.000000	0.002032  
2494.000000	0.001786  
2493.000000	0.001862  
2492.000000	0.002189  
2491.000000	0.002584  
2490.000000	0.002888  
2489.000000	0.003031  
2488.000000	0.003018  
2487.000000	0.002885  
2486.000000	0.002672  
2485.000000	0.002419  
2484.000000	0.002185  
2483.000000	0.002062  
2482.000000	0.002147  
2481.000000	0.002446  
2480.000000	0.002837  
2479.000000	0.003141  
2478.000000	0.003253  
2477.000000	0.003182  
2476.000000	0.003001  
2475.000000	0.002789  
2474.000000	0.002620  
2473.000000	0.002539  
2472.000000	0.002527  
2471.000000	0.002514  
2470.000000	0.002445  
2469.000000	0.002342  
2468.000000	0.002290  
2467.000000	0.002364  
2466.000000	0.002558  
2465.000000	0.002762  
2464.000000	0.002842  
2463.000000	0.002764  
2462.000000	0.002627  
2461.000000	0.002549  
2460.000000	0.002567  
2459.000000	0.002665  
2458.000000	0.002839  
2457.000000	0.003056  
2456.000000	0.003180  
2455.000000	0.003072  
2454.000000	0.002763  
2453.000000	0.002447  
2452.000000	0.002270  
2451.000000	0.002195  
2450.000000	0.002121  
2449.000000	0.002054  
2448.000000	0.002082  
2447.000000	0.002232  
2446.000000	0.002431  
2445.000000	0.002585  
2444.000000	0.002652  
2443.000000	0.002637  
2442.000000	0.002572  
2441.000000	0.002496  
2440.000000	0.002424  
2439.000000	0.002344  
2438.000000	0.002269  
2437.000000	0.002247  
2436.000000	0.002293  
2435.000000	0.002343  
2434.000000	0.002321  
2433.000000	0.002243  
2432.000000	0.002194  
2431.000000	0.002229  
2430.000000	0.002315  
2429.000000	0.002396  
2428.000000	0.002452  
2427.000000	0.002502  
2426.000000	0.002566  
2425.000000	0.002643  
2424.000000	0.002712  
2423.000000	0.002743  
2422.000000	0.002718  
2421.000000	0.002652  
2420.000000	0.002582  
2419.000000	0.002540  
2418.000000	0.002525  
2417.000000	0.002512  
2416.000000	0.002485  
2415.000000	0.002465  
2414.000000	0.002503  
2413.000000	0.002621  
2412.000000	0.002775  
2411.000000	0.002890  
2410.000000	0.002939  
2409.000000	0.002958  
2408.000000	0.002986  
2407.000000	0.002998  
2406.000000	0.002933  
2405.000000	0.002748  
2404.000000	0.002470  
2403.000000	0.002191  
2402.000000	0.002014  
2401.000000	0.001989  
2400.000000	0.002098  
2399.000000	0.002286  
2398.000000	0.002504  
2397.000000	0.002703  
2396.000000	0.002825  
2395.000000	0.002852  
2394.000000	0.002856  
2393.000000	0.002950  
2392.000000	0.003160  
2391.000000	0.003394  
2390.000000	0.003552  
2389.000000	0.003646  
2388.000000	0.003806  
2387.000000	0.004193  
2386.000000	0.004886  
2385.000000	0.005801  
2384.000000	0.006669  
2383.000000	0.007140  
2382.000000	0.006963  
2381.000000	0.006140  
2380.000000	0.004907  
2379.000000	0.003599  
2378.000000	0.002503  
2377.000000	0.001764  
2376.000000	0.001402  
2375.000000	0.001385  
2374.000000	0.001686  
2373.000000	0.002282  
2372.000000	0.003102  
2371.000000	0.004026  
2370.000000	0.004924  
2369.000000	0.005639  
2368.000000	0.005980  
2367.000000	0.005828  
2366.000000	0.005244  
2365.000000	0.004403  
2364.000000	0.003478  
2363.000000	0.002737  
2362.000000	0.002430  
2361.000000	0.002688  
2360.000000	0.003627  
2359.000000	0.004907  
2358.000000	0.005764  
2357.000000	0.005581  
2356.000000	0.004457  
2355.000000	0.003122  
2354.000000	0.002011  
2353.000000	0.001399  
2352.000000	0.001459  
2351.000000	0.002061  
2350.000000	0.002878  
2349.000000	0.003393  
2348.000000	0.003464  
2347.000000	0.003202  
2346.000000	0.003127  
2345.000000	0.003656  
2344.000000	0.004405  
2343.000000	0.004777  
2342.000000	0.004205  
2341.000000	0.003067  
2340.000000	0.002307  
2339.000000	0.002305  
2338.000000	0.002520  
2337.000000	0.002353  
2336.000000	0.001905  
2335.000000	0.001633  
2334.000000	0.001569  
2333.000000	0.001590  
2332.000000	0.001816  
2331.000000	0.002481  
2330.000000	0.003622  
2329.000000	0.004740  
2328.000000	0.005673  
2327.000000	0.006350  
2326.000000	0.006742  
2325.000000	0.006754  
2324.000000	0.006269  
2323.000000	0.005555  
2322.000000	0.004834  
2321.000000	0.004461  
2320.000000	0.004613  
2319.000000	0.005285  
2318.000000	0.006145  
2317.000000	0.006700  
2316.000000	0.006702  
2315.000000	0.006304  
2314.000000	0.006009  
2313.000000	0.006176  
2312.000000	0.006804  
2311.000000	0.007535  
2310.000000	0.008084  
2309.000000	0.008397  
2308.000000	0.008546  
2307.000000	0.008517  
2306.000000	0.008224  
2305.000000	0.007729  
2304.000000	0.007247  
2303.000000	0.006996  
2302.000000	0.006982  
2301.000000	0.007029  
2300.000000	0.006981  
2299.000000	0.006851  
2298.000000	0.006814  
2297.000000	0.006946  
2296.000000	0.007105  
2295.000000	0.007033  
2294.000000	0.006653  
2293.000000	0.006137  
2292.000000	0.005691  
2291.000000	0.005348  
2290.000000	0.005018  
2289.000000	0.004669  
2288.000000	0.004309  
2287.000000	0.003896  
2286.000000	0.003377  
2285.000000	0.002862  
2284.000000	0.002561  
2283.000000	0.002551  
2282.000000	0.002670  
2281.000000	0.002749  
2280.000000	0.002812  
2279.000000	0.002973  
2278.000000	0.003195  
2277.000000	0.003295  
2276.000000	0.003221  
2275.000000	0.003172  
2274.000000	0.003406  
2273.000000	0.003926  
2272.000000	0.004460  
2271.000000	0.004721  
2270.000000	0.004644  
2269.000000	0.004373  
2268.000000	0.004041  
2267.000000	0.003666  
2266.000000	0.003246  
2265.000000	0.002889  
2264.000000	0.002746  
2263.000000	0.002838  
2262.000000	0.003034  
2261.000000	0.003191  
2260.000000	0.003265  
2259.000000	0.003314  
2258.000000	0.003430  
2257.000000	0.003680  
2256.000000	0.004016  
2255.000000	0.004246  
2254.000000	0.004194  
2253.000000	0.003899  
2252.000000	0.003597  
2251.000000	0.003460  
2250.000000	0.003437  
2249.000000	0.003355  
2248.000000	0.003093  
2247.000000	0.002626  
2246.000000	0.002021  
2245.000000	0.001471  
2244.000000	0.001253  
2243.000000	0.001510  
2242.000000	0.002085  
2241.000000	0.002647  
2240.000000	0.002972  
2239.000000	0.003068  
2238.000000	0.003041  
2237.000000	0.002947  
2236.000000	0.002788  
2235.000000	0.002569  
2234.000000	0.002332  
2233.000000	0.002139  
2232.000000	0.002031  
2231.000000	0.001997  
2230.000000	0.001976  
2229.000000	0.001919  
2228.000000	0.001847  
2227.000000	0.001836  
2226.000000	0.001930  
2225.000000	0.002062  
2224.000000	0.002064  
2223.000000	0.001797  
2222.000000	0.001335  
2221.000000	0.000991  
2220.000000	0.001068  
2219.000000	0.001549  
2218.000000	0.002113  
2217.000000	0.002512  
2216.000000	0.002828  
2215.000000	0.003247  
2214.000000	0.003691  
2213.000000	0.003851  
2212.000000	0.003611  
2211.000000	0.003230  
2210.000000	0.003007  
2209.000000	0.002899  
2208.000000	0.002641  
2207.000000	0.002195  
2206.000000	0.001882  
2205.000000	0.002025  
2204.000000	0.002581  
2203.000000	0.003224  
2202.000000	0.003709  
2201.000000	0.004025  
2200.000000	0.004216  
2199.000000	0.004238  
2198.000000	0.004039  
2197.000000	0.003687  
2196.000000	0.003309  
2195.000000	0.002962  
2194.000000	0.002657  
2193.000000	0.002453  
2192.000000	0.002390  
2191.000000	0.002361  
2190.000000	0.002203  
2189.000000	0.001940  
2188.000000	0.001795  
2187.000000	0.001887  
2186.000000	0.002056  
2185.000000	0.002088  
2184.000000	0.001997  
2183.000000	0.001976  
2182.000000	0.002158  
2181.000000	0.002535  
2180.000000	0.003030  
2179.000000	0.003509  
2178.000000	0.003760  
2177.000000	0.003648  
2176.000000	0.003296  
2175.000000	0.002934  
2174.000000	0.002604  
2173.000000	0.002186  
2172.000000	0.001730  
2171.000000	0.001519  
2170.000000	0.001708  
2169.000000	0.002051  
2168.000000	0.002190  
2167.000000	0.002134  
2166.000000	0.002236  
2165.000000	0.002671  
2164.000000	0.003151  
2163.000000	0.003260  
2162.000000	0.002954  
2161.000000	0.002600  
2160.000000	0.002561  
2159.000000	0.002843  
2158.000000	0.003167  
2157.000000	0.003297  
2156.000000	0.003189  
2155.000000	0.002918  
2154.000000	0.002603  
2153.000000	0.002386  
2152.000000	0.002350  
2151.000000	0.002419  
2150.000000	0.002392  
2149.000000	0.002152  
2148.000000	0.001828  
2147.000000	0.001702  
2146.000000	0.001934  
2145.000000	0.002431  
2144.000000	0.002966  
2143.000000	0.003348  
2142.000000	0.003443  
2141.000000	0.003137  
2140.000000	0.002440  
2139.000000	0.001614  
2138.000000	0.001102  
2137.000000	0.001205  
2136.000000	0.001784  
2135.000000	0.002360  
2134.000000	0.002525  
2133.000000	0.002275  
2132.000000	0.001956  
2131.000000	0.001910  
2130.000000	0.002210  
2129.000000	0.002665  
2128.000000	0.003020  
2127.000000	0.003109  
2126.000000	0.002898  
2125.000000	0.002457  
2124.000000	0.001955  
2123.000000	0.001616  
2122.000000	0.001607  
2121.000000	0.001929  
2120.000000	0.002393  
2119.000000	0.002750  
2118.000000	0.002855  
2117.000000	0.002776  
2116.000000	0.002742  
2115.000000	0.002916  
2114.000000	0.003178  
2113.000000	0.003196  
2112.000000	0.002792  
2111.000000	0.002212  
2110.000000	0.001924  
2109.000000	0.002130  
2108.000000	0.002566  
2107.000000	0.002821  
2106.000000	0.002754  
2105.000000	0.002521  
2104.000000	0.002300  
2103.000000	0.002140  
2102.000000	0.002027  
2101.000000	0.001955  
2100.000000	0.001871  
2099.000000	0.001679  
2098.000000	0.001381  
2097.000000	0.001130  
2096.000000	0.001076  
2095.000000	0.001204  
2094.000000	0.001374  
2093.000000	0.001501  
2092.000000	0.001612  
2091.000000	0.001739  
2090.000000	0.001847  
2089.000000	0.001889  
2088.000000	0.001905  
2087.000000	0.002016  
2086.000000	0.002289  
2085.000000	0.002622  
2084.000000	0.002795  
2083.000000	0.002674  
2082.000000	0.002360  
2081.000000	0.002122  
2080.000000	0.002157  
2079.000000	0.002428  
2078.000000	0.002719  
2077.000000	0.002838  
2076.000000	0.002759  
2075.000000	0.002624  
2074.000000	0.002606  
2073.000000	0.002747  
2072.000000	0.002919  
2071.000000	0.002968  
2070.000000	0.002877  
2069.000000	0.002757  
2068.000000	0.002696  
2067.000000	0.002680  
2066.000000	0.002668  
2065.000000	0.002661  
2064.000000	0.002670  
2063.000000	0.002685  
2062.000000	0.002703  
2061.000000	0.002723  
2060.000000	0.002677  
2059.000000	0.002482  
2058.000000	0.002211  
2057.000000	0.002082  
2056.000000	0.002180  
2055.000000	0.002291  
2054.000000	0.002143  
2053.000000	0.001759  
2052.000000	0.001405  
2051.000000	0.001265  
2050.000000	0.001363  
2049.000000	0.001744  
2048.000000	0.002447  
2047.000000	0.003215  
2046.000000	0.003499  
2045.000000	0.003003  
2044.000000	0.002090  
2043.000000	0.001438  
2042.000000	0.001368  
2041.000000	0.001672  
2040.000000	0.002035  
2039.000000	0.002355  
2038.000000	0.002587  
2037.000000	0.002565  
2036.000000	0.002212  
2035.000000	0.001805  
2034.000000	0.001799  
2033.000000	0.002315  
2032.000000	0.002954  
2031.000000	0.003173  
2030.000000	0.002759  
2029.000000	0.001891  
2028.000000	0.000912  
2027.000000	0.000110  
2026.000000	-0.000352 
2025.000000	-0.000461 
2024.000000	-0.000331 
2023.000000	-0.000048 
2022.000000	0.000441  
2021.000000	0.001162  
2020.000000	0.001885  
2019.000000	0.002240  
2018.000000	0.002099  
2017.000000	0.001686  
2016.000000	0.001265  
2015.000000	0.000897  
2014.000000	0.000641  
2013.000000	0.000727  
2012.000000	0.001225  
2011.000000	0.001707  
2010.000000	0.001587  
2009.000000	0.000811  
2008.000000	-0.000028 
2007.000000	-0.000367 
2006.000000	-0.000180 
2005.000000	0.000249  
2004.000000	0.000767  
2003.000000	0.001378  
2002.000000	0.002050  
2001.000000	0.002667  
2000.000000	0.003073  
1999.000000	0.003070  
1998.000000	0.002524  
1997.000000	0.001615  
1996.000000	0.000843  
1995.000000	0.000600  
1994.000000	0.000838  
1993.000000	0.001236  
1992.000000	0.001592  
1991.000000	0.001916  
1990.000000	0.002201  
1989.000000	0.002380  
1988.000000	0.002500  
1987.000000	0.002695  
1986.000000	0.002984  
1985.000000	0.003262  
1984.000000	0.003518  
1983.000000	0.003845  
1982.000000	0.004186  
1981.000000	0.004279  
1980.000000	0.003988  
1979.000000	0.003505  
1978.000000	0.003063  
1977.000000	0.002626  
1976.000000	0.002092  
1975.000000	0.001618  
1974.000000	0.001451  
1973.000000	0.001525  
1972.000000	0.001536  
1971.000000	0.001378  
1970.000000	0.001244  
1969.000000	0.001270  
1968.000000	0.001327  
1967.000000	0.001284  
1966.000000	0.001250  
1965.000000	0.001402  
1964.000000	0.001699  
1963.000000	0.001959  
1962.000000	0.002094  
1961.000000	0.002155  
1960.000000	0.002213  
1959.000000	0.002313  
1958.000000	0.002465  
1957.000000	0.002590  
1956.000000	0.002505  
1955.000000	0.002102  
1954.000000	0.001544  
1953.000000	0.001179  
1952.000000	0.001244  
1951.000000	0.001691  
1950.000000	0.002269  
1949.000000	0.002710  
1948.000000	0.002849  
1947.000000	0.002702  
1946.000000	0.002450  
1945.000000	0.002297  
1944.000000	0.002301  
1943.000000	0.002365  
1942.000000	0.002384  
1941.000000	0.002343  
1940.000000	0.002252  
1939.000000	0.002111  
1938.000000	0.002008  
1937.000000	0.002104  
1936.000000	0.002445  
1935.000000	0.002855  
1934.000000	0.003101  
1933.000000	0.003140  
1932.000000	0.003116  
1931.000000	0.003143  
1930.000000	0.003175  
1929.000000	0.003115  
1928.000000	0.002952  
1927.000000	0.002738  
1926.000000	0.002507  
1925.000000	0.002284  
1924.000000	0.002122  
1923.000000	0.002081  
1922.000000	0.002174  
1921.000000	0.002383  
1920.000000	0.002679  
1919.000000	0.003009  
1918.000000	0.003275  
1917.000000	0.003415  
1916.000000	0.003436  
1915.000000	0.003307  
1914.000000	0.002948  
1913.000000	0.002396  
1912.000000	0.001882  
1911.000000	0.001658  
1910.000000	0.001760  
1909.000000	0.002019  
1908.000000	0.002292  
1907.000000	0.002537  
1906.000000	0.002701  
1905.000000	0.002693  
1904.000000	0.002515  
1903.000000	0.002313  
1902.000000	0.002244  
1901.000000	0.002331  
1900.000000	0.002475  
1899.000000	0.002564  
1898.000000	0.002553  
1897.000000	0.002477  
1896.000000	0.002413  
1895.000000	0.002420  
1894.000000	0.002491  
1893.000000	0.002586  
1892.000000	0.002697  
1891.000000	0.002843  
1890.000000	0.002999  
1889.000000	0.003092  
1888.000000	0.003074  
1887.000000	0.002954  
1886.000000	0.002771  
1885.000000	0.002606  
1884.000000	0.002548  
1883.000000	0.002601  
1882.000000	0.002659  
1881.000000	0.002623  
1880.000000	0.002510  
1879.000000	0.002402  
1878.000000	0.002341  
1877.000000	0.002322  
1876.000000	0.002371  
1875.000000	0.002531  
1874.000000	0.002770  
1873.000000	0.002970  
1872.000000	0.003045  
1871.000000	0.003001  
1870.000000	0.002868  
1869.000000	0.002657  
1868.000000	0.002443  
1867.000000	0.002350  
1866.000000	0.002400  
1865.000000	0.002504  
1864.000000	0.002581  
1863.000000	0.002611  
1862.000000	0.002607  
1861.000000	0.002572  
1860.000000	0.002532  
1859.000000	0.002556  
1858.000000	0.002688  
1857.000000	0.002875  
1856.000000	0.002994  
1855.000000	0.002938  
1854.000000	0.002698  
1853.000000	0.002401  
1852.000000	0.002234  
1851.000000	0.002285  
1850.000000	0.002455  
1849.000000	0.002556  
1848.000000	0.002504  
1847.000000	0.002408  
1846.000000	0.002438  
1845.000000	0.002642  
1844.000000	0.002887  
1843.000000	0.002999  
1842.000000	0.002941  
1841.000000	0.002792  
1840.000000	0.002653  
1839.000000	0.002602  
1838.000000	0.002663  
1837.000000	0.002772  
1836.000000	0.002843  
1835.000000	0.002847  
1834.000000	0.002802  
1833.000000	0.002694  
1832.000000	0.002471  
1831.000000	0.002176  
1830.000000	0.002016  
1829.000000	0.002137  
1828.000000	0.002428  
1827.000000	0.002685  
1826.000000	0.002808  
1825.000000	0.002813  
1824.000000	0.002789  
1823.000000	0.002828  
1822.000000	0.002931  
1821.000000	0.002985  
1820.000000	0.002865  
1819.000000	0.002604  
1818.000000	0.002394  
1817.000000	0.002376  
1816.000000	0.002503  
1815.000000	0.002632  
1814.000000	0.002693  
1813.000000	0.002699  
1812.000000	0.002686  
1811.000000	0.002705  
1810.000000	0.002796  
1809.000000	0.002932  
1808.000000	0.003046  
1807.000000	0.003090  
1806.000000	0.003059  
1805.000000	0.002998  
1804.000000	0.002983  
1803.000000	0.003069  
1802.000000	0.003244  
1801.000000	0.003425  
1800.000000	0.003547  
1799.000000	0.003618  
1798.000000	0.003640  
1797.000000	0.003597  
1796.000000	0.003512  
1795.000000	0.003436  
1794.000000	0.003393  
1793.000000	0.003357  
1792.000000	0.003294  
1791.000000	0.003237  
1790.000000	0.003234  
1789.000000	0.003271  
1788.000000	0.003308  
1787.000000	0.003331  
1786.000000	0.003358  
1785.000000	0.003399  
1784.000000	0.003415  
1783.000000	0.003355  
1782.000000	0.003257  
1781.000000	0.003260  
1780.000000	0.003457  
1779.000000	0.003763  
1778.000000	0.004003  
1777.000000	0.004097  
1776.000000	0.004086  
1775.000000	0.004028  
1774.000000	0.003955  
1773.000000	0.003896  
1772.000000	0.003859  
1771.000000	0.003837  
1770.000000	0.003868  
1769.000000	0.004003  
1768.000000	0.004212  
1767.000000	0.004400  
1766.000000	0.004518  
1765.000000	0.004618  
1764.000000	0.004769  
1763.000000	0.004993  
1762.000000	0.005275  
1761.000000	0.005593  
1760.000000	0.005917  
1759.000000	0.006226  
1758.000000	0.006564  
1757.000000	0.007027  
1756.000000	0.007636  
1755.000000	0.008319  
1754.000000	0.009110  
1753.000000	0.010219  
1752.000000	0.011863  
1751.000000	0.014047  
1750.000000	0.016725  
1749.000000	0.020054  
1748.000000	0.024098  
1747.000000	0.028579  
1746.000000	0.033222  
1745.000000	0.037903  
1744.000000	0.042265  
1743.000000	0.045620  
1742.000000	0.047451  
1741.000000	0.047568  
1740.000000	0.045906  
1739.000000	0.042892  
1738.000000	0.039488  
1737.000000	0.036180  
1736.000000	0.032602  
1735.000000	0.028115  
1734.000000	0.023238  
1733.000000	0.019401  
1732.000000	0.016819  
1731.000000	0.014835  
1730.000000	0.013158  
1729.000000	0.011834  
1728.000000	0.010862  
1727.000000	0.010104  
1726.000000	0.009437  
1725.000000	0.008808  
1724.000000	0.008202  
1723.000000	0.007656  
1722.000000	0.007222  
1721.000000	0.006904  
1720.000000	0.006643  
1719.000000	0.006432  
1718.000000	0.006303  
1717.000000	0.006133  
1716.000000	0.005863  
1715.000000	0.005646  
1714.000000	0.005547  
1713.000000	0.005482  
1712.000000	0.005357  
1711.000000	0.005163  
1710.000000	0.004961  
1709.000000	0.004783  
1708.000000	0.004618  
1707.000000	0.004495  
1706.000000	0.004495  
1705.000000	0.004618  
1704.000000	0.004819  
1703.000000	0.005086  
1702.000000	0.005378  
1701.000000	0.005523  
1700.000000	0.005430  
1699.000000	0.005276  
1698.000000	0.005184  
1697.000000	0.005072  
1696.000000	0.004907  
1695.000000	0.004825  
1694.000000	0.004811  
1693.000000	0.004750  
1692.000000	0.004630  
1691.000000	0.004518  
1690.000000	0.004485  
1689.000000	0.004518  
1688.000000	0.004559  
1687.000000	0.004564  
1686.000000	0.004512  
1685.000000	0.004409  
1684.000000	0.004339  
1683.000000	0.004371  
1682.000000	0.004459  
1681.000000	0.004542  
1680.000000	0.004564  
1679.000000	0.004530  
1678.000000	0.004440  
1677.000000	0.004305  
1676.000000	0.004166  
1675.000000	0.004139  
1674.000000	0.004271  
1673.000000	0.004465  
1672.000000	0.004621  
1671.000000	0.004711  
1670.000000	0.004775  
1669.000000	0.004875  
1668.000000	0.004990  
1667.000000	0.005068  
1666.000000	0.005130  
1665.000000	0.005223  
1664.000000	0.005359  
1663.000000	0.005514  
1662.000000	0.005635  
1661.000000	0.005712  
1660.000000	0.005760  
1659.000000	0.005788  
1658.000000	0.005768  
1657.000000	0.005733  
1656.000000	0.005694  
1655.000000	0.005671  
1654.000000	0.005751  
1653.000000	0.006095  
1652.000000	0.006486  
1651.000000	0.006595  
1650.000000	0.006583  
1649.000000	0.006608  
1648.000000	0.006735  
1647.000000	0.006818  
1646.000000	0.006744  
1645.000000	0.006546  
1644.000000	0.006325  
1643.000000	0.006168  
1642.000000	0.006151  
1641.000000	0.006229  
1640.000000	0.006299  
1639.000000	0.006294  
1638.000000	0.006228  
1637.000000	0.006158  
1636.000000	0.006135  
1635.000000	0.006140  
1634.000000	0.006128  
1633.000000	0.006090  
1632.000000	0.006039  
1631.000000	0.005980  
1630.000000	0.005898  
1629.000000	0.005828  
1628.000000	0.005808  
1627.000000	0.005832  
1626.000000	0.005872  
1625.000000	0.005921  
1624.000000	0.005973  
1623.000000	0.005991  
1622.000000	0.005962  
1621.000000	0.005938  
1620.000000	0.005951  
1619.000000	0.005968  
1618.000000	0.005945  
1617.000000	0.005909  
1616.000000	0.005921  
1615.000000	0.005930  
1614.000000	0.005891  
1613.000000	0.005849  
1612.000000	0.005849  
1611.000000	0.005888  
1610.000000	0.005932  
1609.000000	0.005970  
1608.000000	0.005996  
1607.000000	0.005981  
1606.000000	0.005914  
1605.000000	0.005836  
1604.000000	0.005776  
1603.000000	0.005718  
1602.000000	0.005647  
1601.000000	0.005583  
1600.000000	0.005524  
1599.000000	0.005427  
1598.000000	0.005294  
1597.000000	0.005190  
1596.000000	0.005172  
1595.000000	0.005217  
1594.000000	0.005272  
1593.000000	0.005340  
1592.000000	0.005458  
1591.000000	0.005615  
1590.000000	0.005744  
1589.000000	0.005807  
1588.000000	0.005823  
1587.000000	0.005822  
1586.000000	0.005830  
1585.000000	0.005862  
1584.000000	0.005915  
1583.000000	0.005959  
1582.000000	0.005981  
1581.000000	0.006017  
1580.000000	0.006113  
1579.000000	0.006259  
1578.000000	0.006384  
1577.000000	0.006412  
1576.000000	0.006344  
1575.000000	0.006261  
1574.000000	0.006266  
1573.000000	0.006402  
1572.000000	0.006596  
1571.000000	0.006713  
1570.000000	0.006678  
1569.000000	0.006594  
1568.000000	0.006548  
1567.000000	0.006492  
1566.000000	0.006356  
1565.000000	0.006182  
1564.000000	0.006009  
1563.000000	0.005869  
1562.000000	0.005748  
1561.000000	0.005657  
1560.000000	0.005696  
1559.000000	0.005782  
1558.000000	0.005687  
1557.000000	0.005651  
1556.000000	0.005803  
1555.000000	0.005930  
1554.000000	0.006048  
1553.000000	0.006036  
1552.000000	0.005916  
1551.000000	0.005696  
1550.000000	0.005500  
1549.000000	0.005414  
1548.000000	0.005428  
1547.000000	0.005465  
1546.000000	0.005505  
1545.000000	0.005536  
1544.000000	0.005524  
1543.000000	0.005482  
1542.000000	0.005510  
1541.000000	0.005587  
1540.000000	0.005567  
1539.000000	0.005502  
1538.000000	0.005521  
1537.000000	0.005599  
1536.000000	0.005643  
1535.000000	0.005602  
1534.000000	0.005467  
1533.000000	0.005326  
1532.000000	0.005250  
1531.000000	0.005246  
1530.000000	0.005251  
1529.000000	0.005239  
1528.000000	0.005241  
1527.000000	0.005327  
1526.000000	0.005530  
1525.000000	0.005757  
1524.000000	0.005878  
1523.000000	0.005885  
1522.000000	0.005912  
1521.000000	0.006036  
1520.000000	0.006156  
1519.000000	0.006168  
1518.000000	0.006118  
1517.000000	0.006104  
1516.000000	0.006166  
1515.000000	0.006310  
1514.000000	0.006540  
1513.000000	0.006818  
1512.000000	0.007038  
1511.000000	0.007149  
1510.000000	0.007225  
1509.000000	0.007406  
1508.000000	0.007712  
1507.000000	0.008044  
1506.000000	0.008417  
1505.000000	0.008756  
1504.000000	0.008883  
1503.000000	0.008838  
1502.000000	0.008794  
1501.000000	0.008762  
1500.000000	0.008699  
1499.000000	0.008661  
1498.000000	0.008937  
1497.000000	0.009579  
1496.000000	0.010146  
1495.000000	0.010370  
1494.000000	0.010482  
1493.000000	0.010678  
1492.000000	0.010851  
1491.000000	0.010870  
1490.000000	0.010890  
1489.000000	0.011113  
1488.000000	0.011477  
1487.000000	0.011872  
1486.000000	0.012316  
1485.000000	0.012853  
1484.000000	0.013449  
1483.000000	0.014103  
1482.000000	0.014933  
1481.000000	0.015977  
1480.000000	0.017088  
1479.000000	0.018219  
1478.000000	0.019586  
1477.000000	0.021373  
1476.000000	0.023484  
1475.000000	0.025954  
1474.000000	0.029510  
1473.000000	0.034982  
1472.000000	0.041846  
1471.000000	0.048758  
1470.000000	0.055216  
1469.000000	0.061215  
1468.000000	0.066512  
1467.000000	0.070899  
1466.000000	0.074510  
1465.000000	0.077480  
1464.000000	0.079638  
1463.000000	0.081001  
1462.000000	0.081937  
1461.000000	0.082712  
1460.000000	0.083396  
1459.000000	0.084075  
1458.000000	0.084812  
1457.000000	0.084911  
1456.000000	0.083576  
1455.000000	0.081291  
1454.000000	0.078766  
1453.000000	0.076063  
1452.000000	0.073191  
1451.000000	0.070386  
1450.000000	0.067851  
1449.000000	0.065367  
1448.000000	0.062643  
1447.000000	0.059780  
1446.000000	0.056987  
1445.000000	0.054169  
1444.000000	0.051151  
1443.000000	0.047986  
1442.000000	0.044896  
1441.000000	0.042067  
1440.000000	0.039544  
1439.000000	0.037203  
1438.000000	0.034793  
1437.000000	0.032225  
1436.000000	0.029871  
1435.000000	0.028075  
1434.000000	0.026618  
1433.000000	0.025103  
1432.000000	0.023413  
1431.000000	0.021694  
1430.000000	0.020136  
1429.000000	0.018816  
1428.000000	0.017769  
1427.000000	0.016995  
1426.000000	0.016414  
1425.000000	0.015950  
1424.000000	0.015594  
1423.000000	0.015337  
1422.000000	0.015112  
1421.000000	0.014815  
1420.000000	0.014415  
1419.000000	0.013996  
1418.000000	0.013649  
1417.000000	0.013352  
1416.000000	0.013067  
1415.000000	0.012794  
1414.000000	0.012537  
1413.000000	0.012282  
1412.000000	0.012022  
1411.000000	0.011750  
1410.000000	0.011493  
1409.000000	0.011307  
1408.000000	0.011255  
1407.000000	0.011343  
1406.000000	0.011502  
1405.000000	0.011665  
1404.000000	0.011838  
1403.000000	0.012061  
1402.000000	0.012320  
1401.000000	0.012587  
1400.000000	0.012882  
1399.000000	0.013215  
1398.000000	0.013539  
1397.000000	0.013821  
1396.000000	0.014092  
1395.000000	0.014387  
1394.000000	0.014730  
1393.000000	0.015141  
1392.000000	0.015633  
1391.000000	0.016231  
1390.000000	0.017001  
1389.000000	0.018099  
1388.000000	0.019721  
1387.000000	0.021845  
1386.000000	0.024177  
1385.000000	0.026541  
1384.000000	0.029072  
1383.000000	0.032002  
1382.000000	0.035423  
1381.000000	0.039205  
1380.000000	0.042963  
1379.000000	0.046019  
1378.000000	0.047676  
1377.000000	0.047631  
1376.000000	0.045986  
1375.000000	0.043038  
1374.000000	0.039378  
1373.000000	0.035845  
1372.000000	0.032996  
1371.000000	0.030893  
1370.000000	0.029435  
1369.000000	0.028582  
1368.000000	0.028203  
1367.000000	0.027962  
1366.000000	0.027472  
1365.000000	0.026516  
1364.000000	0.025115  
1363.000000	0.023503  
1362.000000	0.022016  
1361.000000	0.020889  
1360.000000	0.020143  
1359.000000	0.019661  
1358.000000	0.019319  
1357.000000	0.019061  
1356.000000	0.018893  
1355.000000	0.018825  
1354.000000	0.018813  
1353.000000	0.018788  
1352.000000	0.018721  
1351.000000	0.018624  
1350.000000	0.018489  
1349.000000	0.018307  
1348.000000	0.018084  
1347.000000	0.017832  
1346.000000	0.017559  
1345.000000	0.017295  
1344.000000	0.017088  
1343.000000	0.016952  
1342.000000	0.016844  
1341.000000	0.016711  
1340.000000	0.016513  
1339.000000	0.016222  
1338.000000	0.015846  
1337.000000	0.015438  
1336.000000	0.015058  
1335.000000	0.014734  
1334.000000	0.014454  
1333.000000	0.014204  
1332.000000	0.014001  
1331.000000	0.013860  
1330.000000	0.013750  
1329.000000	0.013640  
1328.000000	0.013548  
1327.000000	0.013508  
1326.000000	0.013514  
1325.000000	0.013548  
1324.000000	0.013607  
1323.000000	0.013691  
1322.000000	0.013777  
1321.000000	0.013844  
1320.000000	0.013908  
1319.000000	0.013996  
1318.000000	0.014102  
1317.000000	0.014203  
1316.000000	0.014295  
1315.000000	0.014399  
1314.000000	0.014526  
1313.000000	0.014668  
1312.000000	0.014813  
1311.000000	0.014959  
1310.000000	0.015112  
1309.000000	0.015275  
1308.000000	0.015451  
1307.000000	0.015623  
1306.000000	0.015754  
1305.000000	0.015815  
1304.000000	0.015801  
1303.000000	0.015732  
1302.000000	0.015636  
1301.000000	0.015535  
1300.000000	0.015447  
1299.000000	0.015364  
1298.000000	0.015260  
1297.000000	0.015118  
1296.000000	0.014946  
1295.000000	0.014755  
1294.000000	0.014533  
1293.000000	0.014273  
1292.000000	0.014013  
1291.000000	0.013831  
1290.000000	0.013777  
1289.000000	0.013830  
1288.000000	0.013921  
1287.000000	0.014000  
1286.000000	0.014079  
1285.000000	0.014197  
1284.000000	0.014365  
1283.000000	0.014559  
1282.000000	0.014742  
1281.000000	0.014899  
1280.000000	0.015032  
1279.000000	0.015150  
1278.000000	0.015269  
1277.000000	0.015403  
1276.000000	0.015555  
1275.000000	0.015702  
1274.000000	0.015829  
1273.000000	0.015953  
1272.000000	0.016103  
1271.000000	0.016271  
1270.000000	0.016404  
1269.000000	0.016468  
1268.000000	0.016474  
1267.000000	0.016444  
1266.000000	0.016388  
1265.000000	0.016317  
1264.000000	0.016266  
1263.000000	0.016280  
1262.000000	0.016383  
1261.000000	0.016544  
1260.000000	0.016692  
1259.000000	0.016763  
1258.000000	0.016752  
1257.000000	0.016717  
1256.000000	0.016711  
1255.000000	0.016745  
1254.000000	0.016820  
1253.000000	0.016965  
1252.000000	0.017207  
1251.000000	0.017498  
1250.000000	0.017750  
1249.000000	0.017937  
1248.000000	0.018132  
1247.000000	0.018406  
1246.000000	0.018736  
1245.000000	0.019023  
1244.000000	0.019192  
1243.000000	0.019232  
1242.000000	0.019174  
1241.000000	0.019061  
1240.000000	0.018921  
1239.000000	0.018756  
1238.000000	0.018543  
1237.000000	0.018270  
1236.000000	0.017970  
1235.000000	0.017691  
1234.000000	0.017444  
1233.000000	0.017186  
1232.000000	0.016878  
1231.000000	0.016536  
1230.000000	0.016214  
1229.000000	0.015947  
1228.000000	0.015742  
1227.000000	0.015588  
1226.000000	0.015470  
1225.000000	0.015364  
1224.000000	0.015256  
1223.000000	0.015151  
1222.000000	0.015066  
1221.000000	0.015000  
1220.000000	0.014936  
1219.000000	0.014875  
1218.000000	0.014855  
1217.000000	0.014914  
1216.000000	0.015044  
1215.000000	0.015188  
1214.000000	0.015288  
1213.000000	0.015327  
1212.000000	0.015343  
1211.000000	0.015404  
1210.000000	0.015556  
1209.000000	0.015769  
1208.000000	0.015957  
1207.000000	0.016060  
1206.000000	0.016119  
1205.000000	0.016220  
1204.000000	0.016388  
1203.000000	0.016575  
1202.000000	0.016748  
1201.000000	0.016955  
1200.000000	0.017260  
1199.000000	0.017668  
1198.000000	0.018138  
1197.000000	0.018631  
1196.000000	0.019131  
1195.000000	0.019632  
1194.000000	0.020141  
1193.000000	0.020683  
1192.000000	0.021243  
1191.000000	0.021761  
1190.000000	0.022197  
1189.000000	0.022610  
1188.000000	0.023105  
1187.000000	0.023722  
1186.000000	0.024403  
1185.000000	0.025083  
1184.000000	0.025744  
1183.000000	0.026396  
1182.000000	0.027037  
1181.000000	0.027645  
1180.000000	0.028195  
1179.000000	0.028662  
1178.000000	0.029044  
1177.000000	0.029366  
1176.000000	0.029647  
1175.000000	0.029872  
1174.000000	0.030002  
1173.000000	0.030022  
1172.000000	0.029945  
1171.000000	0.029788  
1170.000000	0.029559  
1169.000000	0.029261  
1168.000000	0.028899  
1167.000000	0.028478  
1166.000000	0.028018  
1165.000000	0.027531  
1164.000000	0.026988  
1163.000000	0.026337  
1162.000000	0.025584  
1161.000000	0.024838  
1160.000000	0.024221  
1159.000000	0.023734  
1158.000000	0.023271  
1157.000000	0.022749  
1156.000000	0.022183  
1155.000000	0.021610  
1154.000000	0.021022  
1153.000000	0.020393  
1152.000000	0.019763  
1151.000000	0.019218  
1150.000000	0.018818  
1149.000000	0.018558  
1148.000000	0.018382  
1147.000000	0.018211  
1146.000000	0.017981  
1145.000000	0.017664  
1144.000000	0.017275  
1143.000000	0.016838  
1142.000000	0.016366  
1141.000000	0.015886  
1140.000000	0.015435  
1139.000000	0.015038  
1138.000000	0.014705  
1137.000000	0.014445  
1136.000000	0.014261  
1135.000000	0.014098  
1134.000000	0.013867  
1133.000000	0.013541  
1132.000000	0.013211  
1131.000000	0.013002  
1130.000000	0.012972  
1129.000000	0.013099  
1128.000000	0.013331  
1127.000000	0.013597  
1126.000000	0.013822  
1125.000000	0.013980  
1124.000000	0.014124  
1123.000000	0.014303  
1122.000000	0.014489  
1121.000000	0.014611  
1120.000000	0.014650  
1119.000000	0.014642  
1118.000000	0.014609  
1117.000000	0.014553  
1116.000000	0.014486  
1115.000000	0.014418  
1114.000000	0.014317  
1113.000000	0.014137  
1112.000000	0.013890  
1111.000000	0.013628  
1110.000000	0.013370  
1109.000000	0.013103  
1108.000000	0.012861  
1107.000000	0.012742  
1106.000000	0.012806  
1105.000000	0.012988  
1104.000000	0.013153  
1103.000000	0.013217  
1102.000000	0.013214  
1101.000000	0.013241  
1100.000000	0.013352  
1099.000000	0.013518  
1098.000000	0.013643  
1097.000000	0.013683  
1096.000000	0.013695  
1095.000000	0.013757  
1094.000000	0.013847  
1093.000000	0.013871  
1092.000000	0.013788  
1091.000000	0.013659  
1090.000000	0.013543  
1089.000000	0.013416  
1088.000000	0.013232  
1087.000000	0.013016  
1086.000000	0.012851  
1085.000000	0.012778  
1084.000000	0.012754  
1083.000000	0.012692  
1082.000000	0.012540  
1081.000000	0.012339  
1080.000000	0.012208  
1079.000000	0.012257  
1078.000000	0.012483  
1077.000000	0.012778  
1076.000000	0.013046  
1075.000000	0.013290  
1074.000000	0.013552  
1073.000000	0.013822  
1072.000000	0.014050  
1071.000000	0.014215  
1070.000000	0.014354  
1069.000000	0.014510  
1068.000000	0.014681  
1067.000000	0.014827  
1066.000000	0.014903  
1065.000000	0.014902  
1064.000000	0.014850  
1063.000000	0.014777  
1062.000000	0.014663  
1061.000000	0.014458  
1060.000000	0.014157  
1059.000000	0.013841  
1058.000000	0.013619  
1057.000000	0.013528  
1056.000000	0.013531  
1055.000000	0.013561  
1054.000000	0.013547  
1053.000000	0.013398  
1052.000000	0.013056  
1051.000000	0.012594  
1050.000000	0.012212  
1049.000000	0.012064  
1048.000000	0.012122  
1047.000000	0.012244  
1046.000000	0.012328  
1045.000000	0.012364  
1044.000000	0.012395  
1043.000000	0.012467  
1042.000000	0.012612  
1041.000000	0.012813  
1040.000000	0.012990  
1039.000000	0.013051  
1038.000000	0.012983  
1037.000000	0.012863  
1036.000000	0.012793  
1035.000000	0.012819  
1034.000000	0.012929  
1033.000000	0.013072  
1032.000000	0.013187  
1031.000000	0.013227  
1030.000000	0.013200  
1029.000000	0.013165  
1028.000000	0.013174  
1027.000000	0.013225  
1026.000000	0.013281  
1025.000000	0.013305  
1024.000000	0.013266  
1023.000000	0.013142  
1022.000000	0.012953  
1021.000000	0.012763  
1020.000000	0.012612  
1019.000000	0.012468  
1018.000000	0.012273  
1017.000000	0.012038  
1016.000000	0.011855  
1015.000000	0.011795  
1014.000000	0.011834  
1013.000000	0.011877  
1012.000000	0.011834  
1011.000000	0.011683  
1010.000000	0.011479  
1009.000000	0.011327  
1008.000000	0.011294  
1007.000000	0.011356  
1006.000000	0.011431  
1005.000000	0.011468  
1004.000000	0.011476  
1003.000000	0.011480  
1002.000000	0.011473  
1001.000000	0.011423  
1000.000000	0.011304  
999.000000	 0.011101  
998.000000	 0.010839  
997.000000	 0.010603  
996.000000	 0.010492  
995.000000	 0.010527  
994.000000	 0.010620  
993.000000	 0.010659  
992.000000	 0.010604  
991.000000	 0.010507  
990.000000	 0.010459  
989.000000	 0.010526  
988.000000	 0.010706  
987.000000	 0.010907  
986.000000	 0.011006  
985.000000	 0.010965  
984.000000	 0.010872  
983.000000	 0.010847  
982.000000	 0.010933  
981.000000	 0.011092  
980.000000	 0.011276  
979.000000	 0.011467  
978.000000	 0.011657  
977.000000	 0.011843  
976.000000	 0.012019  
975.000000	 0.012170  
974.000000	 0.012270  
973.000000	 0.012324  
972.000000	 0.012395  
971.000000	 0.012544  
970.000000	 0.012763  
969.000000	 0.012983  
968.000000	 0.013138  
967.000000	 0.013202  
966.000000	 0.013167  
965.000000	 0.013033  
964.000000	 0.012835  
963.000000	 0.012637  
962.000000	 0.012497  
961.000000	 0.012426  
960.000000	 0.012387  
959.000000	 0.012328  
958.000000	 0.012231  
957.000000	 0.012136  
956.000000	 0.012102  
955.000000	 0.012133  
954.000000	 0.012163  
953.000000	 0.012134  
952.000000	 0.012075  
951.000000	 0.012060  
950.000000	 0.012104  
949.000000	 0.012152  
948.000000	 0.012159  
947.000000	 0.012147  
946.000000	 0.012162  
945.000000	 0.012203  
944.000000	 0.012222  
943.000000	 0.012182  
942.000000	 0.012080  
941.000000	 0.011933  
940.000000	 0.011740  
939.000000	 0.011484  
938.000000	 0.011172  
937.000000	 0.010855  
936.000000	 0.010594  
935.000000	 0.010408  
934.000000	 0.010287  
933.000000	 0.010250  
932.000000	 0.010335  
931.000000	 0.010507  
930.000000	 0.010634  
929.000000	 0.010599  
928.000000	 0.010450  
927.000000	 0.010351  
926.000000	 0.010420  
925.000000	 0.010620  
924.000000	 0.010831  
923.000000	 0.010964  
922.000000	 0.011001  
921.000000	 0.010965  
920.000000	 0.010888  
919.000000	 0.010805  
918.000000	 0.010753  
917.000000	 0.010764  
916.000000	 0.010844  
915.000000	 0.010950  
914.000000	 0.011005  
913.000000	 0.010945  
912.000000	 0.010769  
911.000000	 0.010548  
910.000000	 0.010383  
909.000000	 0.010353  
908.000000	 0.010452  
907.000000	 0.010570  
906.000000	 0.010565  
905.000000	 0.010409  
904.000000	 0.010219  
903.000000	 0.010132  
902.000000	 0.010170  
901.000000	 0.010253  
900.000000	 0.010324  
899.000000	 0.010397  
898.000000	 0.010490  
897.000000	 0.010580  
896.000000	 0.010632  
895.000000	 0.010649  
894.000000	 0.010649  
893.000000	 0.010639  
892.000000	 0.010625  
891.000000	 0.010623  
890.000000	 0.010645  
889.000000	 0.010686  
888.000000	 0.010722  
887.000000	 0.010718  
886.000000	 0.010649  
885.000000	 0.010524  
884.000000	 0.010401  
883.000000	 0.010350  
882.000000	 0.010393  
881.000000	 0.010492  
880.000000	 0.010596  
879.000000	 0.010692  
878.000000	 0.010783  
877.000000	 0.010860  
876.000000	 0.010885  
875.000000	 0.010827  
874.000000	 0.010680  
873.000000	 0.010462  
872.000000	 0.010205  
871.000000	 0.009965  
870.000000	 0.009849  
869.000000	 0.009964  
868.000000	 0.010302  
867.000000	 0.010671  
866.000000	 0.010833  
865.000000	 0.010711  
864.000000	 0.010437  
863.000000	 0.010187  
862.000000	 0.010031  
861.000000	 0.009968  
860.000000	 0.010006  
859.000000	 0.010136  
858.000000	 0.010270  
857.000000	 0.010318  
856.000000	 0.010316  
855.000000	 0.010398  
854.000000	 0.010638  
853.000000	 0.010963  
852.000000	 0.011261  
851.000000	 0.011503  
850.000000	 0.011720  
849.000000	 0.011913  
848.000000	 0.012034  
847.000000	 0.012061  
846.000000	 0.012038  
845.000000	 0.012033  
844.000000	 0.012050  
843.000000	 0.012029  
842.000000	 0.011923  
841.000000	 0.011774  
840.000000	 0.011669  
839.000000	 0.011659  
838.000000	 0.011719  
837.000000	 0.011776  
836.000000	 0.011730  
835.000000	 0.011474  
834.000000	 0.010991  
833.000000	 0.010448  
832.000000	 0.010100  
831.000000	 0.010044  
830.000000	 0.010123  
829.000000	 0.010160  
828.000000	 0.010212  
827.000000	 0.010453  
826.000000	 0.010854  
825.000000	 0.011154  
824.000000	 0.011181  
823.000000	 0.011039  
822.000000	 0.010935  
821.000000	 0.010962  
820.000000	 0.011114  
819.000000	 0.011366  
818.000000	 0.011676  
817.000000	 0.011999  
816.000000	 0.012300  
815.000000	 0.012533  
814.000000	 0.012601  
813.000000	 0.012430  
812.000000	 0.012105  
811.000000	 0.011858  
810.000000	 0.011876  
809.000000	 0.012151  
808.000000	 0.012525  
807.000000	 0.012830  
806.000000	 0.012961  
805.000000	 0.012887  
804.000000	 0.012643  
803.000000	 0.012302  
802.000000	 0.011929  
801.000000	 0.011563  
800.000000	 0.011246  
799.000000	 0.011002  
798.000000	 0.010804  
797.000000	 0.010594  
796.000000	 0.010355  
795.000000	 0.010136  
794.000000	 0.009992  
793.000000	 0.009950  
792.000000	 0.010041  
791.000000	 0.010275  
790.000000	 0.010577  
789.000000	 0.010782  
788.000000	 0.010797  
787.000000	 0.010717  
786.000000	 0.010753  
785.000000	 0.011019  
784.000000	 0.011437  
783.000000	 0.011843  
782.000000	 0.012149  
781.000000	 0.012398  
780.000000	 0.012684  
779.000000	 0.013038  
778.000000	 0.013417  
777.000000	 0.013767  
776.000000	 0.014094  
775.000000	 0.014435  
774.000000	 0.014797  
773.000000	 0.015139  
772.000000	 0.015425  
771.000000	 0.015664  
770.000000	 0.015888  
769.000000	 0.016110  
768.000000	 0.016306  
767.000000	 0.016407  
766.000000	 0.016332  
765.000000	 0.016058  
764.000000	 0.015678  
763.000000	 0.015379  
762.000000	 0.015329  
761.000000	 0.015551  
760.000000	 0.015903  
759.000000	 0.016187  
758.000000	 0.016312  
757.000000	 0.016356  
756.000000	 0.016471  
755.000000	 0.016717  
754.000000	 0.017017  
753.000000	 0.017262  
752.000000	 0.017419  
751.000000	 0.017523  
750.000000	 0.017626  
749.000000	 0.017791  
748.000000	 0.018110  
747.000000	 0.018676  
746.000000	 0.019543  
745.000000	 0.020714  
744.000000	 0.022114  
743.000000	 0.023551  
742.000000	 0.024765  
741.000000	 0.025585  
740.000000	 0.026045  
739.000000	 0.026295  
738.000000	 0.026422  
737.000000	 0.026425  
736.000000	 0.026335  
735.000000	 0.026266  
734.000000	 0.026338  
733.000000	 0.026601  
732.000000	 0.027023  
731.000000	 0.027508  
730.000000	 0.027957  
729.000000	 0.028410  
728.000000	 0.029066  
727.000000	 0.030083  
726.000000	 0.031397  
725.000000	 0.032771  
724.000000	 0.034006  
723.000000	 0.035009  
722.000000	 0.035634  
721.000000	 0.035525  
720.000000	 0.034326  
719.000000	 0.032142  
718.000000	 0.029589  
717.000000	 0.027328  
716.000000	 0.025699  
715.000000	 0.024653  
714.000000	 0.023885  
713.000000	 0.023108  
712.000000	 0.022237  
711.000000	 0.021374  
710.000000	 0.020674  
709.000000	 0.020252  
708.000000	 0.020122  
707.000000	 0.020171  
706.000000	 0.020297  
705.000000	 0.020533  
704.000000	 0.020944  
703.000000	 0.021426  
702.000000	 0.021730  
701.000000	 0.021732  
700.000000	 0.021590  
699.000000	 0.021460  
698.000000	 0.021218  
697.000000	 0.020615  
696.000000	 0.019687  
695.000000	 0.018845  
694.000000	 0.018406  
693.000000	 0.018184  
692.000000	 0.017688  
691.000000	 0.016641  
690.000000	 0.015267  
689.000000	 0.014042  
688.000000	 0.013194  
687.000000	 0.012574  
686.000000	 0.011959  
685.000000	 0.011379  
684.000000	 0.011057  
683.000000	 0.011068  
682.000000	 0.011237  
681.000000	 0.011343  
680.000000	 0.011300  
679.000000	 0.011092  
678.000000	 0.010776  
677.000000	 0.010625  
676.000000	 0.010729  
675.000000	 0.010940  
674.000000	 0.011090  
673.000000	 0.010960  
672.000000	 0.009901  
671.000000	 0.006533  
670.000000	 -0.000304 
669.000000	 -0.010524 
668.000000	 -0.018419 
667.000000	 -0.014774 
666.000000	 -0.004485 
665.000000	 0.003364  
664.000000	 0.007419  
663.000000	 0.009098  
662.000000	 0.009643  
661.000000	 0.009525  
660.000000	 0.009080  
659.000000	 0.008813  
658.000000	 0.008892  
657.000000	 0.008923  
656.000000	 0.008342  
655.000000	 0.007318  
654.000000	 0.006688  
653.000000	 0.006974  
652.000000	 0.007816  
651.000000	 0.008472  
650.000000	 0.008608  

