PE IR                   SPECTRUM    ASCII       PEDS        1.60        
  -1
NB4-12~3.ASC
17/04/10
13:33:01.00
17/04/10
13:33:01.00
Admin

650.000000
6









SPECTRUM ONE,CPU32 MAIN 00.02.5000 17-APRIL-2002 13:00:00
MIR TGS
MIR
OPTKBR
68128
0.200000

4.000000
STRONG
RATIO
SPECTRUM
MAGNITUDE

DOUBLE

COMBINED


0


#HDR
-1
-1
#GR
CM-1
A
0.00000011920928955078
0.0
4000.000000
-1.000000
3351
8
0.213544
-0.009553
#DATA
4000.000000	0.001247  
3999.000000	0.001229  
3998.000000	0.001183  
3997.000000	0.001286  
3996.000000	0.001485  
3995.000000	0.001723  
3994.000000	0.001907  
3993.000000	0.001969  
3992.000000	0.001899  
3991.000000	0.001746  
3990.000000	0.001579  
3989.000000	0.001437  
3988.000000	0.001322  
3987.000000	0.001230  
3986.000000	0.001188  
3985.000000	0.001225  
3984.000000	0.001315  
3983.000000	0.001359  
3982.000000	0.001265  
3981.000000	0.001050  
3980.000000	0.000846  
3979.000000	0.000790  
3978.000000	0.000918  
3977.000000	0.001149  
3976.000000	0.001375  
3975.000000	0.001537  
3974.000000	0.001628  
3973.000000	0.001645  
3972.000000	0.001580  
3971.000000	0.001459  
3970.000000	0.001343  
3969.000000	0.001283  
3968.000000	0.001263  
3967.000000	0.001228  
3966.000000	0.001155  
3965.000000	0.001100  
3964.000000	0.001136  
3963.000000	0.001274  
3962.000000	0.001438  
3961.000000	0.001542  
3960.000000	0.001566  
3959.000000	0.001548  
3958.000000	0.001528  
3957.000000	0.001501  
3956.000000	0.001447  
3955.000000	0.001372  
3954.000000	0.001311  
3953.000000	0.001296  
3952.000000	0.001329  
3951.000000	0.001383  
3950.000000	0.001445  
3949.000000	0.001522  
3948.000000	0.001622  
3947.000000	0.001709  
3946.000000	0.001723  
3945.000000	0.001635  
3944.000000	0.001490  
3943.000000	0.001376  
3942.000000	0.001332  
3941.000000	0.001338  
3940.000000	0.001366  
3939.000000	0.001417  
3938.000000	0.001504  
3937.000000	0.001612  
3936.000000	0.001701  
3935.000000	0.001756  
3934.000000	0.001796  
3933.000000	0.001844  
3932.000000	0.001889  
3931.000000	0.001899  
3930.000000	0.001866  
3929.000000	0.001806  
3928.000000	0.001741  
3927.000000	0.001690  
3926.000000	0.001676  
3925.000000	0.001716  
3924.000000	0.001797  
3923.000000	0.001897  
3922.000000	0.002011  
3921.000000	0.002141  
3920.000000	0.002260  
3919.000000	0.002320  
3918.000000	0.002289  
3917.000000	0.002191  
3916.000000	0.002080  
3915.000000	0.001984  
3914.000000	0.001892  
3913.000000	0.001767  
3912.000000	0.001596  
3911.000000	0.001413  
3910.000000	0.001299  
3909.000000	0.001327  
3908.000000	0.001506  
3907.000000	0.001785  
3906.000000	0.002089  
3905.000000	0.002364  
3904.000000	0.002558  
3903.000000	0.002610  
3902.000000	0.002494  
3901.000000	0.002287  
3900.000000	0.002124  
3899.000000	0.002074  
3898.000000	0.002087  
3897.000000	0.002065  
3896.000000	0.001958  
3895.000000	0.001773  
3894.000000	0.001554  
3893.000000	0.001372  
3892.000000	0.001303  
3891.000000	0.001355  
3890.000000	0.001462  
3889.000000	0.001557  
3888.000000	0.001615  
3887.000000	0.001655  
3886.000000	0.001717  
3885.000000	0.001786  
3884.000000	0.001809  
3883.000000	0.001761  
3882.000000	0.001682  
3881.000000	0.001640  
3880.000000	0.001653  
3879.000000	0.001688  
3878.000000	0.001721  
3877.000000	0.001761  
3876.000000	0.001831  
3875.000000	0.001965  
3874.000000	0.002159  
3873.000000	0.002356  
3872.000000	0.002518  
3871.000000	0.002671  
3870.000000	0.002834  
3869.000000	0.002926  
3868.000000	0.002862  
3867.000000	0.002658  
3866.000000	0.002413  
3865.000000	0.002232  
3864.000000	0.002161  
3863.000000	0.002169  
3862.000000	0.002193  
3861.000000	0.002166  
3860.000000	0.002069  
3859.000000	0.001948  
3858.000000	0.001886  
3857.000000	0.001915  
3856.000000	0.001946  
3855.000000	0.001842  
3854.000000	0.001674  
3853.000000	0.001588  
3852.000000	0.001588  
3851.000000	0.001647  
3850.000000	0.001769  
3849.000000	0.001942  
3848.000000	0.002140  
3847.000000	0.002327  
3846.000000	0.002487  
3845.000000	0.002648  
3844.000000	0.002847  
3843.000000	0.003064  
3842.000000	0.003219  
3841.000000	0.003237  
3840.000000	0.003111  
3839.000000	0.002889  
3838.000000	0.002642  
3837.000000	0.002444  
3836.000000	0.002348  
3835.000000	0.002368  
3834.000000	0.002473  
3833.000000	0.002595  
3832.000000	0.002663  
3831.000000	0.002648  
3830.000000	0.002574  
3829.000000	0.002486  
3828.000000	0.002411  
3827.000000	0.002364  
3826.000000	0.002362  
3825.000000	0.002432  
3824.000000	0.002602  
3823.000000	0.002875  
3822.000000	0.003206  
3821.000000	0.003426  
3820.000000	0.003301  
3819.000000	0.002793  
3818.000000	0.002117  
3817.000000	0.001614  
3816.000000	0.001501  
3815.000000	0.001667  
3814.000000	0.001856  
3813.000000	0.001934  
3812.000000	0.001908  
3811.000000	0.001814  
3810.000000	0.001652  
3809.000000	0.001450  
3808.000000	0.001340  
3807.000000	0.001478  
3806.000000	0.001846  
3805.000000	0.002260  
3804.000000	0.002519  
3803.000000	0.002517  
3802.000000	0.002331  
3801.000000	0.002124  
3800.000000	0.001989  
3799.000000	0.001940  
3798.000000	0.001958  
3797.000000	0.002026  
3796.000000	0.002106  
3795.000000	0.002139  
3794.000000	0.002092  
3793.000000	0.001979  
3792.000000	0.001844  
3791.000000	0.001729  
3790.000000	0.001659  
3789.000000	0.001637  
3788.000000	0.001655  
3787.000000	0.001704  
3786.000000	0.001775  
3785.000000	0.001837  
3784.000000	0.001850  
3783.000000	0.001796  
3782.000000	0.001710  
3781.000000	0.001664  
3780.000000	0.001716  
3779.000000	0.001835  
3778.000000	0.001924  
3777.000000	0.001926  
3776.000000	0.001864  
3775.000000	0.001788  
3774.000000	0.001726  
3773.000000	0.001677  
3772.000000	0.001674  
3771.000000	0.001794  
3770.000000	0.002064  
3769.000000	0.002366  
3768.000000	0.002508  
3767.000000	0.002392  
3766.000000	0.002086  
3765.000000	0.001773  
3764.000000	0.001602  
3763.000000	0.001614  
3762.000000	0.001769  
3761.000000	0.001991  
3760.000000	0.002204  
3759.000000	0.002352  
3758.000000	0.002413  
3757.000000	0.002377  
3756.000000	0.002260  
3755.000000	0.002158  
3754.000000	0.002275  
3753.000000	0.002789  
3752.000000	0.003593  
3751.000000	0.004206  
3750.000000	0.004253  
3749.000000	0.003884  
3748.000000	0.003447  
3747.000000	0.003141  
3746.000000	0.003012  
3745.000000	0.003025  
3744.000000	0.003046  
3743.000000	0.002975  
3742.000000	0.002878  
3741.000000	0.002895  
3740.000000	0.003116  
3739.000000	0.003518  
3738.000000	0.003948  
3737.000000	0.004203  
3736.000000	0.004160  
3735.000000	0.003873  
3734.000000	0.003543  
3733.000000	0.003349  
3732.000000	0.003317  
3731.000000	0.003380  
3730.000000	0.003474  
3729.000000	0.003560  
3728.000000	0.003600  
3727.000000	0.003571  
3726.000000	0.003472  
3725.000000	0.003334  
3724.000000	0.003194  
3723.000000	0.003051  
3722.000000	0.002866  
3721.000000	0.002603  
3720.000000	0.002267  
3719.000000	0.001914  
3718.000000	0.001627  
3717.000000	0.001462  
3716.000000	0.001413  
3715.000000	0.001434  
3714.000000	0.001491  
3713.000000	0.001614  
3712.000000	0.001848  
3711.000000	0.002122  
3710.000000	0.002272  
3709.000000	0.002257  
3708.000000	0.002197  
3707.000000	0.002238  
3706.000000	0.002386  
3705.000000	0.002481  
3704.000000	0.002331  
3703.000000	0.001910  
3702.000000	0.001428  
3701.000000	0.001142  
3700.000000	0.001134  
3699.000000	0.001298  
3698.000000	0.001500  
3697.000000	0.001666  
3696.000000	0.001813  
3695.000000	0.001990  
3694.000000	0.002203  
3693.000000	0.002377  
3692.000000	0.002406  
3691.000000	0.002289  
3690.000000	0.002162  
3689.000000	0.002146  
3688.000000	0.002182  
3687.000000	0.002168  
3686.000000	0.002082  
3685.000000	0.002005  
3684.000000	0.002033  
3683.000000	0.002168  
3682.000000	0.002310  
3681.000000	0.002367  
3680.000000	0.002343  
3679.000000	0.002297  
3678.000000	0.002283  
3677.000000	0.002351  
3676.000000	0.002542  
3675.000000	0.002742  
3674.000000	0.002813  
3673.000000	0.002783  
3672.000000	0.002774  
3671.000000	0.002845  
3670.000000	0.002920  
3669.000000	0.002851  
3668.000000	0.002611  
3667.000000	0.002315  
3666.000000	0.002065  
3665.000000	0.001859  
3664.000000	0.001631  
3663.000000	0.001350  
3662.000000	0.001069  
3661.000000	0.000871  
3660.000000	0.000791  
3659.000000	0.000818  
3658.000000	0.000957  
3657.000000	0.001257  
3656.000000	0.001711  
3655.000000	0.002210  
3654.000000	0.002623  
3653.000000	0.002857  
3652.000000	0.002867  
3651.000000	0.002708  
3650.000000	0.002532  
3649.000000	0.002440  
3648.000000	0.002422  
3647.000000	0.002428  
3646.000000	0.002409  
3645.000000	0.002344  
3644.000000	0.002262  
3643.000000	0.002223  
3642.000000	0.002263  
3641.000000	0.002345  
3640.000000	0.002380  
3639.000000	0.002312  
3638.000000	0.002160  
3637.000000	0.002006  
3636.000000	0.001956  
3635.000000	0.002083  
3634.000000	0.002359  
3633.000000	0.002645  
3632.000000	0.002801  
3631.000000	0.002808  
3630.000000	0.002824  
3629.000000	0.002973  
3628.000000	0.003073  
3627.000000	0.002941  
3626.000000	0.002657  
3625.000000	0.002414  
3624.000000	0.002320  
3623.000000	0.002311  
3622.000000	0.002234  
3621.000000	0.002010  
3620.000000	0.001746  
3619.000000	0.001625  
3618.000000	0.001682  
3617.000000	0.001818  
3616.000000	0.001941  
3615.000000	0.002041  
3614.000000	0.002173  
3613.000000	0.002372  
3612.000000	0.002608  
3611.000000	0.002831  
3610.000000	0.002990  
3609.000000	0.003032  
3608.000000	0.002913  
3607.000000	0.002620  
3606.000000	0.002199  
3605.000000	0.001737  
3604.000000	0.001342  
3603.000000	0.001129  
3602.000000	0.001197  
3601.000000	0.001565  
3600.000000	0.002118  
3599.000000	0.002656  
3598.000000	0.002997  
3597.000000	0.003062  
3596.000000	0.002911  
3595.000000	0.002704  
3594.000000	0.002575  
3593.000000	0.002540  
3592.000000	0.002519  
3591.000000	0.002446  
3590.000000	0.002333  
3589.000000	0.002286  
3588.000000	0.002400  
3587.000000	0.002605  
3586.000000	0.002721  
3585.000000	0.002656  
3584.000000	0.002442  
3583.000000	0.002161  
3582.000000	0.001910  
3581.000000	0.001779  
3580.000000	0.001805  
3579.000000	0.001932  
3578.000000	0.002031  
3577.000000	0.002009  
3576.000000	0.001881  
3575.000000	0.001725  
3574.000000	0.001577  
3573.000000	0.001411  
3572.000000	0.001221  
3571.000000	0.001106  
3570.000000	0.001223  
3569.000000	0.001639  
3568.000000	0.002189  
3567.000000	0.002546  
3566.000000	0.002553  
3565.000000	0.002354  
3564.000000	0.002154  
3563.000000	0.002015  
3562.000000	0.001898  
3561.000000	0.001789  
3560.000000	0.001743  
3559.000000	0.001805  
3558.000000	0.001941  
3557.000000	0.002044  
3556.000000	0.002020  
3555.000000	0.001854  
3554.000000	0.001620  
3553.000000	0.001434  
3552.000000	0.001378  
3551.000000	0.001442  
3550.000000	0.001548  
3549.000000	0.001610  
3548.000000	0.001596  
3547.000000	0.001546  
3546.000000	0.001543  
3545.000000	0.001626  
3544.000000	0.001755  
3543.000000	0.001862  
3542.000000	0.001931  
3541.000000	0.002005  
3540.000000	0.002112  
3539.000000	0.002200  
3538.000000	0.002164  
3537.000000	0.001964  
3536.000000	0.001688  
3535.000000	0.001487  
3534.000000	0.001447  
3533.000000	0.001548  
3532.000000	0.001714  
3531.000000	0.001882  
3530.000000	0.002033  
3529.000000	0.002164  
3528.000000	0.002259  
3527.000000	0.002271  
3526.000000	0.002153  
3525.000000	0.001901  
3524.000000	0.001594  
3523.000000	0.001361  
3522.000000	0.001291  
3521.000000	0.001373  
3520.000000	0.001526  
3519.000000	0.001679  
3518.000000	0.001805  
3517.000000	0.001898  
3516.000000	0.001954  
3515.000000	0.001989  
3514.000000	0.002036  
3513.000000	0.002112  
3512.000000	0.002187  
3511.000000	0.002208  
3510.000000	0.002154  
3509.000000	0.002054  
3508.000000	0.001955  
3507.000000	0.001898  
3506.000000	0.001906  
3505.000000	0.001974  
3504.000000	0.002050  
3503.000000	0.002064  
3502.000000	0.002001  
3501.000000	0.001916  
3500.000000	0.001877  
3499.000000	0.001910  
3498.000000	0.001990  
3497.000000	0.002063  
3496.000000	0.002078  
3495.000000	0.002025  
3494.000000	0.001944  
3493.000000	0.001871  
3492.000000	0.001789  
3491.000000	0.001650  
3490.000000	0.001472  
3489.000000	0.001355  
3488.000000	0.001404  
3487.000000	0.001630  
3486.000000	0.001961  
3485.000000	0.002298  
3484.000000	0.002537  
3483.000000	0.002582  
3482.000000	0.002421  
3481.000000	0.002172  
3480.000000	0.001998  
3479.000000	0.001961  
3478.000000	0.001990  
3477.000000	0.001992  
3476.000000	0.001956  
3475.000000	0.001933  
3474.000000	0.001949  
3473.000000	0.001965  
3472.000000	0.001916  
3471.000000	0.001781  
3470.000000	0.001603  
3469.000000	0.001453  
3468.000000	0.001381  
3467.000000	0.001388  
3466.000000	0.001453  
3465.000000	0.001556  
3464.000000	0.001670  
3463.000000	0.001754  
3462.000000	0.001773  
3461.000000	0.001731  
3460.000000	0.001664  
3459.000000	0.001607  
3458.000000	0.001583  
3457.000000	0.001621  
3456.000000	0.001734  
3455.000000	0.001895  
3454.000000	0.002043  
3453.000000	0.002140  
3452.000000	0.002191  
3451.000000	0.002211  
3450.000000	0.002199  
3449.000000	0.002161  
3448.000000	0.002126  
3447.000000	0.002126  
3446.000000	0.002162  
3445.000000	0.002218  
3444.000000	0.002266  
3443.000000	0.002271  
3442.000000	0.002214  
3441.000000	0.002137  
3440.000000	0.002137  
3439.000000	0.002270  
3438.000000	0.002472  
3437.000000	0.002583  
3436.000000	0.002482  
3435.000000	0.002196  
3434.000000	0.001904  
3433.000000	0.001800  
3432.000000	0.001935  
3431.000000	0.002174  
3430.000000	0.002319  
3429.000000	0.002286  
3428.000000	0.002144  
3427.000000	0.002001  
3426.000000	0.001906  
3425.000000	0.001856  
3424.000000	0.001843  
3423.000000	0.001868  
3422.000000	0.001919  
3421.000000	0.001978  
3420.000000	0.002032  
3419.000000	0.002060  
3418.000000	0.002049  
3417.000000	0.002016  
3416.000000	0.002010  
3415.000000	0.002050  
3414.000000	0.002107  
3413.000000	0.002149  
3412.000000	0.002198  
3411.000000	0.002286  
3410.000000	0.002373  
3409.000000	0.002352  
3408.000000	0.002154  
3407.000000	0.001833  
3406.000000	0.001544  
3405.000000	0.001430  
3404.000000	0.001530  
3403.000000	0.001772  
3402.000000	0.002049  
3401.000000	0.002290  
3400.000000	0.002467  
3399.000000	0.002552  
3398.000000	0.002518  
3397.000000	0.002399  
3396.000000	0.002303  
3395.000000	0.002337  
3394.000000	0.002505  
3393.000000	0.002710  
3392.000000	0.002837  
3391.000000	0.002838  
3390.000000	0.002740  
3389.000000	0.002612  
3388.000000	0.002504  
3387.000000	0.002409  
3386.000000	0.002292  
3385.000000	0.002164  
3384.000000	0.002108  
3383.000000	0.002201  
3382.000000	0.002416  
3381.000000	0.002644  
3380.000000	0.002788  
3379.000000	0.002815  
3378.000000	0.002716  
3377.000000	0.002491  
3376.000000	0.002187  
3375.000000	0.001915  
3374.000000	0.001784  
3373.000000	0.001818  
3372.000000	0.001950  
3371.000000	0.002110  
3370.000000	0.002286  
3369.000000	0.002499  
3368.000000	0.002735  
3367.000000	0.002918  
3366.000000	0.002969  
3365.000000	0.002889  
3364.000000	0.002754  
3363.000000	0.002641  
3362.000000	0.002566  
3361.000000	0.002519  
3360.000000	0.002498  
3359.000000	0.002505  
3358.000000	0.002508  
3357.000000	0.002484  
3356.000000	0.002449  
3355.000000	0.002437  
3354.000000	0.002431  
3353.000000	0.002381  
3352.000000	0.002277  
3351.000000	0.002171  
3350.000000	0.002105  
3349.000000	0.002073  
3348.000000	0.002074  
3347.000000	0.002144  
3346.000000	0.002312  
3345.000000	0.002532  
3344.000000	0.002707  
3343.000000	0.002779  
3342.000000	0.002763  
3341.000000	0.002699  
3340.000000	0.002598  
3339.000000	0.002453  
3338.000000	0.002281  
3337.000000	0.002146  
3336.000000	0.002112  
3335.000000	0.002180  
3334.000000	0.002280  
3333.000000	0.002348  
3332.000000	0.002383  
3331.000000	0.002422  
3330.000000	0.002467  
3329.000000	0.002494  
3328.000000	0.002505  
3327.000000	0.002532  
3326.000000	0.002583  
3325.000000	0.002612  
3324.000000	0.002585  
3323.000000	0.002518  
3322.000000	0.002450  
3321.000000	0.002397  
3320.000000	0.002372  
3319.000000	0.002420  
3318.000000	0.002575  
3317.000000	0.002787  
3316.000000	0.002931  
3315.000000	0.002915  
3314.000000	0.002764  
3313.000000	0.002590  
3312.000000	0.002508  
3311.000000	0.002561  
3310.000000	0.002700  
3309.000000	0.002805  
3308.000000	0.002754  
3307.000000	0.002523  
3306.000000	0.002238  
3305.000000	0.002092  
3304.000000	0.002185  
3303.000000	0.002438  
3302.000000	0.002673  
3301.000000	0.002779  
3300.000000	0.002774  
3299.000000	0.002716  
3298.000000	0.002623  
3297.000000	0.002483  
3296.000000	0.002333  
3295.000000	0.002241  
3294.000000	0.002248  
3293.000000	0.002343  
3292.000000	0.002497  
3291.000000	0.002668  
3290.000000	0.002782  
3289.000000	0.002758  
3288.000000	0.002592  
3287.000000	0.002379  
3286.000000	0.002215  
3285.000000	0.002109  
3284.000000	0.002026  
3283.000000	0.001968  
3282.000000	0.001967  
3281.000000	0.002024  
3280.000000	0.002091  
3279.000000	0.002136  
3278.000000	0.002182  
3277.000000	0.002270  
3276.000000	0.002420  
3275.000000	0.002623  
3274.000000	0.002848  
3273.000000	0.003033  
3272.000000	0.003110  
3271.000000	0.003051  
3270.000000	0.002895  
3269.000000	0.002704  
3268.000000	0.002499  
3267.000000	0.002280  
3266.000000	0.002082  
3265.000000	0.001991  
3264.000000	0.002064  
3263.000000	0.002258  
3262.000000	0.002455  
3261.000000	0.002574  
3260.000000	0.002639  
3259.000000	0.002724  
3258.000000	0.002851  
3257.000000	0.002970  
3256.000000	0.003019  
3255.000000	0.002987  
3254.000000	0.002920  
3253.000000	0.002881  
3252.000000	0.002904  
3251.000000	0.002961  
3250.000000	0.002988  
3249.000000	0.002959  
3248.000000	0.002926  
3247.000000	0.002953  
3246.000000	0.003024  
3245.000000	0.003054  
3244.000000	0.003001  
3243.000000	0.002910  
3242.000000	0.002844  
3241.000000	0.002811  
3240.000000	0.002775  
3239.000000	0.002704  
3238.000000	0.002576  
3237.000000	0.002389  
3236.000000	0.002196  
3235.000000	0.002089  
3234.000000	0.002119  
3233.000000	0.002245  
3232.000000	0.002396  
3231.000000	0.002544  
3230.000000	0.002681  
3229.000000	0.002766  
3228.000000	0.002764  
3227.000000	0.002721  
3226.000000	0.002736  
3225.000000	0.002847  
3224.000000	0.002996  
3223.000000	0.003104  
3222.000000	0.003130  
3221.000000	0.003060  
3220.000000	0.002900  
3219.000000	0.002700  
3218.000000	0.002550  
3217.000000	0.002514  
3216.000000	0.002578  
3215.000000	0.002678  
3214.000000	0.002754  
3213.000000	0.002785  
3212.000000	0.002790  
3211.000000	0.002809  
3210.000000	0.002869  
3209.000000	0.002959  
3208.000000	0.003044  
3207.000000	0.003106  
3206.000000	0.003154  
3205.000000	0.003201  
3204.000000	0.003237  
3203.000000	0.003257  
3202.000000	0.003255  
3201.000000	0.003201  
3200.000000	0.003050  
3199.000000	0.002798  
3198.000000	0.002506  
3197.000000	0.002252  
3196.000000	0.002078  
3195.000000	0.001990  
3194.000000	0.001991  
3193.000000	0.002072  
3192.000000	0.002191  
3191.000000	0.002303  
3190.000000	0.002418  
3189.000000	0.002581  
3188.000000	0.002802  
3187.000000	0.003024  
3186.000000	0.003175  
3185.000000	0.003233  
3184.000000	0.003211  
3183.000000	0.003111  
3182.000000	0.002930  
3181.000000	0.002700  
3180.000000	0.002499  
3179.000000	0.002385  
3178.000000	0.002355  
3177.000000	0.002385  
3176.000000	0.002471  
3175.000000	0.002615  
3174.000000	0.002773  
3173.000000	0.002874  
3172.000000	0.002883  
3171.000000	0.002833  
3170.000000	0.002786  
3169.000000	0.002776  
3168.000000	0.002802  
3167.000000	0.002844  
3166.000000	0.002876  
3165.000000	0.002887  
3164.000000	0.002883  
3163.000000	0.002882  
3162.000000	0.002879  
3161.000000	0.002857  
3160.000000	0.002821  
3159.000000	0.002807  
3158.000000	0.002838  
3157.000000	0.002890  
3156.000000	0.002927  
3155.000000	0.002943  
3154.000000	0.002969  
3153.000000	0.003030  
3152.000000	0.003101  
3151.000000	0.003113  
3150.000000	0.003005  
3149.000000	0.002789  
3148.000000	0.002568  
3147.000000	0.002447  
3146.000000	0.002434  
3145.000000	0.002451  
3144.000000	0.002438  
3143.000000	0.002409  
3142.000000	0.002398  
3141.000000	0.002398  
3140.000000	0.002400  
3139.000000	0.002440  
3138.000000	0.002562  
3137.000000	0.002740  
3136.000000	0.002881  
3135.000000	0.002912  
3134.000000	0.002832  
3133.000000	0.002705  
3132.000000	0.002623  
3131.000000	0.002657  
3130.000000	0.002801  
3129.000000	0.002966  
3128.000000	0.003050  
3127.000000	0.003019  
3126.000000	0.002909  
3125.000000	0.002775  
3124.000000	0.002681  
3123.000000	0.002695  
3122.000000	0.002840  
3121.000000	0.003034  
3120.000000	0.003135  
3119.000000	0.003063  
3118.000000	0.002867  
3117.000000	0.002664  
3116.000000	0.002559  
3115.000000	0.002600  
3114.000000	0.002763  
3113.000000	0.002956  
3112.000000	0.003079  
3111.000000	0.003105  
3110.000000	0.003085  
3109.000000	0.003068  
3108.000000	0.003042  
3107.000000	0.002964  
3106.000000	0.002829  
3105.000000	0.002689  
3104.000000	0.002624  
3103.000000	0.002684  
3102.000000	0.002844  
3101.000000	0.002990  
3100.000000	0.003001  
3099.000000	0.002860  
3098.000000	0.002670  
3097.000000	0.002564  
3096.000000	0.002599  
3095.000000	0.002744  
3094.000000	0.002919  
3093.000000	0.003046  
3092.000000	0.003079  
3091.000000	0.003037  
3090.000000	0.002983  
3089.000000	0.002955  
3088.000000	0.002945  
3087.000000	0.002940  
3086.000000	0.002953  
3085.000000	0.002991  
3084.000000	0.003020  
3083.000000	0.003005  
3082.000000	0.002966  
3081.000000	0.002969  
3080.000000	0.003062  
3079.000000	0.003237  
3078.000000	0.003448  
3077.000000	0.003630  
3076.000000	0.003722  
3075.000000	0.003702  
3074.000000	0.003611  
3073.000000	0.003519  
3072.000000	0.003483  
3071.000000	0.003524  
3070.000000	0.003640  
3069.000000	0.003804  
3068.000000	0.003952  
3067.000000	0.004027  
3066.000000	0.004026  
3065.000000	0.004013  
3064.000000	0.004054  
3063.000000	0.004158  
3062.000000	0.004263  
3061.000000	0.004298  
3060.000000	0.004243  
3059.000000	0.004140  
3058.000000	0.004054  
3057.000000	0.004006  
3056.000000	0.003976  
3055.000000	0.003963  
3054.000000	0.003990  
3053.000000	0.004058  
3052.000000	0.004112  
3051.000000	0.004103  
3050.000000	0.004057  
3049.000000	0.004055  
3048.000000	0.004147  
3047.000000	0.004301  
3046.000000	0.004454  
3045.000000	0.004561  
3044.000000	0.004604  
3043.000000	0.004597  
3042.000000	0.004575  
3041.000000	0.004584  
3040.000000	0.004647  
3039.000000	0.004751  
3038.000000	0.004868  
3037.000000	0.004972  
3036.000000	0.005049  
3035.000000	0.005084  
3034.000000	0.005071  
3033.000000	0.005023  
3032.000000	0.004989  
3031.000000	0.005038  
3030.000000	0.005205  
3029.000000	0.005442  
3028.000000	0.005655  
3027.000000	0.005796  
3026.000000	0.005908  
3025.000000	0.006062  
3024.000000	0.006284  
3023.000000	0.006551  
3022.000000	0.006832  
3021.000000	0.007084  
3020.000000	0.007259  
3019.000000	0.007352  
3018.000000	0.007451  
3017.000000	0.007662  
3016.000000	0.007997  
3015.000000	0.008356  
3014.000000	0.008643  
3013.000000	0.008839  
3012.000000	0.008968  
3011.000000	0.009048  
3010.000000	0.009106  
3009.000000	0.009189  
3008.000000	0.009329  
3007.000000	0.009499  
3006.000000	0.009641  
3005.000000	0.009699  
3004.000000	0.009634  
3003.000000	0.009458  
3002.000000	0.009264  
3001.000000	0.009202  
3000.000000	0.009354  
2999.000000	0.009642  
2998.000000	0.009890  
2997.000000	0.009985  
2996.000000	0.009955  
2995.000000	0.009926  
2994.000000	0.010022  
2993.000000	0.010305  
2992.000000	0.010762  
2991.000000	0.011320  
2990.000000	0.011902  
2989.000000	0.012478  
2988.000000	0.013076  
2987.000000	0.013750  
2986.000000	0.014548  
2985.000000	0.015490  
2984.000000	0.016563  
2983.000000	0.017729  
2982.000000	0.018963  
2981.000000	0.020281  
2980.000000	0.021724  
2979.000000	0.023326  
2978.000000	0.025126  
2977.000000	0.027189  
2976.000000	0.029593  
2975.000000	0.032381  
2974.000000	0.035546  
2973.000000	0.039068  
2972.000000	0.042923  
2971.000000	0.047081  
2970.000000	0.051525  
2969.000000	0.056298  
2968.000000	0.061468  
2967.000000	0.067004  
2966.000000	0.072704  
2965.000000	0.078310  
2964.000000	0.083680  
2963.000000	0.088818  
2962.000000	0.093749  
2961.000000	0.098435  
2960.000000	0.102800  
2959.000000	0.106756  
2958.000000	0.110164  
2957.000000	0.112841  
2956.000000	0.114657  
2955.000000	0.115602  
2954.000000	0.115726  
2953.000000	0.115060  
2952.000000	0.113646  
2951.000000	0.111626  
2950.000000	0.109258  
2949.000000	0.106834  
2948.000000	0.104585  
2947.000000	0.102663  
2946.000000	0.101198  
2945.000000	0.100343  
2944.000000	0.100274  
2943.000000	0.101124  
2942.000000	0.102938  
2941.000000	0.105692  
2940.000000	0.109317  
2939.000000	0.113733  
2938.000000	0.118844  
2937.000000	0.124550  
2936.000000	0.130756  
2935.000000	0.137361  
2934.000000	0.144259  
2933.000000	0.151390  
2932.000000	0.158772  
2931.000000	0.166429  
2930.000000	0.174270  
2929.000000	0.182051  
2928.000000	0.189464  
2927.000000	0.196230  
2926.000000	0.202120  
2925.000000	0.206950  
2924.000000	0.210570  
2923.000000	0.212821  
2922.000000	0.213544  
2921.000000	0.212700  
2920.000000	0.210471  
2919.000000	0.207165  
2918.000000	0.203023  
2917.000000	0.198188  
2916.000000	0.192839  
2915.000000	0.187250  
2914.000000	0.181670  
2913.000000	0.176214  
2912.000000	0.170912  
2911.000000	0.165816  
2910.000000	0.161001  
2909.000000	0.156474  
2908.000000	0.152132  
2907.000000	0.147837  
2906.000000	0.143525  
2905.000000	0.139236  
2904.000000	0.135061  
2903.000000	0.131058  
2902.000000	0.127230  
2901.000000	0.123537  
2900.000000	0.119924  
2899.000000	0.116335  
2898.000000	0.112751  
2897.000000	0.109215  
2896.000000	0.105799  
2895.000000	0.102538  
2894.000000	0.099382  
2893.000000	0.096227  
2892.000000	0.092995  
2891.000000	0.089703  
2890.000000	0.086471  
2889.000000	0.083484  
2888.000000	0.080886  
2887.000000	0.078714  
2886.000000	0.076917  
2885.000000	0.075452  
2884.000000	0.074332  
2883.000000	0.073616  
2882.000000	0.073369  
2881.000000	0.073666  
2880.000000	0.074602  
2879.000000	0.076263  
2878.000000	0.078657  
2877.000000	0.081673  
2876.000000	0.085069  
2875.000000	0.088513  
2874.000000	0.091648  
2873.000000	0.094172  
2872.000000	0.095914  
2871.000000	0.096877  
2870.000000	0.097225  
2869.000000	0.097253  
2868.000000	0.097291  
2867.000000	0.097594  
2866.000000	0.098308  
2865.000000	0.099553  
2864.000000	0.101472  
2863.000000	0.104161  
2862.000000	0.107573  
2861.000000	0.111544  
2860.000000	0.115922  
2859.000000	0.120600  
2858.000000	0.125384  
2857.000000	0.129903  
2856.000000	0.133664  
2855.000000	0.136192  
2854.000000	0.137127  
2853.000000	0.136289  
2852.000000	0.133717  
2851.000000	0.129636  
2850.000000	0.124342  
2849.000000	0.118126  
2848.000000	0.111284  
2847.000000	0.104140  
2846.000000	0.097005  
2845.000000	0.090080  
2844.000000	0.083407  
2843.000000	0.076937  
2842.000000	0.070656  
2841.000000	0.064648  
2840.000000	0.059040  
2839.000000	0.053905  
2838.000000	0.049254  
2837.000000	0.045064  
2836.000000	0.041305  
2835.000000	0.037912  
2834.000000	0.034811  
2833.000000	0.031977  
2832.000000	0.029460  
2831.000000	0.027330  
2830.000000	0.025591  
2829.000000	0.024152  
2828.000000	0.022883  
2827.000000	0.021687  
2826.000000	0.020536  
2825.000000	0.019451  
2824.000000	0.018463  
2823.000000	0.017590  
2822.000000	0.016840  
2821.000000	0.016217  
2820.000000	0.015705  
2819.000000	0.015253  
2818.000000	0.014794  
2817.000000	0.014286  
2816.000000	0.013740  
2815.000000	0.013202  
2814.000000	0.012709  
2813.000000	0.012263  
2812.000000	0.011845  
2811.000000	0.011446  
2810.000000	0.011088  
2809.000000	0.010803  
2808.000000	0.010601  
2807.000000	0.010453  
2806.000000	0.010315  
2805.000000	0.010149  
2804.000000	0.009925  
2803.000000	0.009632  
2802.000000	0.009290  
2801.000000	0.008963  
2800.000000	0.008718  
2799.000000	0.008578  
2798.000000	0.008505  
2797.000000	0.008450  
2796.000000	0.008393  
2795.000000	0.008331  
2794.000000	0.008232  
2793.000000	0.008042  
2792.000000	0.007731  
2791.000000	0.007347  
2790.000000	0.007002  
2789.000000	0.006787  
2788.000000	0.006708  
2787.000000	0.006699  
2786.000000	0.006691  
2785.000000	0.006660  
2784.000000	0.006610  
2783.000000	0.006547  
2782.000000	0.006484  
2781.000000	0.006457  
2780.000000	0.006492  
2779.000000	0.006546  
2778.000000	0.006519  
2777.000000	0.006340  
2776.000000	0.006034  
2775.000000	0.005705  
2774.000000	0.005472  
2773.000000	0.005392  
2772.000000	0.005441  
2771.000000	0.005534  
2770.000000	0.005584  
2769.000000	0.005551  
2768.000000	0.005444  
2767.000000	0.005292  
2766.000000	0.005125  
2765.000000	0.004998  
2764.000000	0.004966  
2763.000000	0.005030  
2762.000000	0.005114  
2761.000000	0.005137  
2760.000000	0.005080  
2759.000000	0.004990  
2758.000000	0.004915  
2757.000000	0.004866  
2756.000000	0.004838  
2755.000000	0.004819  
2754.000000	0.004792  
2753.000000	0.004746  
2752.000000	0.004687  
2751.000000	0.004641  
2750.000000	0.004631  
2749.000000	0.004666  
2748.000000	0.004725  
2747.000000	0.004764  
2746.000000	0.004740  
2745.000000	0.004662  
2744.000000	0.004595  
2743.000000	0.004599  
2742.000000	0.004667  
2741.000000	0.004761  
2740.000000	0.004868  
2739.000000	0.004995  
2738.000000	0.005117  
2737.000000	0.005182  
2736.000000	0.005184  
2735.000000	0.005185  
2734.000000	0.005237  
2733.000000	0.005327  
2732.000000	0.005396  
2731.000000	0.005412  
2730.000000	0.005393  
2729.000000	0.005376  
2728.000000	0.005386  
2727.000000	0.005412  
2726.000000	0.005416  
2725.000000	0.005367  
2724.000000	0.005285  
2723.000000	0.005220  
2722.000000	0.005195  
2721.000000	0.005187  
2720.000000	0.005172  
2719.000000	0.005161  
2718.000000	0.005166  
2717.000000	0.005170  
2716.000000	0.005143  
2715.000000	0.005073  
2714.000000	0.004959  
2713.000000	0.004785  
2712.000000	0.004564  
2711.000000	0.004361  
2710.000000	0.004254  
2709.000000	0.004258  
2708.000000	0.004320  
2707.000000	0.004386  
2706.000000	0.004428  
2705.000000	0.004424  
2704.000000	0.004352  
2703.000000	0.004215  
2702.000000	0.004057  
2701.000000	0.003923  
2700.000000	0.003830  
2699.000000	0.003786  
2698.000000	0.003811  
2697.000000	0.003904  
2696.000000	0.004026  
2695.000000	0.004119  
2694.000000	0.004154  
2693.000000	0.004141  
2692.000000	0.004102  
2691.000000	0.004067  
2690.000000	0.004072  
2689.000000	0.004151  
2688.000000	0.004297  
2687.000000	0.004458  
2686.000000	0.004572  
2685.000000	0.004619  
2684.000000	0.004627  
2683.000000	0.004636  
2682.000000	0.004648  
2681.000000	0.004625  
2680.000000	0.004541  
2679.000000	0.004419  
2678.000000	0.004333  
2677.000000	0.004352  
2676.000000	0.004491  
2675.000000	0.004692  
2674.000000	0.004862  
2673.000000	0.004932  
2672.000000	0.004902  
2671.000000	0.004827  
2670.000000	0.004763  
2669.000000	0.004741  
2668.000000	0.004766  
2667.000000	0.004833  
2666.000000	0.004917  
2665.000000	0.004988  
2664.000000	0.005025  
2663.000000	0.005013  
2662.000000	0.004930  
2661.000000	0.004764  
2660.000000	0.004548  
2659.000000	0.004354  
2658.000000	0.004222  
2657.000000	0.004146  
2656.000000	0.004115  
2655.000000	0.004148  
2654.000000	0.004235  
2653.000000	0.004302  
2652.000000	0.004269  
2651.000000	0.004167  
2650.000000	0.004103  
2649.000000	0.004143  
2648.000000	0.004240  
2647.000000	0.004308  
2646.000000	0.004305  
2645.000000	0.004237  
2644.000000	0.004145  
2643.000000	0.004092  
2642.000000	0.004130  
2641.000000	0.004241  
2640.000000	0.004321  
2639.000000	0.004281  
2638.000000	0.004129  
2637.000000	0.003941  
2636.000000	0.003798  
2635.000000	0.003750  
2634.000000	0.003822  
2633.000000	0.003989  
2632.000000	0.004158  
2631.000000	0.004214  
2630.000000	0.004109  
2629.000000	0.003897  
2628.000000	0.003700  
2627.000000	0.003632  
2626.000000	0.003718  
2625.000000	0.003868  
2624.000000	0.003938  
2623.000000	0.003856  
2622.000000	0.003686  
2621.000000	0.003534  
2620.000000	0.003436  
2619.000000	0.003356  
2618.000000	0.003280  
2617.000000	0.003248  
2616.000000	0.003289  
2615.000000	0.003380  
2614.000000	0.003478  
2613.000000	0.003566  
2612.000000	0.003644  
2611.000000	0.003711  
2610.000000	0.003774  
2609.000000	0.003849  
2608.000000	0.003952  
2607.000000	0.004059  
2606.000000	0.004117  
2605.000000	0.004065  
2604.000000	0.003882  
2603.000000	0.003614  
2602.000000	0.003377  
2601.000000	0.003296  
2600.000000	0.003408  
2599.000000	0.003616  
2598.000000	0.003759  
2597.000000	0.003748  
2596.000000	0.003622  
2595.000000	0.003486  
2594.000000	0.003390  
2593.000000	0.003287  
2592.000000	0.003119  
2591.000000	0.002925  
2590.000000	0.002809  
2589.000000	0.002824  
2588.000000	0.002907  
2587.000000	0.002966  
2586.000000	0.002986  
2585.000000	0.003002  
2584.000000	0.003015  
2583.000000	0.002976  
2582.000000	0.002868  
2581.000000	0.002740  
2580.000000	0.002657  
2579.000000	0.002649  
2578.000000	0.002713  
2577.000000	0.002836  
2576.000000	0.002973  
2575.000000	0.003044  
2574.000000	0.003002  
2573.000000	0.002896  
2572.000000	0.002832  
2571.000000	0.002859  
2570.000000	0.002915  
2569.000000	0.002907  
2568.000000	0.002808  
2567.000000	0.002675  
2566.000000	0.002560  
2565.000000	0.002466  
2564.000000	0.002366  
2563.000000	0.002256  
2562.000000	0.002168  
2561.000000	0.002134  
2560.000000	0.002158  
2559.000000	0.002211  
2558.000000	0.002272  
2557.000000	0.002343  
2556.000000	0.002437  
2555.000000	0.002530  
2554.000000	0.002550  
2553.000000	0.002461  
2552.000000	0.002350  
2551.000000	0.002381  
2550.000000	0.002631  
2549.000000	0.002997  
2548.000000	0.003280  
2547.000000	0.003347  
2546.000000	0.003172  
2545.000000	0.002814  
2544.000000	0.002403  
2543.000000	0.002117  
2542.000000	0.002061  
2541.000000	0.002158  
2540.000000	0.002234  
2539.000000	0.002227  
2538.000000	0.002238  
2537.000000	0.002351  
2536.000000	0.002485  
2535.000000	0.002493  
2534.000000	0.002358  
2533.000000	0.002213  
2532.000000	0.002165  
2531.000000	0.002184  
2530.000000	0.002156  
2529.000000	0.002016  
2528.000000	0.001821  
2527.000000	0.001718  
2526.000000	0.001820  
2525.000000	0.002103  
2524.000000	0.002424  
2523.000000	0.002653  
2522.000000	0.002750  
2521.000000	0.002719  
2520.000000	0.002561  
2519.000000	0.002312  
2518.000000	0.002095  
2517.000000	0.002042  
2516.000000	0.002173  
2515.000000	0.002388  
2514.000000	0.002578  
2513.000000	0.002700  
2512.000000	0.002736  
2511.000000	0.002672  
2510.000000	0.002514  
2509.000000	0.002324  
2508.000000	0.002187  
2507.000000	0.002168  
2506.000000	0.002272  
2505.000000	0.002423  
2504.000000	0.002504  
2503.000000	0.002454  
2502.000000	0.002349  
2501.000000	0.002338  
2500.000000	0.002467  
2499.000000	0.002607  
2498.000000	0.002558  
2497.000000	0.002227  
2496.000000	0.001710  
2495.000000	0.001237  
2494.000000	0.001021  
2493.000000	0.001135  
2492.000000	0.001481  
2491.000000	0.001875  
2490.000000	0.002184  
2489.000000	0.002378  
2488.000000	0.002492  
2487.000000	0.002546  
2486.000000	0.002518  
2485.000000	0.002364  
2484.000000	0.002087  
2483.000000	0.001788  
2482.000000	0.001641  
2481.000000	0.001773  
2480.000000	0.002140  
2479.000000	0.002535  
2478.000000	0.002734  
2477.000000	0.002651  
2476.000000	0.002371  
2475.000000	0.002078  
2474.000000	0.001919  
2473.000000	0.001917  
2472.000000	0.001989  
2471.000000	0.002033  
2470.000000	0.002004  
2469.000000	0.001918  
2468.000000	0.001839  
2467.000000	0.001851  
2466.000000	0.002001  
2465.000000	0.002220  
2464.000000	0.002349  
2463.000000	0.002294  
2462.000000	0.002116  
2461.000000	0.001952  
2460.000000	0.001876  
2459.000000	0.001897  
2458.000000	0.002030  
2457.000000	0.002255  
2456.000000	0.002429  
2455.000000	0.002376  
2454.000000	0.002091  
2453.000000	0.001767  
2452.000000	0.001573  
2451.000000	0.001486  
2450.000000	0.001397  
2449.000000	0.001309  
2448.000000	0.001328  
2447.000000	0.001497  
2446.000000	0.001730  
2445.000000	0.001910  
2444.000000	0.001989  
2443.000000	0.001995  
2442.000000	0.001996  
2441.000000	0.002038  
2440.000000	0.002103  
2439.000000	0.002125  
2438.000000	0.002084  
2437.000000	0.002047  
2436.000000	0.002076  
2435.000000	0.002110  
2434.000000	0.002024  
2433.000000	0.001798  
2432.000000	0.001585  
2431.000000	0.001550  
2430.000000	0.001703  
2429.000000	0.001908  
2428.000000	0.002045  
2427.000000	0.002108  
2426.000000	0.002156  
2425.000000	0.002208  
2424.000000	0.002216  
2423.000000	0.002130  
2422.000000	0.001957  
2421.000000	0.001763  
2420.000000	0.001619  
2419.000000	0.001563  
2418.000000	0.001601  
2417.000000	0.001707  
2416.000000	0.001836  
2415.000000	0.001948  
2414.000000	0.002038  
2413.000000	0.002119  
2412.000000	0.002188  
2411.000000	0.002220  
2410.000000	0.002223  
2409.000000	0.002262  
2408.000000	0.002392  
2407.000000	0.002562  
2406.000000	0.002623  
2405.000000	0.002468  
2404.000000	0.002143  
2403.000000	0.001813  
2402.000000	0.001615  
2401.000000	0.001563  
2400.000000	0.001591  
2399.000000	0.001667  
2398.000000	0.001824  
2397.000000	0.002070  
2396.000000	0.002332  
2395.000000	0.002507  
2394.000000	0.002564  
2393.000000	0.002571  
2392.000000	0.002608  
2391.000000	0.002692  
2390.000000	0.002779  
2389.000000	0.002831  
2388.000000	0.002877  
2387.000000	0.003005  
2386.000000	0.003300  
2385.000000	0.003737  
2384.000000	0.004138  
2383.000000	0.004249  
2382.000000	0.003909  
2381.000000	0.003173  
2380.000000	0.002284  
2379.000000	0.001527  
2378.000000	0.001091  
2377.000000	0.000997  
2376.000000	0.001199  
2375.000000	0.001686  
2374.000000	0.002460  
2373.000000	0.003415  
2372.000000	0.004295  
2371.000000	0.004856  
2370.000000	0.005033  
2369.000000	0.004842  
2368.000000	0.004285  
2367.000000	0.003530  
2366.000000	0.003012  
2365.000000	0.002963  
2364.000000	0.003077  
2363.000000	0.003103  
2362.000000	0.003095  
2361.000000	0.003293  
2360.000000	0.003975  
2359.000000	0.004814  
2358.000000	0.005334  
2357.000000	0.005255  
2356.000000	0.004714  
2355.000000	0.004180  
2354.000000	0.003621  
2353.000000	0.002787  
2352.000000	0.001256  
2351.000000	-0.000796 
2350.000000	-0.002297 
2349.000000	-0.002480 
2348.000000	-0.001182 
2347.000000	0.000642  
2346.000000	0.002299  
2345.000000	0.003682  
2344.000000	0.004693  
2343.000000	0.005271  
2342.000000	0.004883  
2341.000000	0.003886  
2340.000000	0.003112  
2339.000000	0.002995  
2338.000000	0.003080  
2337.000000	0.002867  
2336.000000	0.002378  
2335.000000	0.002056  
2334.000000	0.001951  
2333.000000	0.002118  
2332.000000	0.002568  
2331.000000	0.003394  
2330.000000	0.004552  
2329.000000	0.005455  
2328.000000	0.006092  
2327.000000	0.006426  
2326.000000	0.006635  
2325.000000	0.006658  
2324.000000	0.006310  
2323.000000	0.005819  
2322.000000	0.005286  
2321.000000	0.005098  
2320.000000	0.005315  
2319.000000	0.005920  
2318.000000	0.006532  
2317.000000	0.006756  
2316.000000	0.006415  
2315.000000	0.005687  
2314.000000	0.005011  
2313.000000	0.004715  
2312.000000	0.004877  
2311.000000	0.005255  
2310.000000	0.005625  
2309.000000	0.005867  
2308.000000	0.005982  
2307.000000	0.005934  
2306.000000	0.005664  
2305.000000	0.005239  
2304.000000	0.004826  
2303.000000	0.004615  
2302.000000	0.004605  
2301.000000	0.004646  
2300.000000	0.004616  
2299.000000	0.004541  
2298.000000	0.004580  
2297.000000	0.004752  
2296.000000	0.004930  
2295.000000	0.004917  
2294.000000	0.004716  
2293.000000	0.004466  
2292.000000	0.004278  
2291.000000	0.004097  
2290.000000	0.003841  
2289.000000	0.003529  
2288.000000	0.003211  
2287.000000	0.002849  
2286.000000	0.002385  
2285.000000	0.001925  
2284.000000	0.001685  
2283.000000	0.001755  
2282.000000	0.001971  
2281.000000	0.002120  
2280.000000	0.002166  
2279.000000	0.002217  
2278.000000	0.002300  
2277.000000	0.002347  
2276.000000	0.002366  
2275.000000	0.002520  
2274.000000	0.002951  
2273.000000	0.003558  
2272.000000	0.004049  
2271.000000	0.004195  
2270.000000	0.003997  
2269.000000	0.003600  
2268.000000	0.003104  
2267.000000	0.002553  
2266.000000	0.002057  
2265.000000	0.001814  
2264.000000	0.001946  
2263.000000	0.002344  
2262.000000	0.002765  
2261.000000	0.003038  
2260.000000	0.003126  
2259.000000	0.003061  
2258.000000	0.002901  
2257.000000	0.002768  
2256.000000	0.002772  
2255.000000	0.002884  
2254.000000	0.002938  
2253.000000	0.002830  
2252.000000	0.002645  
2251.000000	0.002522  
2250.000000	0.002475  
2249.000000	0.002387  
2248.000000	0.002142  
2247.000000	0.001719  
2246.000000	0.001223  
2245.000000	0.000855  
2244.000000	0.000807  
2243.000000	0.001108  
2242.000000	0.001588  
2241.000000	0.002038  
2240.000000	0.002369  
2239.000000	0.002594  
2238.000000	0.002692  
2237.000000	0.002596  
2236.000000	0.002311  
2235.000000	0.001967  
2234.000000	0.001732  
2233.000000	0.001685  
2232.000000	0.001782  
2231.000000	0.001919  
2230.000000	0.002008  
2229.000000	0.002030  
2228.000000	0.002024  
2227.000000	0.002017  
2226.000000	0.001981  
2225.000000	0.001864  
2224.000000	0.001632  
2223.000000	0.001282  
2222.000000	0.000882  
2221.000000	0.000615  
2220.000000	0.000703  
2219.000000	0.001165  
2218.000000	0.001729  
2217.000000	0.002068  
2216.000000	0.002120  
2215.000000	0.002068  
2214.000000	0.002028  
2213.000000	0.001921  
2212.000000	0.001700  
2211.000000	0.001518  
2210.000000	0.001523  
2209.000000	0.001590  
2208.000000	0.001442  
2207.000000	0.001060  
2206.000000	0.000808  
2205.000000	0.001048  
2204.000000	0.001741  
2203.000000	0.002511  
2202.000000	0.003051  
2201.000000	0.003351  
2200.000000	0.003559  
2199.000000	0.003736  
2198.000000	0.003823  
2197.000000	0.003757  
2196.000000	0.003531  
2195.000000	0.003169  
2194.000000	0.002718  
2193.000000	0.002286  
2192.000000	0.001973  
2191.000000	0.001763  
2190.000000	0.001558  
2189.000000	0.001351  
2188.000000	0.001271  
2187.000000	0.001384  
2186.000000	0.001544  
2185.000000	0.001529  
2184.000000	0.001329  
2183.000000	0.001189  
2182.000000	0.001358  
2181.000000	0.001869  
2180.000000	0.002524  
2179.000000	0.003050  
2178.000000	0.003258  
2177.000000	0.003162  
2176.000000	0.002953  
2175.000000	0.002765  
2174.000000	0.002496  
2173.000000	0.002002  
2172.000000	0.001445  
2171.000000	0.001240  
2170.000000	0.001568  
2169.000000	0.002073  
2168.000000	0.002214  
2167.000000	0.001883  
2166.000000	0.001501  
2165.000000	0.001502  
2164.000000	0.001859  
2163.000000	0.002216  
2162.000000	0.002331  
2161.000000	0.002255  
2160.000000	0.002154  
2159.000000	0.002108  
2158.000000	0.002125  
2157.000000	0.002221  
2156.000000	0.002394  
2155.000000	0.002572  
2154.000000	0.002657  
2153.000000	0.002616  
2152.000000	0.002509  
2151.000000	0.002408  
2150.000000	0.002320  
2149.000000	0.002215  
2148.000000	0.002094  
2147.000000	0.002012  
2146.000000	0.002033  
2145.000000	0.002175  
2144.000000	0.002376  
2143.000000	0.002495  
2142.000000	0.002370  
2141.000000	0.001943  
2140.000000	0.001361  
2139.000000	0.000925  
2138.000000	0.000885  
2137.000000	0.001233  
2136.000000	0.001688  
2135.000000	0.001926  
2134.000000	0.001849  
2133.000000	0.001647  
2132.000000	0.001580  
2131.000000	0.001720  
2130.000000	0.001929  
2129.000000	0.002063  
2128.000000	0.002139  
2127.000000	0.002235  
2126.000000	0.002298  
2125.000000	0.002170  
2124.000000	0.001821  
2123.000000	0.001470  
2122.000000	0.001405  
2121.000000	0.001698  
2120.000000	0.002135  
2119.000000	0.002407  
2118.000000	0.002367  
2117.000000	0.002141  
2116.000000	0.002023  
2115.000000	0.002210  
2114.000000	0.002574  
2113.000000	0.002752  
2112.000000	0.002527  
2111.000000	0.002086  
2110.000000	0.001825  
2109.000000	0.001898  
2108.000000	0.002088  
2107.000000	0.002116  
2106.000000	0.001960  
2105.000000	0.001788  
2104.000000	0.001706  
2103.000000	0.001677  
2102.000000	0.001656  
2101.000000	0.001636  
2100.000000	0.001570  
2099.000000	0.001373  
2098.000000	0.001050  
2097.000000	0.000752  
2096.000000	0.000627  
2095.000000	0.000665  
2094.000000	0.000737  
2093.000000	0.000774  
2092.000000	0.000807  
2091.000000	0.000872  
2090.000000	0.000930  
2089.000000	0.000949  
2088.000000	0.001019  
2087.000000	0.001305  
2086.000000	0.001837  
2085.000000	0.002385  
2084.000000	0.002605  
2083.000000	0.002348  
2082.000000	0.001817  
2081.000000	0.001420  
2080.000000	0.001442  
2079.000000	0.001825  
2078.000000	0.002231  
2077.000000	0.002321  
2076.000000	0.002037  
2075.000000	0.001657  
2074.000000	0.001539  
2073.000000	0.001780  
2072.000000	0.002141  
2071.000000	0.002336  
2070.000000	0.002320  
2069.000000	0.002238  
2068.000000	0.002173  
2067.000000	0.002075  
2066.000000	0.001936  
2065.000000	0.001895  
2064.000000	0.002073  
2063.000000	0.002392  
2062.000000	0.002643  
2061.000000	0.002665  
2060.000000	0.002430  
2059.000000	0.002017  
2058.000000	0.001592  
2057.000000	0.001332  
2056.000000	0.001273  
2055.000000	0.001261  
2054.000000	0.001146  
2053.000000	0.000986  
2052.000000	0.000952  
2051.000000	0.001073  
2050.000000	0.001251  
2049.000000	0.001500  
2048.000000	0.001974  
2047.000000	0.002614  
2046.000000	0.002983  
2045.000000	0.002679  
2044.000000	0.001846  
2043.000000	0.001064  
2042.000000	0.000760  
2041.000000	0.000908  
2040.000000	0.001269  
2039.000000	0.001712  
2038.000000	0.002165  
2037.000000	0.002453  
2036.000000	0.002430  
2035.000000	0.002225  
2034.000000	0.002155  
2033.000000	0.002365  
2032.000000	0.002647  
2031.000000	0.002669  
2030.000000	0.002280  
2029.000000	0.001576  
2028.000000	0.000780  
2027.000000	0.000111  
2026.000000	-0.000296 
2025.000000	-0.000457 
2024.000000	-0.000493 
2023.000000	-0.000451 
2022.000000	-0.000187 
2021.000000	0.000428  
2020.000000	0.001229  
2019.000000	0.001784  
2018.000000	0.001783  
2017.000000	0.001328  
2016.000000	0.000806  
2015.000000	0.000536  
2014.000000	0.000630  
2013.000000	0.001049  
2012.000000	0.001558  
2011.000000	0.001720  
2010.000000	0.001203  
2009.000000	0.000203  
2008.000000	-0.000619 
2007.000000	-0.000780 
2006.000000	-0.000400 
2005.000000	0.000086  
2004.000000	0.000477  
2003.000000	0.000909  
2002.000000	0.001558  
2001.000000	0.002397  
2000.000000	0.003164  
1999.000000	0.003483  
1998.000000	0.003082  
1997.000000	0.002081  
1996.000000	0.001017  
1995.000000	0.000410  
1994.000000	0.000344  
1993.000000	0.000523  
1992.000000	0.000682  
1991.000000	0.000814  
1990.000000	0.000991  
1989.000000	0.001208  
1988.000000	0.001465  
1987.000000	0.001819  
1986.000000	0.002246  
1985.000000	0.002610  
1984.000000	0.002834  
1983.000000	0.002983  
1982.000000	0.003093  
1981.000000	0.003062  
1980.000000	0.002850  
1979.000000	0.002616  
1978.000000	0.002474  
1977.000000	0.002242  
1976.000000	0.001699  
1975.000000	0.000991  
1974.000000	0.000486  
1973.000000	0.000313  
1972.000000	0.000308  
1971.000000	0.000359  
1970.000000	0.000523  
1969.000000	0.000758  
1968.000000	0.000834  
1967.000000	0.000644  
1966.000000	0.000403  
1965.000000	0.000379  
1964.000000	0.000576  
1963.000000	0.000828  
1962.000000	0.001036  
1961.000000	0.001193  
1960.000000	0.001303  
1959.000000	0.001378  
1958.000000	0.001440  
1957.000000	0.001439  
1956.000000	0.001255  
1955.000000	0.000894  
1954.000000	0.000589  
1953.000000	0.000602  
1952.000000	0.000947  
1951.000000	0.001415  
1950.000000	0.001796  
1949.000000	0.002009  
1948.000000	0.002048  
1947.000000	0.001960  
1946.000000	0.001850  
1945.000000	0.001804  
1944.000000	0.001788  
1943.000000	0.001700  
1942.000000	0.001544  
1941.000000	0.001434  
1940.000000	0.001410  
1939.000000	0.001395  
1938.000000	0.001364  
1937.000000	0.001434  
1936.000000	0.001717  
1935.000000	0.002136  
1934.000000	0.002484  
1933.000000	0.002632  
1932.000000	0.002614  
1931.000000	0.002521  
1930.000000	0.002377  
1929.000000	0.002167  
1928.000000	0.001911  
1927.000000	0.001667  
1926.000000	0.001479  
1925.000000	0.001367  
1924.000000	0.001349  
1923.000000	0.001447  
1922.000000	0.001667  
1921.000000	0.001991  
1920.000000	0.002370  
1919.000000	0.002699  
1918.000000	0.002854  
1917.000000	0.002819  
1916.000000	0.002688  
1915.000000	0.002510  
1914.000000	0.002238  
1913.000000	0.001872  
1912.000000	0.001550  
1911.000000	0.001430  
1910.000000	0.001502  
1909.000000	0.001604  
1908.000000	0.001629  
1907.000000	0.001611  
1906.000000	0.001603  
1905.000000	0.001583  
1904.000000	0.001534  
1903.000000	0.001518  
1902.000000	0.001628  
1901.000000	0.001863  
1900.000000	0.002101  
1899.000000	0.002202  
1898.000000	0.002127  
1897.000000	0.001964  
1896.000000	0.001858  
1895.000000	0.001897  
1894.000000	0.002049  
1893.000000	0.002219  
1892.000000	0.002342  
1891.000000	0.002403  
1890.000000	0.002411  
1889.000000	0.002385  
1888.000000	0.002357  
1887.000000	0.002328  
1886.000000	0.002268  
1885.000000	0.002172  
1884.000000	0.002071  
1883.000000	0.001989  
1882.000000	0.001908  
1881.000000	0.001810  
1880.000000	0.001723  
1879.000000	0.001666  
1878.000000	0.001612  
1877.000000	0.001553  
1876.000000	0.001569  
1875.000000	0.001749  
1874.000000	0.002051  
1873.000000	0.002310  
1872.000000	0.002402  
1871.000000	0.002338  
1870.000000	0.002186  
1869.000000	0.002002  
1868.000000	0.001857  
1867.000000	0.001830  
1866.000000	0.001921  
1865.000000	0.002059  
1864.000000	0.002178  
1863.000000	0.002260  
1862.000000	0.002295  
1861.000000	0.002259  
1860.000000	0.002156  
1859.000000	0.002056  
1858.000000	0.002040  
1857.000000	0.002118  
1856.000000	0.002215  
1855.000000	0.002215  
1854.000000	0.002057  
1853.000000	0.001821  
1852.000000	0.001690  
1851.000000	0.001776  
1850.000000	0.001987  
1849.000000	0.002101  
1848.000000	0.002013  
1847.000000	0.001860  
1846.000000	0.001853  
1845.000000	0.002054  
1844.000000	0.002303  
1843.000000	0.002394  
1842.000000	0.002282  
1841.000000	0.002056  
1840.000000	0.001835  
1839.000000	0.001738  
1838.000000	0.001821  
1837.000000	0.002009  
1836.000000	0.002154  
1835.000000	0.002186  
1834.000000	0.002141  
1833.000000	0.002054  
1832.000000	0.001904  
1831.000000	0.001718  
1830.000000	0.001643  
1829.000000	0.001778  
1828.000000	0.002024  
1827.000000	0.002221  
1826.000000	0.002292  
1825.000000	0.002260  
1824.000000	0.002216  
1823.000000	0.002252  
1822.000000	0.002367  
1821.000000	0.002440  
1820.000000	0.002335  
1819.000000	0.002076  
1818.000000	0.001853  
1817.000000	0.001835  
1816.000000	0.001992  
1815.000000	0.002168  
1814.000000	0.002241  
1813.000000	0.002185  
1812.000000	0.002052  
1811.000000	0.001953  
1810.000000	0.001978  
1809.000000	0.002110  
1808.000000	0.002256  
1807.000000	0.002342  
1806.000000	0.002348  
1805.000000	0.002302  
1804.000000	0.002265  
1803.000000	0.002303  
1802.000000	0.002441  
1801.000000	0.002629  
1800.000000	0.002789  
1799.000000	0.002871  
1798.000000	0.002856  
1797.000000	0.002762  
1796.000000	0.002665  
1795.000000	0.002631  
1794.000000	0.002659  
1793.000000	0.002662  
1792.000000	0.002583  
1791.000000	0.002486  
1790.000000	0.002449  
1789.000000	0.002469  
1788.000000	0.002512  
1787.000000	0.002560  
1786.000000	0.002610  
1785.000000	0.002638  
1784.000000	0.002605  
1783.000000	0.002511  
1782.000000	0.002423  
1781.000000	0.002434  
1780.000000	0.002586  
1779.000000	0.002809  
1778.000000	0.002986  
1777.000000	0.003057  
1776.000000	0.003047  
1775.000000	0.003020  
1774.000000	0.003018  
1773.000000	0.003018  
1772.000000	0.002952  
1771.000000	0.002830  
1770.000000	0.002762  
1769.000000	0.002831  
1768.000000	0.002997  
1767.000000	0.003144  
1766.000000	0.003221  
1765.000000	0.003284  
1764.000000	0.003399  
1763.000000	0.003584  
1762.000000	0.003822  
1761.000000	0.004079  
1760.000000	0.004321  
1759.000000	0.004529  
1758.000000	0.004733  
1757.000000	0.004994  
1756.000000	0.005334  
1755.000000	0.005736  
1754.000000	0.006251  
1753.000000	0.007033  
1752.000000	0.008224  
1751.000000	0.009809  
1750.000000	0.011734  
1749.000000	0.014088  
1748.000000	0.016897  
1747.000000	0.019975  
1746.000000	0.023140  
1745.000000	0.026274  
1744.000000	0.029093  
1743.000000	0.031143  
1742.000000	0.032126  
1741.000000	0.031918  
1740.000000	0.030447  
1739.000000	0.028049  
1738.000000	0.025486  
1737.000000	0.023140  
1736.000000	0.020744  
1735.000000	0.017820  
1734.000000	0.014665  
1733.000000	0.012212  
1732.000000	0.010617  
1731.000000	0.009468  
1730.000000	0.008584  
1729.000000	0.007957  
1728.000000	0.007516  
1727.000000	0.007133  
1726.000000	0.006736  
1725.000000	0.006324  
1724.000000	0.005905  
1723.000000	0.005511  
1722.000000	0.005198  
1721.000000	0.004988  
1720.000000	0.004830  
1719.000000	0.004661  
1718.000000	0.004481  
1717.000000	0.004289  
1716.000000	0.004132  
1715.000000	0.004092  
1714.000000	0.004128  
1713.000000	0.004126  
1712.000000	0.004021  
1711.000000	0.003843  
1710.000000	0.003672  
1709.000000	0.003554  
1708.000000	0.003490  
1707.000000	0.003474  
1706.000000	0.003505  
1705.000000	0.003558  
1704.000000	0.003670  
1703.000000	0.003927  
1702.000000	0.004328  
1701.000000	0.004563  
1700.000000	0.004334  
1699.000000	0.003915  
1698.000000	0.003663  
1697.000000	0.003567  
1696.000000	0.003492  
1695.000000	0.003434  
1694.000000	0.003405  
1693.000000	0.003367  
1692.000000	0.003290  
1691.000000	0.003191  
1690.000000	0.003141  
1689.000000	0.003176  
1688.000000	0.003252  
1687.000000	0.003314  
1686.000000	0.003338  
1685.000000	0.003311  
1684.000000	0.003292  
1683.000000	0.003331  
1682.000000	0.003381  
1681.000000	0.003418  
1680.000000	0.003421  
1679.000000	0.003404  
1678.000000	0.003372  
1677.000000	0.003321  
1676.000000	0.003232  
1675.000000	0.003162  
1674.000000	0.003197  
1673.000000	0.003327  
1672.000000	0.003481  
1671.000000	0.003587  
1670.000000	0.003627  
1669.000000	0.003646  
1668.000000	0.003651  
1667.000000	0.003624  
1666.000000	0.003604  
1665.000000	0.003642  
1664.000000	0.003741  
1663.000000	0.003866  
1662.000000	0.003977  
1661.000000	0.004064  
1660.000000	0.004127  
1659.000000	0.004157  
1658.000000	0.004118  
1657.000000	0.004040  
1656.000000	0.003958  
1655.000000	0.003919  
1654.000000	0.003947  
1653.000000	0.004123  
1652.000000	0.004306  
1651.000000	0.004309  
1650.000000	0.004306  
1649.000000	0.004393  
1648.000000	0.004555  
1647.000000	0.004622  
1646.000000	0.004494  
1645.000000	0.004239  
1644.000000	0.003977  
1643.000000	0.003786  
1642.000000	0.003721  
1641.000000	0.003741  
1640.000000	0.003773  
1639.000000	0.003777  
1638.000000	0.003781  
1637.000000	0.003806  
1636.000000	0.003829  
1635.000000	0.003816  
1634.000000	0.003787  
1633.000000	0.003790  
1632.000000	0.003823  
1631.000000	0.003847  
1630.000000	0.003828  
1629.000000	0.003789  
1628.000000	0.003767  
1627.000000	0.003769  
1626.000000	0.003802  
1625.000000	0.003886  
1624.000000	0.003994  
1623.000000	0.004050  
1622.000000	0.004037  
1621.000000	0.004036  
1620.000000	0.004093  
1619.000000	0.004166  
1618.000000	0.004179  
1617.000000	0.004152  
1616.000000	0.004182  
1615.000000	0.004259  
1614.000000	0.004325  
1613.000000	0.004383  
1612.000000	0.004449  
1611.000000	0.004512  
1610.000000	0.004561  
1609.000000	0.004612  
1608.000000	0.004666  
1607.000000	0.004677  
1606.000000	0.004621  
1605.000000	0.004525  
1604.000000	0.004425  
1603.000000	0.004327  
1602.000000	0.004243  
1601.000000	0.004193  
1600.000000	0.004155  
1599.000000	0.004067  
1598.000000	0.003922  
1597.000000	0.003797  
1596.000000	0.003770  
1595.000000	0.003829  
1594.000000	0.003902  
1593.000000	0.003951  
1592.000000	0.003998  
1591.000000	0.004058  
1590.000000	0.004119  
1589.000000	0.004170  
1588.000000	0.004198  
1587.000000	0.004190  
1586.000000	0.004150  
1585.000000	0.004112  
1584.000000	0.004101  
1583.000000	0.004112  
1582.000000	0.004121  
1581.000000	0.004131  
1580.000000	0.004163  
1579.000000	0.004227  
1578.000000	0.004299  
1577.000000	0.004324  
1576.000000	0.004260  
1575.000000	0.004139  
1574.000000	0.004072  
1573.000000	0.004136  
1572.000000	0.004284  
1571.000000	0.004391  
1570.000000	0.004377  
1569.000000	0.004331  
1568.000000	0.004334  
1567.000000	0.004352  
1566.000000	0.004314  
1565.000000	0.004217  
1564.000000	0.004060  
1563.000000	0.003893  
1562.000000	0.003761  
1561.000000	0.003729  
1560.000000	0.003797  
1559.000000	0.003864  
1558.000000	0.003842  
1557.000000	0.003889  
1556.000000	0.004105  
1555.000000	0.004328  
1554.000000	0.004500  
1553.000000	0.004482  
1552.000000	0.004312  
1551.000000	0.004050  
1550.000000	0.003840  
1549.000000	0.003768  
1548.000000	0.003806  
1547.000000	0.003876  
1546.000000	0.003946  
1545.000000	0.003995  
1544.000000	0.003996  
1543.000000	0.003964  
1542.000000	0.003975  
1541.000000	0.004011  
1540.000000	0.003988  
1539.000000	0.003959  
1538.000000	0.004014  
1537.000000	0.004153  
1536.000000	0.004304  
1535.000000	0.004391  
1534.000000	0.004354  
1533.000000	0.004246  
1532.000000	0.004148  
1531.000000	0.004078  
1530.000000	0.003995  
1529.000000	0.003900  
1528.000000	0.003854  
1527.000000	0.003954  
1526.000000	0.004225  
1525.000000	0.004549  
1524.000000	0.004784  
1523.000000	0.004908  
1522.000000	0.004999  
1521.000000	0.005099  
1520.000000	0.005162  
1519.000000	0.005156  
1518.000000	0.005127  
1517.000000	0.005134  
1516.000000	0.005200  
1515.000000	0.005345  
1514.000000	0.005586  
1513.000000	0.005873  
1512.000000	0.006062  
1511.000000	0.006082  
1510.000000	0.006031  
1509.000000	0.006098  
1508.000000	0.006377  
1507.000000	0.006844  
1506.000000	0.007387  
1505.000000	0.007761  
1504.000000	0.007860  
1503.000000	0.007806  
1502.000000	0.007764  
1501.000000	0.007741  
1500.000000	0.007690  
1499.000000	0.007660  
1498.000000	0.007925  
1497.000000	0.008577  
1496.000000	0.009226  
1495.000000	0.009555  
1494.000000	0.009717  
1493.000000	0.009893  
1492.000000	0.010003  
1491.000000	0.009948  
1490.000000	0.009923  
1489.000000	0.010166  
1488.000000	0.010591  
1487.000000	0.011026  
1486.000000	0.011457  
1485.000000	0.011934  
1484.000000	0.012452  
1483.000000	0.013043  
1482.000000	0.013831  
1481.000000	0.014850  
1480.000000	0.015958  
1479.000000	0.017107  
1478.000000	0.018496  
1477.000000	0.020284  
1476.000000	0.022369  
1475.000000	0.024823  
1474.000000	0.028401  
1473.000000	0.033903  
1472.000000	0.040743  
1471.000000	0.047552  
1470.000000	0.053871  
1469.000000	0.059756  
1468.000000	0.065003  
1467.000000	0.069430  
1466.000000	0.073179  
1465.000000	0.076341  
1464.000000	0.078649  
1463.000000	0.080069  
1462.000000	0.081013  
1461.000000	0.081826  
1460.000000	0.082623  
1459.000000	0.083512  
1458.000000	0.084529  
1457.000000	0.084868  
1456.000000	0.083626  
1455.000000	0.081331  
1454.000000	0.078789  
1453.000000	0.076090  
1452.000000	0.073221  
1451.000000	0.070397  
1450.000000	0.067815  
1449.000000	0.065268  
1448.000000	0.062471  
1447.000000	0.059527  
1446.000000	0.056648  
1445.000000	0.053745  
1444.000000	0.050643  
1443.000000	0.047377  
1442.000000	0.044149  
1441.000000	0.041158  
1440.000000	0.038487  
1439.000000	0.036031  
1438.000000	0.033500  
1437.000000	0.030729  
1436.000000	0.028102  
1435.000000	0.026073  
1434.000000	0.024485  
1433.000000	0.022939  
1432.000000	0.021279  
1431.000000	0.019593  
1430.000000	0.018033  
1429.000000	0.016699  
1428.000000	0.015672  
1427.000000	0.014947  
1426.000000	0.014389  
1425.000000	0.013859  
1424.000000	0.013357  
1423.000000	0.012960  
1422.000000	0.012659  
1421.000000	0.012351  
1420.000000	0.011964  
1419.000000	0.011541  
1418.000000	0.011173  
1417.000000	0.010886  
1416.000000	0.010677  
1415.000000	0.010533  
1414.000000	0.010404  
1413.000000	0.010236  
1412.000000	0.010023  
1411.000000	0.009785  
1410.000000	0.009548  
1409.000000	0.009361  
1408.000000	0.009284  
1407.000000	0.009330  
1406.000000	0.009439  
1405.000000	0.009551  
1404.000000	0.009692  
1403.000000	0.009894  
1402.000000	0.010110  
1401.000000	0.010271  
1400.000000	0.010388  
1399.000000	0.010516  
1398.000000	0.010676  
1397.000000	0.010874  
1396.000000	0.011148  
1395.000000	0.011518  
1394.000000	0.011952  
1393.000000	0.012419  
1392.000000	0.012937  
1391.000000	0.013555  
1390.000000	0.014350  
1389.000000	0.015500  
1388.000000	0.017256  
1387.000000	0.019637  
1386.000000	0.022300  
1385.000000	0.024962  
1384.000000	0.027703  
1383.000000	0.030771  
1382.000000	0.034317  
1381.000000	0.038275  
1380.000000	0.042275  
1379.000000	0.045596  
1378.000000	0.047472  
1377.000000	0.047561  
1376.000000	0.045950  
1375.000000	0.042935  
1374.000000	0.039110  
1373.000000	0.035340  
1372.000000	0.032231  
1371.000000	0.029899  
1370.000000	0.028290  
1369.000000	0.027369  
1368.000000	0.026975  
1367.000000	0.026719  
1366.000000	0.026176  
1365.000000	0.025107  
1364.000000	0.023528  
1363.000000	0.021706  
1362.000000	0.020032  
1361.000000	0.018770  
1360.000000	0.017926  
1359.000000	0.017355  
1358.000000	0.016923  
1357.000000	0.016576  
1356.000000	0.016337  
1355.000000	0.016239  
1354.000000	0.016245  
1353.000000	0.016257  
1352.000000	0.016210  
1351.000000	0.016110  
1350.000000	0.015995  
1349.000000	0.015887  
1348.000000	0.015767  
1347.000000	0.015591  
1346.000000	0.015345  
1345.000000	0.015088  
1344.000000	0.014897  
1343.000000	0.014780  
1342.000000	0.014663  
1341.000000	0.014489  
1340.000000	0.014268  
1339.000000	0.014024  
1338.000000	0.013755  
1337.000000	0.013454  
1336.000000	0.013148  
1335.000000	0.012869  
1334.000000	0.012613  
1333.000000	0.012364  
1332.000000	0.012147  
1331.000000	0.012000  
1330.000000	0.011915  
1329.000000	0.011843  
1328.000000	0.011762  
1327.000000	0.011680  
1326.000000	0.011601  
1325.000000	0.011529  
1324.000000	0.011484  
1323.000000	0.011489  
1322.000000	0.011534  
1321.000000	0.011587  
1320.000000	0.011632  
1319.000000	0.011675  
1318.000000	0.011726  
1317.000000	0.011787  
1316.000000	0.011860  
1315.000000	0.011964  
1314.000000	0.012114  
1313.000000	0.012298  
1312.000000	0.012484  
1311.000000	0.012650  
1310.000000	0.012800  
1309.000000	0.012946  
1308.000000	0.013082  
1307.000000	0.013192  
1306.000000	0.013266  
1305.000000	0.013313  
1304.000000	0.013331  
1303.000000	0.013298  
1302.000000	0.013209  
1301.000000	0.013096  
1300.000000	0.013001  
1299.000000	0.012930  
1298.000000	0.012854  
1297.000000	0.012751  
1296.000000	0.012621  
1295.000000	0.012457  
1294.000000	0.012242  
1293.000000	0.011989  
1292.000000	0.011751  
1291.000000	0.011590  
1290.000000	0.011529  
1289.000000	0.011551  
1288.000000	0.011617  
1287.000000	0.011693  
1286.000000	0.011764  
1285.000000	0.011831  
1284.000000	0.011900  
1283.000000	0.011969  
1282.000000	0.012039  
1281.000000	0.012115  
1280.000000	0.012196  
1279.000000	0.012267  
1278.000000	0.012319  
1277.000000	0.012376  
1276.000000	0.012472  
1275.000000	0.012606  
1274.000000	0.012745  
1273.000000	0.012869  
1272.000000	0.012984  
1271.000000	0.013083  
1270.000000	0.013145  
1269.000000	0.013166  
1268.000000	0.013172  
1267.000000	0.013174  
1266.000000	0.013142  
1265.000000	0.013046  
1264.000000	0.012902  
1263.000000	0.012766  
1262.000000	0.012698  
1261.000000	0.012724  
1260.000000	0.012824  
1259.000000	0.012935  
1258.000000	0.013001  
1257.000000	0.013010  
1256.000000	0.012989  
1255.000000	0.012967  
1254.000000	0.012973  
1253.000000	0.013050  
1252.000000	0.013221  
1251.000000	0.013444  
1250.000000	0.013639  
1249.000000	0.013775  
1248.000000	0.013904  
1247.000000	0.014076  
1246.000000	0.014271  
1245.000000	0.014432  
1244.000000	0.014529  
1243.000000	0.014560  
1242.000000	0.014524  
1241.000000	0.014419  
1240.000000	0.014266  
1239.000000	0.014095  
1238.000000	0.013913  
1237.000000	0.013721  
1236.000000	0.013536  
1235.000000	0.013382  
1234.000000	0.013253  
1233.000000	0.013106  
1232.000000	0.012914  
1231.000000	0.012683  
1230.000000	0.012439  
1229.000000	0.012212  
1228.000000	0.012037  
1227.000000	0.011949  
1226.000000	0.011933  
1225.000000	0.011922  
1224.000000	0.011855  
1223.000000	0.011746  
1222.000000	0.011653  
1221.000000	0.011607  
1220.000000	0.011585  
1219.000000	0.011555  
1218.000000	0.011530  
1217.000000	0.011548  
1216.000000	0.011628  
1215.000000	0.011738  
1214.000000	0.011824  
1213.000000	0.011851  
1212.000000	0.011835  
1211.000000	0.011845  
1210.000000	0.011936  
1209.000000	0.012085  
1208.000000	0.012200  
1207.000000	0.012230  
1206.000000	0.012235  
1205.000000	0.012305  
1204.000000	0.012441  
1203.000000	0.012563  
1202.000000	0.012631  
1201.000000	0.012711  
1200.000000	0.012887  
1199.000000	0.013162  
1198.000000	0.013484  
1197.000000	0.013819  
1196.000000	0.014167  
1195.000000	0.014526  
1194.000000	0.014899  
1193.000000	0.015297  
1192.000000	0.015711  
1191.000000	0.016091  
1190.000000	0.016400  
1189.000000	0.016678  
1188.000000	0.016998  
1187.000000	0.017378  
1186.000000	0.017778  
1185.000000	0.018165  
1184.000000	0.018545  
1183.000000	0.018932  
1182.000000	0.019337  
1181.000000	0.019766  
1180.000000	0.020202  
1179.000000	0.020580  
1178.000000	0.020849  
1177.000000	0.021035  
1176.000000	0.021222  
1175.000000	0.021442  
1174.000000	0.021647  
1173.000000	0.021777  
1172.000000	0.021816  
1171.000000	0.021770  
1170.000000	0.021636  
1169.000000	0.021421  
1168.000000	0.021150  
1167.000000	0.020855  
1166.000000	0.020551  
1165.000000	0.020234  
1164.000000	0.019881  
1163.000000	0.019455  
1162.000000	0.018955  
1161.000000	0.018459  
1160.000000	0.018068  
1159.000000	0.017798  
1158.000000	0.017569  
1157.000000	0.017295  
1156.000000	0.016952  
1155.000000	0.016554  
1154.000000	0.016113  
1153.000000	0.015653  
1152.000000	0.015225  
1151.000000	0.014869  
1150.000000	0.014589  
1149.000000	0.014386  
1148.000000	0.014265  
1147.000000	0.014188  
1146.000000	0.014062  
1145.000000	0.013818  
1144.000000	0.013475  
1143.000000	0.013101  
1142.000000	0.012735  
1141.000000	0.012377  
1140.000000	0.012026  
1139.000000	0.011696  
1138.000000	0.011416  
1137.000000	0.011219  
1136.000000	0.011116  
1135.000000	0.011051  
1134.000000	0.010933  
1133.000000	0.010736  
1132.000000	0.010539  
1131.000000	0.010430  
1130.000000	0.010415  
1129.000000	0.010453  
1128.000000	0.010528  
1127.000000	0.010631  
1126.000000	0.010724  
1125.000000	0.010776  
1124.000000	0.010812  
1123.000000	0.010881  
1122.000000	0.010978  
1121.000000	0.011068  
1120.000000	0.011154  
1119.000000	0.011247  
1118.000000	0.011315  
1117.000000	0.011306  
1116.000000	0.011227  
1115.000000	0.011133  
1114.000000	0.011036  
1113.000000	0.010892  
1112.000000	0.010682  
1111.000000	0.010441  
1110.000000	0.010199  
1109.000000	0.009960  
1108.000000	0.009755  
1107.000000	0.009665  
1106.000000	0.009734  
1105.000000	0.009892  
1104.000000	0.010009  
1103.000000	0.010029  
1102.000000	0.010017  
1101.000000	0.010076  
1100.000000	0.010227  
1099.000000	0.010401  
1098.000000	0.010514  
1097.000000	0.010567  
1096.000000	0.010635  
1095.000000	0.010760  
1094.000000	0.010892  
1093.000000	0.010953  
1092.000000	0.010934  
1091.000000	0.010877  
1090.000000	0.010797  
1089.000000	0.010660  
1088.000000	0.010457  
1087.000000	0.010247  
1086.000000	0.010114  
1085.000000	0.010090  
1084.000000	0.010137  
1083.000000	0.010168  
1082.000000	0.010117  
1081.000000	0.009997  
1080.000000	0.009911  
1079.000000	0.009967  
1078.000000	0.010169  
1077.000000	0.010426  
1076.000000	0.010666  
1075.000000	0.010907  
1074.000000	0.011195  
1073.000000	0.011502  
1072.000000	0.011720  
1071.000000	0.011769  
1070.000000	0.011688  
1069.000000	0.011608  
1068.000000	0.011621  
1067.000000	0.011701  
1066.000000	0.011760  
1065.000000	0.011767  
1064.000000	0.011772  
1063.000000	0.011790  
1062.000000	0.011742  
1061.000000	0.011537  
1060.000000	0.011207  
1059.000000	0.010889  
1058.000000	0.010690  
1057.000000	0.010618  
1056.000000	0.010636  
1055.000000	0.010716  
1054.000000	0.010790  
1053.000000	0.010718  
1052.000000	0.010406  
1051.000000	0.009953  
1050.000000	0.009611  
1049.000000	0.009549  
1048.000000	0.009696  
1047.000000	0.009852  
1046.000000	0.009893  
1045.000000	0.009850  
1044.000000	0.009832  
1043.000000	0.009936  
1042.000000	0.010184  
1041.000000	0.010508  
1040.000000	0.010774  
1039.000000	0.010865  
1038.000000	0.010772  
1037.000000	0.010596  
1036.000000	0.010455  
1035.000000	0.010409  
1034.000000	0.010464  
1033.000000	0.010615  
1032.000000	0.010830  
1031.000000	0.011030  
1030.000000	0.011136  
1029.000000	0.011135  
1028.000000	0.011082  
1027.000000	0.011030  
1026.000000	0.010995  
1025.000000	0.010976  
1024.000000	0.010971  
1023.000000	0.010954  
1022.000000	0.010887  
1021.000000	0.010757  
1020.000000	0.010588  
1019.000000	0.010397  
1018.000000	0.010198  
1017.000000	0.010038  
1016.000000	0.009982  
1015.000000	0.010038  
1014.000000	0.010127  
1013.000000	0.010157  
1012.000000	0.010103  
1011.000000	0.009996  
1010.000000	0.009876  
1009.000000	0.009773  
1008.000000	0.009715  
1007.000000	0.009702  
1006.000000	0.009694  
1005.000000	0.009662  
1004.000000	0.009619  
1003.000000	0.009596  
1002.000000	0.009597  
1001.000000	0.009593  
1000.000000	0.009539  
999.000000	 0.009402  
998.000000	 0.009188  
997.000000	 0.008974  
996.000000	 0.008874  
995.000000	 0.008925  
994.000000	 0.009043  
993.000000	 0.009115  
992.000000	 0.009099  
991.000000	 0.009043  
990.000000	 0.009019  
989.000000	 0.009079  
988.000000	 0.009222  
987.000000	 0.009373  
986.000000	 0.009426  
985.000000	 0.009359  
984.000000	 0.009274  
983.000000	 0.009289  
982.000000	 0.009406  
981.000000	 0.009549  
980.000000	 0.009681  
979.000000	 0.009835  
978.000000	 0.010028  
977.000000	 0.010231  
976.000000	 0.010405  
975.000000	 0.010540  
974.000000	 0.010638  
973.000000	 0.010705  
972.000000	 0.010779  
971.000000	 0.010907  
970.000000	 0.011098  
969.000000	 0.011314  
968.000000	 0.011506  
967.000000	 0.011632  
966.000000	 0.011642  
965.000000	 0.011497  
964.000000	 0.011227  
963.000000	 0.010935  
962.000000	 0.010742  
961.000000	 0.010698  
960.000000	 0.010756  
959.000000	 0.010817  
958.000000	 0.010812  
957.000000	 0.010760  
956.000000	 0.010732  
955.000000	 0.010748  
954.000000	 0.010753  
953.000000	 0.010698  
952.000000	 0.010624  
951.000000	 0.010603  
950.000000	 0.010635  
949.000000	 0.010657  
948.000000	 0.010643  
947.000000	 0.010637  
946.000000	 0.010680  
945.000000	 0.010761  
944.000000	 0.010845  
943.000000	 0.010906  
942.000000	 0.010915  
941.000000	 0.010840  
940.000000	 0.010666  
939.000000	 0.010408  
938.000000	 0.010107  
937.000000	 0.009823  
936.000000	 0.009614  
935.000000	 0.009498  
934.000000	 0.009443  
933.000000	 0.009423  
932.000000	 0.009454  
931.000000	 0.009530  
930.000000	 0.009561  
929.000000	 0.009468  
928.000000	 0.009320  
927.000000	 0.009275  
926.000000	 0.009387  
925.000000	 0.009530  
924.000000	 0.009579  
923.000000	 0.009561  
922.000000	 0.009583  
921.000000	 0.009662  
920.000000	 0.009703  
919.000000	 0.009635  
918.000000	 0.009502  
917.000000	 0.009404  
916.000000	 0.009400  
915.000000	 0.009462  
914.000000	 0.009507  
913.000000	 0.009460  
912.000000	 0.009311  
911.000000	 0.009120  
910.000000	 0.008986  
909.000000	 0.008984  
908.000000	 0.009109  
907.000000	 0.009259  
906.000000	 0.009299  
905.000000	 0.009186  
904.000000	 0.009024  
903.000000	 0.008971  
902.000000	 0.009075  
901.000000	 0.009249  
900.000000	 0.009394  
899.000000	 0.009502  
898.000000	 0.009615  
897.000000	 0.009734  
896.000000	 0.009816  
895.000000	 0.009830  
894.000000	 0.009790  
893.000000	 0.009745  
892.000000	 0.009740  
891.000000	 0.009790  
890.000000	 0.009866  
889.000000	 0.009920  
888.000000	 0.009929  
887.000000	 0.009905  
886.000000	 0.009869  
885.000000	 0.009819  
884.000000	 0.009739  
883.000000	 0.009625  
882.000000	 0.009502  
881.000000	 0.009435  
880.000000	 0.009486  
879.000000	 0.009656  
878.000000	 0.009858  
877.000000	 0.009979  
876.000000	 0.009970  
875.000000	 0.009851  
874.000000	 0.009650  
873.000000	 0.009374  
872.000000	 0.009055  
871.000000	 0.008783  
870.000000	 0.008680  
869.000000	 0.008811  
868.000000	 0.009125  
867.000000	 0.009443  
866.000000	 0.009571  
865.000000	 0.009451  
864.000000	 0.009200  
863.000000	 0.008991  
862.000000	 0.008899  
861.000000	 0.008911  
860.000000	 0.009008  
859.000000	 0.009171  
858.000000	 0.009328  
857.000000	 0.009388  
856.000000	 0.009370  
855.000000	 0.009403  
854.000000	 0.009579  
853.000000	 0.009859  
852.000000	 0.010157  
851.000000	 0.010444  
850.000000	 0.010725  
849.000000	 0.010942  
848.000000	 0.010995  
847.000000	 0.010859  
846.000000	 0.010634  
845.000000	 0.010465  
844.000000	 0.010426  
843.000000	 0.010472  
842.000000	 0.010491  
841.000000	 0.010418  
840.000000	 0.010292  
839.000000	 0.010208  
838.000000	 0.010206  
837.000000	 0.010213  
836.000000	 0.010107  
835.000000	 0.009818  
834.000000	 0.009401  
833.000000	 0.009020  
832.000000	 0.008846  
831.000000	 0.008914  
830.000000	 0.009076  
829.000000	 0.009156  
828.000000	 0.009146  
827.000000	 0.009208  
826.000000	 0.009457  
825.000000	 0.009800  
824.000000	 0.010049  
823.000000	 0.010107  
822.000000	 0.010027  
821.000000	 0.009938  
820.000000	 0.009973  
819.000000	 0.010200  
818.000000	 0.010573  
817.000000	 0.010961  
816.000000	 0.011254  
815.000000	 0.011412  
814.000000	 0.011435  
813.000000	 0.011332  
812.000000	 0.011156  
811.000000	 0.011030  
810.000000	 0.011070  
809.000000	 0.011291  
808.000000	 0.011612  
807.000000	 0.011920  
806.000000	 0.012106  
805.000000	 0.012095  
804.000000	 0.011871  
803.000000	 0.011497  
802.000000	 0.011076  
801.000000	 0.010683  
800.000000	 0.010346  
799.000000	 0.010058  
798.000000	 0.009819  
797.000000	 0.009651  
796.000000	 0.009576  
795.000000	 0.009564  
794.000000	 0.009538  
793.000000	 0.009470  
792.000000	 0.009450  
791.000000	 0.009576  
790.000000	 0.009791  
789.000000	 0.009891  
788.000000	 0.009759  
787.000000	 0.009532  
786.000000	 0.009476  
785.000000	 0.009724  
784.000000	 0.010176  
783.000000	 0.010642  
782.000000	 0.011017  
781.000000	 0.011331  
780.000000	 0.011656  
779.000000	 0.012015  
778.000000	 0.012359  
777.000000	 0.012640  
776.000000	 0.012881  
775.000000	 0.013151  
774.000000	 0.013485  
773.000000	 0.013854  
772.000000	 0.014207  
771.000000	 0.014509  
770.000000	 0.014741  
769.000000	 0.014891  
768.000000	 0.014983  
767.000000	 0.015046  
766.000000	 0.015043  
765.000000	 0.014873  
764.000000	 0.014509  
763.000000	 0.014110  
762.000000	 0.013910  
761.000000	 0.013991  
760.000000	 0.014201  
759.000000	 0.014332  
758.000000	 0.014336  
757.000000	 0.014342  
756.000000	 0.014493  
755.000000	 0.014785  
754.000000	 0.015088  
753.000000	 0.015269  
752.000000	 0.015309  
751.000000	 0.015297  
750.000000	 0.015357  
749.000000	 0.015585  
748.000000	 0.016022  
747.000000	 0.016688  
746.000000	 0.017624  
745.000000	 0.018877  
744.000000	 0.020390  
743.000000	 0.021921  
742.000000	 0.023117  
741.000000	 0.023754  
740.000000	 0.023907  
739.000000	 0.023832  
738.000000	 0.023703  
737.000000	 0.023523  
736.000000	 0.023258  
735.000000	 0.022967  
734.000000	 0.022779  
733.000000	 0.022783  
732.000000	 0.022980  
731.000000	 0.023302  
730.000000	 0.023688  
729.000000	 0.024175  
728.000000	 0.024894  
727.000000	 0.025920  
726.000000	 0.027162  
725.000000	 0.028401  
724.000000	 0.029466  
723.000000	 0.030299  
722.000000	 0.030809  
721.000000	 0.030694  
720.000000	 0.029607  
719.000000	 0.027605  
718.000000	 0.025257  
717.000000	 0.023204  
716.000000	 0.021752  
715.000000	 0.020794  
714.000000	 0.020011  
713.000000	 0.019170  
712.000000	 0.018271  
711.000000	 0.017458  
710.000000	 0.016865  
709.000000	 0.016542  
708.000000	 0.016444  
707.000000	 0.016461  
706.000000	 0.016522  
705.000000	 0.016663  
704.000000	 0.016919  
703.000000	 0.017192  
702.000000	 0.017308  
701.000000	 0.017236  
700.000000	 0.017163  
699.000000	 0.017219  
698.000000	 0.017212  
697.000000	 0.016797  
696.000000	 0.015913  
695.000000	 0.014958  
694.000000	 0.014357  
693.000000	 0.014069  
692.000000	 0.013650  
691.000000	 0.012777  
690.000000	 0.011621  
689.000000	 0.010616  
688.000000	 0.009926  
687.000000	 0.009337  
686.000000	 0.008659  
685.000000	 0.008026  
684.000000	 0.007689  
683.000000	 0.007662  
682.000000	 0.007739  
681.000000	 0.007760  
680.000000	 0.007711  
679.000000	 0.007559  
678.000000	 0.007307  
677.000000	 0.007164  
676.000000	 0.007115  
675.000000	 0.007150  
674.000000	 0.007211  
673.000000	 0.006967  
672.000000	 0.005932  
671.000000	 0.003671  
670.000000	 -0.000134 
669.000000	 -0.005666 
668.000000	 -0.009553 
667.000000	 -0.006559 
666.000000	 -0.000896 
665.000000	 0.002903  
664.000000	 0.005139  
663.000000	 0.006454  
662.000000	 0.006937  
661.000000	 0.006719  
660.000000	 0.006221  
659.000000	 0.005888  
658.000000	 0.005838  
657.000000	 0.005871  
656.000000	 0.005472  
655.000000	 0.004650  
654.000000	 0.003999  
653.000000	 0.003980  
652.000000	 0.004453  
651.000000	 0.004952  
650.000000	 0.005220  

