PE IR                   SPECTRUM    ASCII       PEDS        1.60        
  -1
NB4-00~3.ASC
17/04/10
13:06:07.00
17/04/10
13:06:07.00
Admin

650.000000
6









SPECTRUM ONE,CPU32 MAIN 00.02.5000 17-APRIL-2002 13:00:00
MIR TGS
MIR
OPTKBR
68128
0.200000

4.000000
STRONG
RATIO
SPECTRUM
MAGNITUDE

DOUBLE

COMBINED


0


#HDR
-1
-1
#GR
CM-1
A
0.00000011920928955078
0.0
4000.000000
-1.000000
3351
8
0.219472
-0.001720
#DATA
4000.000000	0.000614  
3999.000000	0.000754  
3998.000000	0.000893  
3997.000000	0.001033  
3996.000000	0.001174  
3995.000000	0.001309  
3994.000000	0.001431  
3993.000000	0.001487  
3992.000000	0.001489  
3991.000000	0.001445  
3990.000000	0.001367  
3989.000000	0.001265  
3988.000000	0.001144  
3987.000000	0.001029  
3986.000000	0.000967  
3985.000000	0.000993  
3984.000000	0.001072  
3983.000000	0.001100  
3982.000000	0.000995  
3981.000000	0.000787  
3980.000000	0.000606  
3979.000000	0.000569  
3978.000000	0.000684  
3977.000000	0.000870  
3976.000000	0.001051  
3975.000000	0.001209  
3974.000000	0.001346  
3973.000000	0.001438  
3972.000000	0.001442  
3971.000000	0.001356  
3970.000000	0.001236  
3969.000000	0.001137  
3968.000000	0.001056  
3967.000000	0.000954  
3966.000000	0.000835  
3965.000000	0.000777  
3964.000000	0.000868  
3963.000000	0.001109  
3962.000000	0.001397  
3961.000000	0.001606  
3960.000000	0.001676  
3959.000000	0.001626  
3958.000000	0.001506  
3957.000000	0.001356  
3956.000000	0.001201  
3955.000000	0.001064  
3954.000000	0.000972  
3953.000000	0.000948  
3952.000000	0.000998  
3951.000000	0.001104  
3950.000000	0.001234  
3949.000000	0.001361  
3948.000000	0.001479  
3947.000000	0.001589  
3946.000000	0.001674  
3945.000000	0.001707  
3944.000000	0.001668  
3943.000000	0.001559  
3942.000000	0.001405  
3941.000000	0.001249  
3940.000000	0.001140  
3939.000000	0.001108  
3938.000000	0.001158  
3937.000000	0.001256  
3936.000000	0.001358  
3935.000000	0.001430  
3934.000000	0.001461  
3933.000000	0.001456  
3932.000000	0.001429  
3931.000000	0.001404  
3930.000000	0.001414  
3929.000000	0.001483  
3928.000000	0.001606  
3927.000000	0.001741  
3926.000000	0.001824  
3925.000000	0.001822  
3924.000000	0.001767  
3923.000000	0.001734  
3922.000000	0.001765  
3921.000000	0.001831  
3920.000000	0.001865  
3919.000000	0.001829  
3918.000000	0.001742  
3917.000000	0.001661  
3916.000000	0.001624  
3915.000000	0.001622  
3914.000000	0.001611  
3913.000000	0.001546  
3912.000000	0.001402  
3911.000000	0.001211  
3910.000000	0.001057  
3909.000000	0.001032  
3908.000000	0.001177  
3907.000000	0.001447  
3906.000000	0.001731  
3905.000000	0.001916  
3904.000000	0.001959  
3903.000000	0.001906  
3902.000000	0.001834  
3901.000000	0.001803  
3900.000000	0.001841  
3899.000000	0.001929  
3898.000000	0.002000  
3897.000000	0.001986  
3896.000000	0.001873  
3895.000000	0.001713  
3894.000000	0.001589  
3893.000000	0.001550  
3892.000000	0.001560  
3891.000000	0.001546  
3890.000000	0.001482  
3889.000000	0.001412  
3888.000000	0.001399  
3887.000000	0.001453  
3886.000000	0.001509  
3885.000000	0.001506  
3884.000000	0.001468  
3883.000000	0.001471  
3882.000000	0.001526  
3881.000000	0.001555  
3880.000000	0.001493  
3879.000000	0.001383  
3878.000000	0.001323  
3877.000000	0.001376  
3876.000000	0.001533  
3875.000000	0.001729  
3874.000000	0.001910  
3873.000000	0.002075  
3872.000000	0.002253  
3871.000000	0.002421  
3870.000000	0.002510  
3869.000000	0.002501  
3868.000000	0.002445  
3867.000000	0.002395  
3866.000000	0.002349  
3865.000000	0.002245  
3864.000000	0.002049  
3863.000000	0.001826  
3862.000000	0.001656  
3861.000000	0.001534  
3860.000000	0.001405  
3859.000000	0.001280  
3858.000000	0.001241  
3857.000000	0.001348  
3856.000000	0.001571  
3855.000000	0.001809  
3854.000000	0.001984  
3853.000000	0.002141  
3852.000000	0.002333  
3851.000000	0.002545  
3850.000000	0.002723  
3849.000000	0.002787  
3848.000000	0.002725  
3847.000000	0.002614  
3846.000000	0.002539  
3845.000000	0.002533  
3844.000000	0.002586  
3843.000000	0.002686  
3842.000000	0.002820  
3841.000000	0.002940  
3840.000000	0.002969  
3839.000000	0.002852  
3838.000000	0.002624  
3837.000000	0.002404  
3836.000000	0.002296  
3835.000000	0.002302  
3834.000000	0.002353  
3833.000000	0.002359  
3832.000000	0.002273  
3831.000000	0.002136  
3830.000000	0.002037  
3829.000000	0.002019  
3828.000000	0.002028  
3827.000000	0.001964  
3826.000000	0.001807  
3825.000000	0.001677  
3824.000000	0.001748  
3823.000000	0.002089  
3822.000000	0.002504  
3821.000000	0.002652  
3820.000000	0.002413  
3819.000000	0.001982  
3818.000000	0.001635  
3817.000000	0.001530  
3816.000000	0.001656  
3815.000000	0.001878  
3814.000000	0.002047  
3813.000000	0.002084  
3812.000000	0.001955  
3811.000000	0.001652  
3810.000000	0.001220  
3809.000000	0.000802  
3808.000000	0.000585  
3807.000000	0.000683  
3806.000000	0.001046  
3805.000000	0.001523  
3804.000000	0.001965  
3803.000000	0.002231  
3802.000000	0.002235  
3801.000000	0.002059  
3800.000000	0.001889  
3799.000000	0.001848  
3798.000000	0.001937  
3797.000000	0.002077  
3796.000000	0.002166  
3795.000000	0.002152  
3794.000000	0.002045  
3793.000000	0.001884  
3792.000000	0.001709  
3791.000000	0.001550  
3790.000000	0.001427  
3789.000000	0.001354  
3788.000000	0.001324  
3787.000000	0.001318  
3786.000000	0.001317  
3785.000000	0.001305  
3784.000000	0.001280  
3783.000000	0.001250  
3782.000000	0.001220  
3781.000000	0.001191  
3780.000000	0.001162  
3779.000000	0.001149  
3778.000000	0.001182  
3777.000000	0.001272  
3776.000000	0.001384  
3775.000000	0.001453  
3774.000000	0.001438  
3773.000000	0.001352  
3772.000000	0.001257  
3771.000000	0.001228  
3770.000000	0.001293  
3769.000000	0.001416  
3768.000000	0.001523  
3767.000000	0.001554  
3766.000000	0.001496  
3765.000000	0.001392  
3764.000000	0.001320  
3763.000000	0.001330  
3762.000000	0.001411  
3761.000000	0.001498  
3760.000000	0.001528  
3759.000000	0.001507  
3758.000000	0.001485  
3757.000000	0.001477  
3756.000000	0.001449  
3755.000000	0.001424  
3754.000000	0.001561  
3753.000000	0.002027  
3752.000000	0.002738  
3751.000000	0.003297  
3750.000000	0.003407  
3749.000000	0.003182  
3748.000000	0.002908  
3747.000000	0.002787  
3746.000000	0.002895  
3745.000000	0.003093  
3744.000000	0.003153  
3743.000000	0.003006  
3742.000000	0.002774  
3741.000000	0.002633  
3740.000000	0.002665  
3739.000000	0.002824  
3738.000000	0.003054  
3737.000000	0.003276  
3736.000000	0.003378  
3735.000000	0.003343  
3734.000000	0.003273  
3733.000000	0.003233  
3732.000000	0.003182  
3731.000000	0.003072  
3730.000000	0.002946  
3729.000000	0.002863  
3728.000000	0.002807  
3727.000000	0.002710  
3726.000000	0.002553  
3725.000000	0.002387  
3724.000000	0.002254  
3723.000000	0.002131  
3722.000000	0.001955  
3721.000000	0.001698  
3720.000000	0.001395  
3719.000000	0.001124  
3718.000000	0.000955  
3717.000000	0.000901  
3716.000000	0.000906  
3715.000000	0.000870  
3714.000000	0.000732  
3713.000000	0.000538  
3712.000000	0.000443  
3711.000000	0.000563  
3710.000000	0.000853  
3709.000000	0.001177  
3708.000000	0.001440  
3707.000000	0.001641  
3706.000000	0.001820  
3705.000000	0.001953  
3704.000000	0.001952  
3703.000000	0.001763  
3702.000000	0.001459  
3701.000000	0.001206  
3700.000000	0.001128  
3699.000000	0.001222  
3698.000000	0.001385  
3697.000000	0.001503  
3696.000000	0.001519  
3695.000000	0.001467  
3694.000000	0.001423  
3693.000000	0.001430  
3692.000000	0.001453  
3691.000000	0.001439  
3690.000000	0.001416  
3689.000000	0.001470  
3688.000000	0.001620  
3687.000000	0.001761  
3686.000000	0.001794  
3685.000000	0.001745  
3684.000000	0.001706  
3683.000000	0.001698  
3682.000000	0.001646  
3681.000000	0.001459  
3680.000000	0.001135  
3679.000000	0.000818  
3678.000000	0.000726  
3677.000000	0.000984  
3676.000000	0.001448  
3675.000000	0.001803  
3674.000000	0.001925  
3673.000000	0.001945  
3672.000000	0.002033  
3671.000000	0.002251  
3670.000000	0.002500  
3669.000000	0.002635  
3668.000000	0.002621  
3667.000000	0.002493  
3666.000000	0.002267  
3665.000000	0.001947  
3664.000000	0.001547  
3663.000000	0.001097  
3662.000000	0.000665  
3661.000000	0.000334  
3660.000000	0.000160  
3659.000000	0.000162  
3658.000000	0.000327  
3657.000000	0.000611  
3656.000000	0.000927  
3655.000000	0.001173  
3654.000000	0.001291  
3653.000000	0.001274  
3652.000000	0.001158  
3651.000000	0.001020  
3650.000000	0.000974  
3649.000000	0.001107  
3648.000000	0.001420  
3647.000000	0.001804  
3646.000000	0.002069  
3645.000000	0.002112  
3644.000000	0.002017  
3643.000000	0.001939  
3642.000000	0.001956  
3641.000000	0.002029  
3640.000000	0.002056  
3639.000000	0.001969  
3638.000000	0.001793  
3637.000000	0.001623  
3636.000000	0.001545  
3635.000000	0.001573  
3634.000000	0.001645  
3633.000000	0.001690  
3632.000000	0.001687  
3631.000000	0.001685  
3630.000000	0.001767  
3629.000000	0.001958  
3628.000000	0.002161  
3627.000000	0.002280  
3626.000000	0.002312  
3625.000000	0.002314  
3624.000000	0.002345  
3623.000000	0.002408  
3622.000000	0.002434  
3621.000000	0.002329  
3620.000000	0.002082  
3619.000000	0.001815  
3618.000000	0.001670  
3617.000000	0.001682  
3616.000000	0.001793  
3615.000000	0.001934  
3614.000000	0.002057  
3613.000000	0.002129  
3612.000000	0.002143  
3611.000000	0.002124  
3610.000000	0.002089  
3609.000000	0.002021  
3608.000000	0.001885  
3607.000000	0.001681  
3606.000000	0.001444  
3605.000000	0.001213  
3604.000000	0.001020  
3603.000000	0.000927  
3602.000000	0.001002  
3601.000000	0.001265  
3600.000000	0.001640  
3599.000000	0.001995  
3598.000000	0.002207  
3597.000000	0.002225  
3596.000000	0.002089  
3595.000000	0.001913  
3594.000000	0.001788  
3593.000000	0.001708  
3592.000000	0.001606  
3591.000000	0.001457  
3590.000000	0.001338  
3589.000000	0.001369  
3588.000000	0.001572  
3587.000000	0.001832  
3586.000000	0.002024  
3585.000000	0.002086  
3584.000000	0.001992  
3583.000000	0.001765  
3582.000000	0.001505  
3581.000000	0.001333  
3580.000000	0.001305  
3579.000000	0.001353  
3578.000000	0.001346  
3577.000000	0.001221  
3576.000000	0.001041  
3575.000000	0.000899  
3574.000000	0.000802  
3573.000000	0.000677  
3572.000000	0.000505  
3571.000000	0.000394  
3570.000000	0.000516  
3569.000000	0.000935  
3568.000000	0.001484  
3567.000000	0.001874  
3566.000000	0.001988  
3565.000000	0.001939  
3564.000000	0.001856  
3563.000000	0.001774  
3562.000000	0.001692  
3561.000000	0.001622  
3560.000000	0.001598  
3559.000000	0.001642  
3558.000000	0.001712  
3557.000000	0.001708  
3556.000000	0.001567  
3555.000000	0.001329  
3554.000000	0.001114  
3553.000000	0.001026  
3552.000000	0.001070  
3551.000000	0.001168  
3550.000000	0.001225  
3549.000000	0.001193  
3548.000000	0.001093  
3547.000000	0.001006  
3546.000000	0.001019  
3545.000000	0.001153  
3544.000000	0.001339  
3543.000000	0.001494  
3542.000000	0.001594  
3541.000000	0.001673  
3540.000000	0.001743  
3539.000000	0.001744  
3538.000000	0.001592  
3537.000000	0.001275  
3536.000000	0.000903  
3535.000000	0.000638  
3534.000000	0.000575  
3533.000000	0.000706  
3532.000000	0.000952  
3531.000000	0.001223  
3530.000000	0.001432  
3529.000000	0.001515  
3528.000000	0.001458  
3527.000000	0.001317  
3526.000000	0.001175  
3525.000000	0.001073  
3524.000000	0.001008  
3523.000000	0.000972  
3522.000000	0.000976  
3521.000000	0.001018  
3520.000000	0.001071  
3519.000000	0.001112  
3518.000000	0.001162  
3517.000000	0.001253  
3516.000000	0.001378  
3515.000000	0.001480  
3514.000000	0.001508  
3513.000000	0.001459  
3512.000000	0.001383  
3511.000000	0.001349  
3510.000000	0.001390  
3509.000000	0.001467  
3508.000000	0.001497  
3507.000000	0.001449  
3506.000000	0.001374  
3505.000000	0.001359  
3504.000000	0.001426  
3503.000000	0.001513  
3502.000000	0.001560  
3501.000000	0.001567  
3500.000000	0.001568  
3499.000000	0.001585  
3498.000000	0.001617  
3497.000000	0.001643  
3496.000000	0.001637  
3495.000000	0.001584  
3494.000000	0.001493  
3493.000000	0.001378  
3492.000000	0.001229  
3491.000000	0.001044  
3490.000000	0.000865  
3489.000000	0.000783  
3488.000000	0.000868  
3487.000000	0.001113  
3486.000000	0.001447  
3485.000000	0.001762  
3484.000000	0.001930  
3483.000000	0.001856  
3482.000000	0.001563  
3481.000000	0.001213  
3480.000000	0.000989  
3479.000000	0.000963  
3478.000000	0.001075  
3477.000000	0.001224  
3476.000000	0.001340  
3475.000000	0.001400  
3474.000000	0.001414  
3473.000000	0.001392  
3472.000000	0.001329  
3471.000000	0.001212  
3470.000000	0.001061  
3469.000000	0.000939  
3468.000000	0.000903  
3467.000000	0.000951  
3466.000000	0.001021  
3465.000000	0.001041  
3464.000000	0.000960  
3463.000000	0.000772  
3462.000000	0.000546  
3461.000000	0.000394  
3460.000000	0.000388  
3459.000000	0.000492  
3458.000000	0.000610  
3457.000000	0.000690  
3456.000000	0.000757  
3455.000000	0.000857  
3454.000000	0.001003  
3453.000000	0.001176  
3452.000000	0.001344  
3451.000000	0.001462  
3450.000000	0.001501  
3449.000000	0.001477  
3448.000000	0.001437  
3447.000000	0.001425  
3446.000000	0.001463  
3445.000000	0.001558  
3444.000000	0.001692  
3443.000000	0.001807  
3442.000000	0.001835  
3441.000000	0.001779  
3440.000000	0.001721  
3439.000000	0.001728  
3438.000000	0.001765  
3437.000000	0.001716  
3436.000000	0.001498  
3435.000000	0.001152  
3434.000000	0.000836  
3433.000000	0.000725  
3432.000000	0.000876  
3431.000000	0.001166  
3430.000000	0.001384  
3429.000000	0.001398  
3428.000000	0.001236  
3427.000000	0.001021  
3426.000000	0.000856  
3425.000000	0.000792  
3424.000000	0.000830  
3423.000000	0.000937  
3422.000000	0.001058  
3421.000000	0.001147  
3420.000000	0.001192  
3419.000000	0.001200  
3418.000000	0.001171  
3417.000000	0.001113  
3416.000000	0.001053  
3415.000000	0.001024  
3414.000000	0.001041  
3413.000000	0.001114  
3412.000000	0.001242  
3411.000000	0.001384  
3410.000000	0.001440  
3409.000000	0.001321  
3408.000000	0.001041  
3407.000000	0.000733  
3406.000000	0.000544  
3405.000000	0.000528  
3404.000000	0.000635  
3403.000000	0.000783  
3402.000000	0.000925  
3401.000000	0.001044  
3400.000000	0.001115  
3399.000000	0.001095  
3398.000000	0.000983  
3397.000000	0.000876  
3396.000000	0.000914  
3395.000000	0.001157  
3394.000000	0.001514  
3393.000000	0.001808  
3392.000000	0.001905  
3391.000000	0.001791  
3390.000000	0.001552  
3389.000000	0.001312  
3388.000000	0.001157  
3387.000000	0.001096  
3386.000000	0.001081  
3385.000000	0.001084  
3384.000000	0.001134  
3383.000000	0.001266  
3382.000000	0.001454  
3381.000000	0.001621  
3380.000000	0.001707  
3379.000000	0.001698  
3378.000000	0.001574  
3377.000000	0.001308  
3376.000000	0.000927  
3375.000000	0.000558  
3374.000000	0.000369  
3373.000000	0.000432  
3372.000000	0.000672  
3371.000000	0.000949  
3370.000000	0.001187  
3369.000000	0.001400  
3368.000000	0.001613  
3367.000000	0.001786  
3366.000000	0.001850  
3365.000000	0.001797  
3364.000000	0.001687  
3363.000000	0.001580  
3362.000000	0.001500  
3361.000000	0.001452  
3360.000000	0.001446  
3359.000000	0.001464  
3358.000000	0.001457  
3357.000000	0.001405  
3356.000000	0.001363  
3355.000000	0.001387  
3354.000000	0.001435  
3353.000000	0.001406  
3352.000000	0.001262  
3351.000000	0.001076  
3350.000000	0.000952  
3349.000000	0.000932  
3348.000000	0.001007  
3347.000000	0.001150  
3346.000000	0.001319  
3345.000000	0.001447  
3344.000000	0.001484  
3343.000000	0.001445  
3342.000000	0.001398  
3341.000000	0.001386  
3340.000000	0.001391  
3339.000000	0.001365  
3338.000000	0.001287  
3337.000000	0.001195  
3336.000000	0.001148  
3335.000000	0.001176  
3334.000000	0.001254  
3333.000000	0.001330  
3332.000000	0.001376  
3331.000000	0.001400  
3330.000000	0.001414  
3329.000000	0.001421  
3328.000000	0.001423  
3327.000000	0.001423  
3326.000000	0.001412  
3325.000000	0.001370  
3324.000000	0.001307  
3323.000000	0.001274  
3322.000000	0.001313  
3321.000000	0.001401  
3320.000000	0.001471  
3319.000000	0.001484  
3318.000000	0.001468  
3317.000000	0.001466  
3316.000000	0.001475  
3315.000000	0.001449  
3314.000000	0.001369  
3313.000000	0.001271  
3312.000000	0.001228  
3311.000000	0.001295  
3310.000000	0.001458  
3309.000000	0.001624  
3308.000000	0.001665  
3307.000000	0.001515  
3306.000000	0.001259  
3305.000000	0.001083  
3304.000000	0.001129  
3303.000000	0.001363  
3302.000000	0.001622  
3301.000000	0.001762  
3300.000000	0.001750  
3299.000000	0.001629  
3298.000000	0.001451  
3297.000000	0.001269  
3296.000000	0.001138  
3295.000000	0.001082  
3294.000000	0.001081  
3293.000000	0.001125  
3292.000000	0.001238  
3291.000000	0.001421  
3290.000000	0.001582  
3289.000000	0.001597  
3288.000000	0.001442  
3287.000000	0.001220  
3286.000000	0.001049  
3285.000000	0.000962  
3284.000000	0.000927  
3283.000000	0.000932  
3282.000000	0.000995  
3281.000000	0.001119  
3280.000000	0.001263  
3279.000000	0.001379  
3278.000000	0.001447  
3277.000000	0.001482  
3276.000000	0.001527  
3275.000000	0.001625  
3274.000000	0.001792  
3273.000000	0.001981  
3272.000000	0.002099  
3271.000000	0.002071  
3270.000000	0.001903  
3269.000000	0.001669  
3268.000000	0.001432  
3267.000000	0.001196  
3266.000000	0.000957  
3265.000000	0.000777  
3264.000000	0.000754  
3263.000000	0.000915  
3262.000000	0.001164  
3261.000000	0.001387  
3260.000000	0.001558  
3259.000000	0.001722  
3258.000000	0.001883  
3257.000000	0.001960  
3256.000000	0.001885  
3255.000000	0.001686  
3254.000000	0.001489  
3253.000000	0.001424  
3252.000000	0.001536  
3251.000000	0.001742  
3250.000000	0.001899  
3249.000000	0.001937  
3248.000000	0.001923  
3247.000000	0.001949  
3246.000000	0.002006  
3245.000000	0.001998  
3244.000000	0.001895  
3243.000000	0.001786  
3242.000000	0.001755  
3241.000000	0.001774  
3240.000000	0.001751  
3239.000000	0.001655  
3238.000000	0.001525  
3237.000000	0.001405  
3236.000000	0.001310  
3235.000000	0.001235  
3234.000000	0.001179  
3233.000000	0.001150  
3232.000000	0.001164  
3231.000000	0.001235  
3230.000000	0.001336  
3229.000000	0.001412  
3228.000000	0.001445  
3227.000000	0.001486  
3226.000000	0.001585  
3225.000000	0.001722  
3224.000000	0.001833  
3223.000000	0.001884  
3222.000000	0.001884  
3221.000000	0.001837  
3220.000000	0.001736  
3219.000000	0.001606  
3218.000000	0.001504  
3217.000000	0.001476  
3216.000000	0.001528  
3215.000000	0.001639  
3214.000000	0.001769  
3213.000000	0.001861  
3212.000000	0.001874  
3211.000000	0.001833  
3210.000000	0.001804  
3209.000000	0.001838  
3208.000000	0.001936  
3207.000000	0.002078  
3206.000000	0.002231  
3205.000000	0.002351  
3204.000000	0.002404  
3203.000000	0.002406  
3202.000000	0.002395  
3201.000000	0.002357  
3200.000000	0.002214  
3199.000000	0.001925  
3198.000000	0.001558  
3197.000000	0.001240  
3196.000000	0.001039  
3195.000000	0.000940  
3194.000000	0.000915  
3193.000000	0.000964  
3192.000000	0.001094  
3191.000000	0.001302  
3190.000000	0.001578  
3189.000000	0.001894  
3188.000000	0.002185  
3187.000000	0.002362  
3186.000000	0.002390  
3185.000000	0.002320  
3184.000000	0.002232  
3183.000000	0.002153  
3182.000000	0.002055  
3181.000000	0.001931  
3180.000000	0.001819  
3179.000000	0.001745  
3178.000000	0.001699  
3177.000000	0.001675  
3176.000000	0.001708  
3175.000000	0.001835  
3174.000000	0.002011  
3173.000000	0.002134  
3172.000000	0.002147  
3171.000000	0.002088  
3170.000000	0.002038  
3169.000000	0.002037  
3168.000000	0.002062  
3167.000000	0.002079  
3166.000000	0.002071  
3165.000000	0.002046  
3164.000000	0.002022  
3163.000000	0.002017  
3162.000000	0.002031  
3161.000000	0.002052  
3160.000000	0.002074  
3159.000000	0.002102  
3158.000000	0.002143  
3157.000000	0.002196  
3156.000000	0.002253  
3155.000000	0.002303  
3154.000000	0.002344  
3153.000000	0.002378  
3152.000000	0.002394  
3151.000000	0.002353  
3150.000000	0.002210  
3149.000000	0.001985  
3148.000000	0.001777  
3147.000000	0.001676  
3146.000000	0.001658  
3145.000000	0.001638  
3144.000000	0.001597  
3143.000000	0.001606  
3142.000000	0.001704  
3141.000000	0.001816  
3140.000000	0.001853  
3139.000000	0.001836  
3138.000000	0.001866  
3137.000000	0.001980  
3136.000000	0.002096  
3135.000000	0.002111  
3134.000000	0.002005  
3133.000000	0.001864  
3132.000000	0.001797  
3131.000000	0.001855  
3130.000000	0.001990  
3129.000000	0.002098  
3128.000000	0.002120  
3127.000000	0.002074  
3126.000000	0.002010  
3125.000000	0.001950  
3124.000000	0.001905  
3123.000000	0.001918  
3122.000000	0.002021  
3121.000000	0.002160  
3120.000000	0.002223  
3119.000000	0.002153  
3118.000000	0.002005  
3117.000000	0.001888  
3116.000000	0.001878  
3115.000000	0.001981  
3114.000000	0.002138  
3113.000000	0.002261  
3112.000000	0.002293  
3111.000000	0.002255  
3110.000000	0.002216  
3109.000000	0.002207  
3108.000000	0.002197  
3107.000000	0.002143  
3106.000000	0.002042  
3105.000000	0.001943  
3104.000000	0.001913  
3103.000000	0.002005  
3102.000000	0.002206  
3101.000000	0.002408  
3100.000000	0.002470  
3099.000000	0.002345  
3098.000000	0.002119  
3097.000000	0.001942  
3096.000000	0.001909  
3095.000000	0.002015  
3094.000000	0.002182  
3093.000000	0.002317  
3092.000000	0.002372  
3091.000000	0.002373  
3090.000000	0.002377  
3089.000000	0.002405  
3088.000000	0.002431  
3087.000000	0.002447  
3086.000000	0.002480  
3085.000000	0.002551  
3084.000000	0.002622  
3083.000000	0.002643  
3082.000000	0.002614  
3081.000000	0.002589  
3080.000000	0.002622  
3079.000000	0.002727  
3078.000000	0.002888  
3077.000000	0.003056  
3076.000000	0.003161  
3075.000000	0.003148  
3074.000000	0.003020  
3073.000000	0.002854  
3072.000000	0.002753  
3071.000000	0.002783  
3070.000000	0.002933  
3069.000000	0.003116  
3068.000000	0.003237  
3067.000000	0.003258  
3066.000000	0.003225  
3065.000000	0.003226  
3064.000000	0.003313  
3063.000000	0.003467  
3062.000000	0.003607  
3061.000000	0.003653  
3060.000000	0.003589  
3059.000000	0.003471  
3058.000000	0.003378  
3057.000000	0.003336  
3056.000000	0.003328  
3055.000000	0.003349  
3054.000000	0.003416  
3053.000000	0.003513  
3052.000000	0.003568  
3051.000000	0.003535  
3050.000000	0.003466  
3049.000000	0.003475  
3048.000000	0.003618  
3047.000000	0.003841  
3046.000000	0.004037  
3045.000000	0.004131  
3044.000000	0.004112  
3043.000000	0.004023  
3042.000000	0.003933  
3041.000000	0.003908  
3040.000000	0.003980  
3039.000000	0.004128  
3038.000000	0.004279  
3037.000000	0.004354  
3036.000000	0.004320  
3035.000000	0.004215  
3034.000000	0.004117  
3033.000000	0.004086  
3032.000000	0.004146  
3031.000000	0.004294  
3030.000000	0.004512  
3029.000000	0.004743  
3028.000000	0.004909  
3027.000000	0.004978  
3026.000000	0.004999  
3025.000000	0.005060  
3024.000000	0.005210  
3023.000000	0.005430  
3022.000000	0.005662  
3021.000000	0.005837  
3020.000000	0.005910  
3019.000000	0.005897  
3018.000000	0.005886  
3017.000000	0.005963  
3016.000000	0.006136  
3015.000000	0.006344  
3014.000000	0.006522  
3013.000000	0.006641  
3012.000000	0.006696  
3011.000000	0.006697  
3010.000000	0.006688  
3009.000000	0.006736  
3008.000000	0.006882  
3007.000000	0.007107  
3006.000000	0.007344  
3005.000000	0.007515  
3004.000000	0.007570  
3003.000000	0.007525  
3002.000000	0.007479  
3001.000000	0.007561  
3000.000000	0.007830  
2999.000000	0.008212  
2998.000000	0.008565  
2997.000000	0.008789  
2996.000000	0.008897  
2995.000000	0.008986  
2994.000000	0.009169  
2993.000000	0.009518  
2992.000000	0.010035  
2991.000000	0.010654  
2990.000000	0.011279  
2989.000000	0.011850  
2988.000000	0.012389  
2987.000000	0.012984  
2986.000000	0.013729  
2985.000000	0.014649  
2984.000000	0.015704  
2983.000000	0.016837  
2982.000000	0.018042  
2981.000000	0.019359  
2980.000000	0.020832  
2979.000000	0.022482  
2978.000000	0.024338  
2977.000000	0.026465  
2976.000000	0.028950  
2975.000000	0.031843  
2974.000000	0.035141  
2973.000000	0.038795  
2972.000000	0.042746  
2971.000000	0.046965  
2970.000000	0.051476  
2969.000000	0.056363  
2968.000000	0.061686  
2967.000000	0.067370  
2966.000000	0.073195  
2965.000000	0.078933  
2964.000000	0.084484  
2963.000000	0.089867  
2962.000000	0.095093  
2961.000000	0.100112  
2960.000000	0.104847  
2959.000000	0.109209  
2958.000000	0.113035  
2957.000000	0.116093  
2956.000000	0.118219  
2955.000000	0.119401  
2954.000000	0.119704  
2953.000000	0.119152  
2952.000000	0.117760  
2951.000000	0.115651  
2950.000000	0.113093  
2949.000000	0.110392  
2948.000000	0.107789  
2947.000000	0.105455  
2946.000000	0.103547  
2945.000000	0.102252  
2944.000000	0.101767  
2943.000000	0.102241  
2942.000000	0.103736  
2941.000000	0.106225  
2940.000000	0.109631  
2939.000000	0.113882  
2938.000000	0.118921  
2937.000000	0.124679  
2936.000000	0.131025  
2935.000000	0.137777  
2934.000000	0.144769  
2933.000000	0.151956  
2932.000000	0.159428  
2931.000000	0.167274  
2930.000000	0.175429  
2929.000000	0.183642  
2928.000000	0.191591  
2927.000000	0.198986  
2926.000000	0.205576  
2925.000000	0.211131  
2924.000000	0.215438  
2923.000000	0.218282  
2922.000000	0.219472  
2921.000000	0.218979  
2920.000000	0.217024  
2919.000000	0.213950  
2918.000000	0.209992  
2917.000000	0.205264  
2916.000000	0.199941  
2915.000000	0.194331  
2914.000000	0.188717  
2913.000000	0.183213  
2912.000000	0.177839  
2911.000000	0.172664  
2910.000000	0.167802  
2909.000000	0.163273  
2908.000000	0.158933  
2907.000000	0.154582  
2906.000000	0.150122  
2905.000000	0.145619  
2904.000000	0.141225  
2903.000000	0.137050  
2902.000000	0.133109  
2901.000000	0.129352  
2900.000000	0.125712  
2899.000000	0.122109  
2898.000000	0.118451  
2897.000000	0.114697  
2896.000000	0.110918  
2895.000000	0.107253  
2894.000000	0.103786  
2893.000000	0.100463  
2892.000000	0.097160  
2891.000000	0.093822  
2890.000000	0.090521  
2889.000000	0.087405  
2888.000000	0.084601  
2887.000000	0.082165  
2886.000000	0.080090  
2885.000000	0.078361  
2884.000000	0.077022  
2883.000000	0.076164  
2882.000000	0.075870  
2881.000000	0.076165  
2880.000000	0.077068  
2879.000000	0.078653  
2878.000000	0.081011  
2877.000000	0.084107  
2876.000000	0.087694  
2875.000000	0.091381  
2874.000000	0.094775  
2873.000000	0.097570  
2872.000000	0.099571  
2871.000000	0.100727  
2870.000000	0.101159  
2869.000000	0.101136  
2868.000000	0.100996  
2867.000000	0.101034  
2866.000000	0.101481  
2865.000000	0.102522  
2864.000000	0.104302  
2863.000000	0.106862  
2862.000000	0.110110  
2861.000000	0.113887  
2860.000000	0.118071  
2859.000000	0.122588  
2858.000000	0.127294  
2857.000000	0.131868  
2856.000000	0.135846  
2855.000000	0.138723  
2854.000000	0.140054  
2853.000000	0.139558  
2852.000000	0.137213  
2851.000000	0.133248  
2850.000000	0.128023  
2849.000000	0.121878  
2848.000000	0.115115  
2847.000000	0.108028  
2846.000000	0.100894  
2845.000000	0.093892  
2844.000000	0.087058  
2843.000000	0.080352  
2842.000000	0.073780  
2841.000000	0.067426  
2840.000000	0.061409  
2839.000000	0.055825  
2838.000000	0.050742  
2837.000000	0.046188  
2836.000000	0.042129  
2835.000000	0.038475  
2834.000000	0.035133  
2833.000000	0.032073  
2832.000000	0.029322  
2831.000000	0.026931  
2830.000000	0.024926  
2829.000000	0.023280  
2828.000000	0.021903  
2827.000000	0.020686  
2826.000000	0.019565  
2825.000000	0.018526  
2824.000000	0.017572  
2823.000000	0.016705  
2822.000000	0.015945  
2821.000000	0.015319  
2820.000000	0.014813  
2819.000000	0.014350  
2818.000000	0.013860  
2817.000000	0.013336  
2816.000000	0.012824  
2815.000000	0.012342  
2814.000000	0.011872  
2813.000000	0.011398  
2812.000000	0.010935  
2811.000000	0.010518  
2810.000000	0.010172  
2809.000000	0.009916  
2808.000000	0.009759  
2807.000000	0.009684  
2806.000000	0.009633  
2805.000000	0.009538  
2804.000000	0.009349  
2803.000000	0.009057  
2802.000000	0.008698  
2801.000000	0.008344  
2800.000000	0.008075  
2799.000000	0.007920  
2798.000000	0.007841  
2797.000000	0.007771  
2796.000000	0.007677  
2795.000000	0.007559  
2794.000000	0.007400  
2793.000000	0.007151  
2792.000000	0.006786  
2791.000000	0.006367  
2790.000000	0.006030  
2789.000000	0.005873  
2788.000000	0.005877  
2787.000000	0.005929  
2786.000000	0.005921  
2785.000000	0.005822  
2784.000000	0.005670  
2783.000000	0.005524  
2782.000000	0.005430  
2781.000000	0.005410  
2780.000000	0.005456  
2779.000000	0.005520  
2778.000000	0.005530  
2777.000000	0.005424  
2776.000000	0.005199  
2775.000000	0.004923  
2774.000000	0.004703  
2773.000000	0.004615  
2772.000000	0.004651  
2771.000000	0.004722  
2770.000000	0.004729  
2769.000000	0.004628  
2768.000000	0.004444  
2767.000000	0.004239  
2766.000000	0.004077  
2765.000000	0.004010  
2764.000000	0.004057  
2763.000000	0.004186  
2762.000000	0.004319  
2761.000000	0.004387  
2760.000000	0.004373  
2759.000000	0.004306  
2758.000000	0.004227  
2757.000000	0.004165  
2756.000000	0.004135  
2755.000000	0.004139  
2754.000000	0.004155  
2753.000000	0.004143  
2752.000000	0.004087  
2751.000000	0.004017  
2750.000000	0.003985  
2749.000000	0.004013  
2748.000000	0.004066  
2747.000000	0.004078  
2746.000000	0.004014  
2745.000000	0.003906  
2744.000000	0.003833  
2743.000000	0.003849  
2742.000000	0.003941  
2741.000000	0.004053  
2740.000000	0.004158  
2739.000000	0.004263  
2738.000000	0.004368  
2737.000000	0.004446  
2736.000000	0.004491  
2735.000000	0.004543  
2734.000000	0.004640  
2733.000000	0.004761  
2732.000000	0.004835  
2731.000000	0.004827  
2730.000000	0.004773  
2729.000000	0.004736  
2728.000000	0.004733  
2727.000000	0.004736  
2726.000000	0.004710  
2725.000000	0.004649  
2724.000000	0.004580  
2723.000000	0.004542  
2722.000000	0.004553  
2721.000000	0.004596  
2720.000000	0.004639  
2719.000000	0.004660  
2718.000000	0.004647  
2717.000000	0.004593  
2716.000000	0.004510  
2715.000000	0.004426  
2714.000000	0.004357  
2713.000000	0.004280  
2712.000000	0.004163  
2711.000000	0.004024  
2710.000000	0.003924  
2709.000000	0.003889  
2708.000000	0.003893  
2707.000000	0.003892  
2706.000000	0.003870  
2705.000000	0.003816  
2704.000000	0.003707  
2703.000000	0.003549  
2702.000000	0.003396  
2701.000000	0.003307  
2700.000000	0.003280  
2699.000000	0.003275  
2698.000000	0.003271  
2697.000000	0.003289  
2696.000000	0.003345  
2695.000000	0.003422  
2694.000000	0.003495  
2693.000000	0.003558  
2692.000000	0.003608  
2691.000000	0.003642  
2690.000000	0.003680  
2689.000000	0.003769  
2688.000000	0.003924  
2687.000000	0.004091  
2686.000000	0.004188  
2685.000000	0.004194  
2684.000000	0.004167  
2683.000000	0.004183  
2682.000000	0.004253  
2681.000000	0.004323  
2680.000000	0.004332  
2679.000000	0.004272  
2678.000000	0.004191  
2677.000000	0.004154  
2676.000000	0.004199  
2675.000000	0.004308  
2674.000000	0.004418  
2673.000000	0.004469  
2672.000000	0.004447  
2671.000000	0.004384  
2670.000000	0.004322  
2669.000000	0.004288  
2668.000000	0.004297  
2667.000000	0.004353  
2666.000000	0.004436  
2665.000000	0.004504  
2664.000000	0.004520  
2663.000000	0.004460  
2662.000000	0.004312  
2661.000000	0.004090  
2660.000000	0.003859  
2659.000000	0.003704  
2658.000000	0.003654  
2657.000000	0.003645  
2656.000000	0.003615  
2655.000000	0.003581  
2654.000000	0.003605  
2653.000000	0.003685  
2652.000000	0.003758  
2651.000000	0.003791  
2650.000000	0.003821  
2649.000000	0.003877  
2648.000000	0.003918  
2647.000000	0.003883  
2646.000000	0.003760  
2645.000000	0.003594  
2644.000000	0.003445  
2643.000000	0.003379  
2642.000000	0.003454  
2641.000000	0.003661  
2640.000000	0.003888  
2639.000000	0.003986  
2638.000000	0.003881  
2637.000000	0.003624  
2636.000000	0.003347  
2635.000000	0.003184  
2634.000000	0.003214  
2633.000000	0.003416  
2632.000000	0.003682  
2631.000000	0.003878  
2630.000000	0.003919  
2629.000000	0.003801  
2628.000000	0.003605  
2627.000000	0.003462  
2626.000000	0.003466  
2625.000000	0.003579  
2624.000000	0.003648  
2623.000000	0.003562  
2622.000000	0.003355  
2621.000000	0.003146  
2620.000000	0.002999  
2619.000000	0.002897  
2618.000000	0.002820  
2617.000000	0.002801  
2616.000000	0.002879  
2615.000000	0.003049  
2614.000000	0.003263  
2613.000000	0.003458  
2612.000000	0.003584  
2611.000000	0.003635  
2610.000000	0.003654  
2609.000000	0.003689  
2608.000000	0.003736  
2607.000000	0.003765  
2606.000000	0.003767  
2605.000000	0.003753  
2604.000000	0.003715  
2603.000000	0.003630  
2602.000000	0.003517  
2601.000000	0.003437  
2600.000000	0.003420  
2599.000000	0.003424  
2598.000000	0.003384  
2597.000000	0.003296  
2596.000000	0.003213  
2595.000000	0.003171  
2594.000000	0.003136  
2593.000000	0.003037  
2592.000000	0.002854  
2591.000000	0.002662  
2590.000000	0.002568  
2589.000000	0.002587  
2588.000000	0.002643  
2587.000000	0.002672  
2586.000000	0.002690  
2585.000000	0.002723  
2584.000000	0.002716  
2583.000000	0.002600  
2582.000000	0.002413  
2581.000000	0.002290  
2580.000000	0.002307  
2579.000000	0.002420  
2578.000000	0.002546  
2577.000000	0.002644  
2576.000000	0.002686  
2575.000000	0.002634  
2574.000000	0.002497  
2573.000000	0.002379  
2572.000000	0.002389  
2571.000000	0.002508  
2570.000000	0.002603  
2569.000000	0.002572  
2568.000000	0.002437  
2567.000000	0.002298  
2566.000000	0.002214  
2565.000000	0.002160  
2564.000000	0.002082  
2563.000000	0.001970  
2562.000000	0.001873  
2561.000000	0.001861  
2560.000000	0.001949  
2559.000000	0.002089  
2558.000000	0.002216  
2557.000000	0.002310  
2556.000000	0.002391  
2555.000000	0.002445  
2554.000000	0.002421  
2553.000000	0.002307  
2552.000000	0.002202  
2551.000000	0.002247  
2550.000000	0.002460  
2549.000000	0.002696  
2548.000000	0.002779  
2547.000000	0.002655  
2546.000000	0.002384  
2545.000000	0.002051  
2544.000000	0.001751  
2543.000000	0.001598  
2542.000000	0.001638  
2541.000000	0.001769  
2540.000000	0.001833  
2539.000000	0.001817  
2538.000000	0.001850  
2537.000000	0.001993  
2536.000000	0.002116  
2535.000000	0.002067  
2534.000000	0.001882  
2533.000000	0.001728  
2532.000000	0.001689  
2531.000000	0.001691  
2530.000000	0.001627  
2529.000000	0.001473  
2528.000000	0.001299  
2527.000000	0.001217  
2526.000000	0.001316  
2525.000000	0.001586  
2524.000000	0.001921  
2523.000000	0.002200  
2522.000000	0.002369  
2521.000000	0.002404  
2520.000000	0.002276  
2519.000000	0.002028  
2518.000000	0.001827  
2517.000000	0.001842  
2516.000000	0.002058  
2515.000000	0.002298  
2514.000000	0.002410  
2513.000000	0.002374  
2512.000000	0.002245  
2511.000000	0.002069  
2510.000000	0.001898  
2509.000000	0.001794  
2508.000000	0.001787  
2507.000000	0.001862  
2506.000000	0.001993  
2505.000000	0.002151  
2504.000000	0.002255  
2503.000000	0.002217  
2502.000000	0.002068  
2501.000000	0.001963  
2500.000000	0.002016  
2499.000000	0.002154  
2498.000000	0.002181  
2497.000000	0.001963  
2496.000000	0.001542  
2495.000000	0.001091  
2494.000000	0.000801  
2493.000000	0.000774  
2492.000000	0.000980  
2491.000000	0.001298  
2490.000000	0.001606  
2489.000000	0.001832  
2488.000000	0.001942  
2487.000000	0.001914  
2486.000000	0.001758  
2485.000000	0.001528  
2484.000000	0.001311  
2483.000000	0.001208  
2482.000000	0.001315  
2481.000000	0.001650  
2480.000000	0.002103  
2479.000000	0.002482  
2478.000000	0.002649  
2477.000000	0.002593  
2476.000000	0.002392  
2475.000000	0.002133  
2474.000000	0.001879  
2473.000000	0.001680  
2472.000000	0.001563  
2471.000000	0.001521  
2470.000000	0.001508  
2469.000000	0.001464  
2468.000000	0.001384  
2467.000000	0.001353  
2466.000000	0.001477  
2465.000000	0.001727  
2464.000000	0.001921  
2463.000000	0.001903  
2462.000000	0.001714  
2461.000000	0.001529  
2460.000000	0.001460  
2459.000000	0.001502  
2458.000000	0.001632  
2457.000000	0.001833  
2456.000000	0.001997  
2455.000000	0.001963  
2454.000000	0.001705  
2453.000000	0.001388  
2452.000000	0.001177  
2451.000000	0.001061  
2450.000000	0.000944  
2449.000000	0.000840  
2448.000000	0.000857  
2447.000000	0.001045  
2446.000000	0.001337  
2445.000000	0.001621  
2444.000000	0.001813  
2443.000000	0.001869  
2442.000000	0.001810  
2441.000000	0.001727  
2440.000000	0.001694  
2439.000000	0.001684  
2438.000000	0.001626  
2437.000000	0.001524  
2436.000000	0.001446  
2435.000000	0.001409  
2434.000000	0.001358  
2433.000000	0.001262  
2432.000000	0.001181  
2431.000000	0.001181  
2430.000000	0.001249  
2429.000000	0.001322  
2428.000000	0.001375  
2427.000000	0.001443  
2426.000000	0.001565  
2425.000000	0.001720  
2424.000000	0.001839  
2423.000000	0.001851  
2422.000000	0.001747  
2421.000000	0.001596  
2420.000000	0.001501  
2419.000000	0.001511  
2418.000000	0.001592  
2417.000000	0.001660  
2416.000000	0.001658  
2415.000000	0.001590  
2414.000000	0.001512  
2413.000000	0.001490  
2412.000000	0.001552  
2411.000000	0.001672  
2410.000000	0.001804  
2409.000000	0.001932  
2408.000000	0.002061  
2407.000000	0.002158  
2406.000000	0.002138  
2405.000000	0.001942  
2404.000000	0.001626  
2403.000000	0.001341  
2402.000000	0.001200  
2401.000000	0.001182  
2400.000000	0.001196  
2399.000000	0.001213  
2398.000000	0.001297  
2397.000000	0.001502  
2396.000000	0.001774  
2395.000000	0.002007  
2394.000000	0.002141  
2393.000000	0.002205  
2392.000000	0.002241  
2391.000000	0.002251  
2390.000000	0.002202  
2389.000000	0.002076  
2388.000000	0.001913  
2387.000000	0.001816  
2386.000000	0.001885  
2385.000000	0.002126  
2384.000000	0.002414  
2383.000000	0.002599  
2382.000000	0.002646  
2381.000000	0.002673  
2380.000000	0.002824  
2379.000000	0.003126  
2378.000000	0.003440  
2377.000000	0.003553  
2376.000000	0.003343  
2375.000000	0.002902  
2374.000000	0.002509  
2373.000000	0.002397  
2372.000000	0.002533  
2371.000000	0.002700  
2370.000000	0.002766  
2369.000000	0.002789  
2368.000000	0.002843  
2367.000000	0.002932  
2366.000000	0.003085  
2365.000000	0.003328  
2364.000000	0.003477  
2363.000000	0.003224  
2362.000000	0.002612  
2361.000000	0.002183  
2360.000000	0.002368  
2359.000000	0.002963  
2358.000000	0.003453  
2357.000000	0.003531  
2356.000000	0.003230  
2355.000000	0.002728  
2354.000000	0.002241  
2353.000000	0.002027  
2352.000000	0.002177  
2351.000000	0.002553  
2350.000000	0.002875  
2349.000000	0.002962  
2348.000000	0.002864  
2347.000000	0.002727  
2346.000000	0.002754  
2345.000000	0.002984  
2344.000000	0.003163  
2343.000000	0.002991  
2342.000000	0.002541  
2341.000000	0.002360  
2340.000000	0.002704  
2339.000000	0.003227  
2338.000000	0.003326  
2337.000000	0.002828  
2336.000000	0.002122  
2335.000000	0.001652  
2334.000000	0.001547  
2333.000000	0.001688  
2332.000000	0.001979  
2331.000000	0.002328  
2330.000000	0.002608  
2329.000000	0.002687  
2328.000000	0.002660  
2327.000000	0.002625  
2326.000000	0.002673  
2325.000000	0.002676  
2324.000000	0.002501  
2323.000000	0.002073  
2322.000000	0.001498  
2321.000000	0.001065  
2320.000000	0.001000  
2319.000000	0.001306  
2318.000000	0.001706  
2317.000000	0.001874  
2316.000000	0.001693  
2315.000000	0.001314  
2314.000000	0.001063  
2313.000000	0.001109  
2312.000000	0.001377  
2311.000000	0.001611  
2310.000000	0.001729  
2309.000000	0.001814  
2308.000000	0.002003  
2307.000000	0.002217  
2306.000000	0.002291  
2305.000000	0.002123  
2304.000000	0.001813  
2303.000000	0.001515  
2302.000000	0.001316  
2301.000000	0.001172  
2300.000000	0.001032  
2299.000000	0.000924  
2298.000000	0.000981  
2297.000000	0.001257  
2296.000000	0.001635  
2295.000000	0.001884  
2294.000000	0.001918  
2293.000000	0.001849  
2292.000000	0.001842  
2291.000000	0.001901  
2290.000000	0.001919  
2289.000000	0.001824  
2288.000000	0.001632  
2287.000000	0.001364  
2286.000000	0.001044  
2285.000000	0.000765  
2284.000000	0.000667  
2283.000000	0.000778  
2282.000000	0.000969  
2281.000000	0.001108  
2280.000000	0.001207  
2279.000000	0.001356  
2278.000000	0.001534  
2277.000000	0.001606  
2276.000000	0.001527  
2275.000000	0.001490  
2274.000000	0.001761  
2273.000000	0.002364  
2272.000000	0.002997  
2271.000000	0.003320  
2270.000000	0.003272  
2269.000000	0.003038  
2268.000000	0.002741  
2267.000000	0.002315  
2266.000000	0.001734  
2265.000000	0.001207  
2264.000000	0.001017  
2263.000000	0.001201  
2262.000000	0.001536  
2261.000000	0.001798  
2260.000000	0.001920  
2259.000000	0.001916  
2258.000000	0.001828  
2257.000000	0.001767  
2256.000000	0.001866  
2255.000000	0.002119  
2254.000000	0.002344  
2253.000000	0.002392  
2252.000000	0.002304  
2251.000000	0.002209  
2250.000000	0.002126  
2249.000000	0.001961  
2248.000000	0.001648  
2247.000000	0.001238  
2246.000000	0.000865  
2245.000000	0.000676  
2244.000000	0.000749  
2243.000000	0.001036  
2242.000000	0.001387  
2241.000000	0.001665  
2240.000000	0.001825  
2239.000000	0.001872  
2238.000000	0.001810  
2237.000000	0.001669  
2236.000000	0.001541  
2235.000000	0.001520  
2234.000000	0.001618  
2233.000000	0.001766  
2232.000000	0.001882  
2231.000000	0.001907  
2230.000000	0.001811  
2229.000000	0.001613  
2228.000000	0.001395  
2227.000000	0.001261  
2226.000000	0.001260  
2225.000000	0.001331  
2224.000000	0.001299  
2223.000000	0.000997  
2222.000000	0.000467  
2221.000000	0.000035  
2220.000000	0.000063  
2219.000000	0.000558  
2218.000000	0.001148  
2217.000000	0.001503  
2216.000000	0.001681  
2215.000000	0.001921  
2214.000000	0.002207  
2213.000000	0.002270  
2212.000000	0.002014  
2211.000000	0.001705  
2210.000000	0.001627  
2209.000000	0.001701  
2208.000000	0.001612  
2207.000000	0.001268  
2206.000000	0.000930  
2205.000000	0.000909  
2204.000000	0.001253  
2203.000000	0.001793  
2202.000000	0.002355  
2201.000000	0.002838  
2200.000000	0.003167  
2199.000000	0.003305  
2198.000000	0.003301  
2197.000000	0.003241  
2196.000000	0.003124  
2195.000000	0.002875  
2194.000000	0.002486  
2193.000000	0.002078  
2192.000000	0.001751  
2191.000000	0.001456  
2190.000000	0.001138  
2189.000000	0.000926  
2188.000000	0.001055  
2187.000000	0.001532  
2186.000000	0.002039  
2185.000000	0.002216  
2184.000000	0.002021  
2183.000000	0.001725  
2182.000000	0.001622  
2181.000000	0.001823  
2180.000000	0.002248  
2179.000000	0.002711  
2178.000000	0.002996  
2177.000000	0.002970  
2176.000000	0.002676  
2175.000000	0.002251  
2174.000000	0.001752  
2173.000000	0.001171  
2172.000000	0.000624  
2171.000000	0.000392  
2170.000000	0.000641  
2169.000000	0.001152  
2168.000000	0.001493  
2167.000000	0.001517  
2166.000000	0.001548  
2165.000000	0.001967  
2164.000000	0.002667  
2163.000000	0.003084  
2162.000000	0.002797  
2161.000000	0.001992  
2160.000000	0.001284  
2159.000000	0.001091  
2158.000000	0.001318  
2157.000000	0.001628  
2156.000000	0.001813  
2155.000000	0.001850  
2154.000000	0.001796  
2153.000000	0.001745  
2152.000000	0.001804  
2151.000000	0.001984  
2150.000000	0.002124  
2149.000000	0.002017  
2148.000000	0.001641  
2147.000000	0.001238  
2146.000000	0.001105  
2145.000000	0.001345  
2144.000000	0.001808  
2143.000000	0.002228  
2142.000000	0.002369  
2141.000000	0.002101  
2140.000000	0.001479  
2139.000000	0.000785  
2138.000000	0.000414  
2137.000000	0.000572  
2136.000000	0.001060  
2135.000000	0.001429  
2134.000000	0.001413  
2133.000000	0.001162  
2132.000000	0.001053  
2131.000000	0.001298  
2130.000000	0.001785  
2129.000000	0.002241  
2128.000000	0.002467  
2127.000000	0.002417  
2126.000000	0.002123  
2125.000000	0.001651  
2124.000000	0.001144  
2123.000000	0.000832  
2122.000000	0.000916  
2121.000000	0.001390  
2120.000000	0.001995  
2119.000000	0.002382  
2118.000000	0.002361  
2117.000000	0.002043  
2116.000000	0.001751  
2115.000000	0.001743  
2114.000000	0.001972  
2113.000000	0.002139  
2112.000000	0.002013  
2111.000000	0.001696  
2110.000000	0.001506  
2109.000000	0.001599  
2108.000000	0.001779  
2107.000000	0.001750  
2106.000000	0.001456  
2105.000000	0.001102  
2104.000000	0.000860  
2103.000000	0.000715  
2102.000000	0.000589  
2101.000000	0.000482  
2100.000000	0.000426  
2099.000000	0.000404  
2098.000000	0.000402  
2097.000000	0.000470  
2096.000000	0.000645  
2095.000000	0.000842  
2094.000000	0.000931  
2093.000000	0.000896  
2092.000000	0.000841  
2091.000000	0.000835  
2090.000000	0.000845  
2089.000000	0.000847  
2088.000000	0.000915  
2087.000000	0.001138  
2086.000000	0.001477  
2085.000000	0.001749  
2084.000000	0.001777  
2083.000000	0.001532  
2082.000000	0.001168  
2081.000000	0.000937  
2080.000000	0.001019  
2079.000000	0.001380  
2078.000000	0.001769  
2077.000000	0.001893  
2076.000000	0.001670  
2075.000000	0.001311  
2074.000000	0.001137  
2073.000000	0.001299  
2072.000000	0.001669  
2071.000000	0.002009  
2070.000000	0.002197  
2069.000000	0.002246  
2068.000000	0.002182  
2067.000000	0.002007  
2066.000000	0.001795  
2065.000000	0.001703  
2064.000000	0.001807  
2063.000000	0.002002  
2062.000000	0.002129  
2061.000000	0.002136  
2060.000000	0.002049  
2059.000000	0.001889  
2058.000000	0.001687  
2057.000000	0.001526  
2056.000000	0.001430  
2055.000000	0.001265  
2054.000000	0.000919  
2053.000000	0.000540  
2052.000000	0.000410  
2051.000000	0.000603  
2050.000000	0.000928  
2049.000000	0.001259  
2048.000000	0.001684  
2047.000000	0.002180  
2046.000000	0.002386  
2045.000000	0.001987  
2044.000000	0.001198  
2043.000000	0.000570  
2042.000000	0.000404  
2041.000000	0.000562  
2040.000000	0.000828  
2039.000000	0.001146  
2038.000000	0.001451  
2037.000000	0.001551  
2036.000000	0.001376  
2035.000000	0.001171  
2034.000000	0.001259  
2033.000000	0.001657  
2032.000000	0.002058  
2031.000000	0.002129  
2030.000000	0.001713  
2029.000000	0.000876  
2028.000000	-0.000091 
2027.000000	-0.000800 
2026.000000	-0.001030 
2025.000000	-0.000910 
2024.000000	-0.000726 
2023.000000	-0.000549 
2022.000000	-0.000185 
2021.000000	0.000467  
2020.000000	0.001160  
2019.000000	0.001491  
2018.000000	0.001300  
2017.000000	0.000793  
2016.000000	0.000299  
2015.000000	0.000016  
2014.000000	0.000024  
2013.000000	0.000344  
2012.000000	0.000802  
2011.000000	0.000963  
2010.000000	0.000455  
2009.000000	-0.000575 
2008.000000	-0.001478 
2007.000000	-0.001720 
2006.000000	-0.001366 
2005.000000	-0.000828 
2004.000000	-0.000326 
2003.000000	0.000234  
2002.000000	0.000949  
2001.000000	0.001687  
2000.000000	0.002182  
1999.000000	0.002228  
1998.000000	0.001784  
1997.000000	0.001044  
1996.000000	0.000386  
1995.000000	0.000133  
1994.000000	0.000295  
1993.000000	0.000607  
1992.000000	0.000809  
1991.000000	0.000849  
1990.000000	0.000809  
1989.000000	0.000784  
1988.000000	0.000878  
1987.000000	0.001151  
1986.000000	0.001508  
1985.000000	0.001769  
1984.000000	0.001911  
1983.000000	0.002061  
1982.000000	0.002201  
1981.000000	0.002082  
1980.000000	0.001610  
1979.000000	0.001110  
1978.000000	0.000935  
1977.000000	0.000925  
1976.000000	0.000637  
1975.000000	0.000023  
1974.000000	-0.000514 
1973.000000	-0.000706 
1972.000000	-0.000667 
1971.000000	-0.000552 
1970.000000	-0.000312 
1969.000000	0.000064  
1968.000000	0.000371  
1967.000000	0.000448  
1966.000000	0.000454  
1965.000000	0.000632  
1964.000000	0.000964  
1963.000000	0.001240  
1962.000000	0.001363  
1961.000000	0.001401  
1960.000000	0.001413  
1959.000000	0.001385  
1958.000000	0.001315  
1957.000000	0.001207  
1956.000000	0.000998  
1955.000000	0.000602  
1954.000000	0.000090  
1953.000000	-0.000290 
1952.000000	-0.000296 
1951.000000	0.000123  
1950.000000	0.000799  
1949.000000	0.001427  
1948.000000	0.001744  
1947.000000	0.001703  
1946.000000	0.001501  
1945.000000	0.001383  
1944.000000	0.001401  
1943.000000	0.001408  
1942.000000	0.001285  
1941.000000	0.001093  
1940.000000	0.000945  
1939.000000	0.000887  
1938.000000	0.000959  
1937.000000	0.001235  
1936.000000	0.001707  
1935.000000	0.002184  
1934.000000	0.002426  
1933.000000	0.002377  
1932.000000	0.002197  
1931.000000	0.002054  
1930.000000	0.001967  
1929.000000	0.001861  
1928.000000	0.001711  
1927.000000	0.001545  
1926.000000	0.001381  
1925.000000	0.001214  
1924.000000	0.001060  
1923.000000	0.000974  
1922.000000	0.000992  
1921.000000	0.001106  
1920.000000	0.001277  
1919.000000	0.001450  
1918.000000	0.001573  
1917.000000	0.001635  
1916.000000	0.001675  
1915.000000	0.001687  
1914.000000	0.001589  
1913.000000	0.001331  
1912.000000	0.001012  
1911.000000	0.000824  
1910.000000	0.000862  
1909.000000	0.001033  
1908.000000	0.001190  
1907.000000	0.001286  
1906.000000	0.001345  
1905.000000	0.001351  
1904.000000	0.001266  
1903.000000	0.001129  
1902.000000	0.001042  
1901.000000	0.001073  
1900.000000	0.001191  
1899.000000	0.001320  
1898.000000	0.001413  
1897.000000	0.001466  
1896.000000	0.001488  
1895.000000	0.001508  
1894.000000	0.001560  
1893.000000	0.001657  
1892.000000	0.001767  
1891.000000	0.001842  
1890.000000	0.001858  
1889.000000	0.001827  
1888.000000	0.001772  
1887.000000	0.001687  
1886.000000	0.001574  
1885.000000	0.001493  
1884.000000	0.001514  
1883.000000	0.001615  
1882.000000	0.001679  
1881.000000	0.001621  
1880.000000	0.001479  
1879.000000	0.001346  
1878.000000	0.001252  
1877.000000	0.001185  
1876.000000	0.001185  
1875.000000	0.001319  
1874.000000	0.001572  
1873.000000	0.001811  
1872.000000	0.001928  
1871.000000	0.001927  
1870.000000	0.001858  
1869.000000	0.001725  
1868.000000	0.001564  
1867.000000	0.001490  
1866.000000	0.001557  
1865.000000	0.001671  
1864.000000	0.001699  
1863.000000	0.001614  
1862.000000	0.001498  
1861.000000	0.001434  
1860.000000	0.001434  
1859.000000	0.001480  
1858.000000	0.001581  
1857.000000	0.001727  
1856.000000	0.001842  
1855.000000	0.001825  
1854.000000	0.001648  
1853.000000	0.001413  
1852.000000	0.001296  
1851.000000	0.001373  
1850.000000	0.001540  
1849.000000	0.001603  
1848.000000	0.001477  
1847.000000	0.001272  
1846.000000	0.001180  
1845.000000	0.001287  
1844.000000	0.001476  
1843.000000	0.001585  
1842.000000	0.001565  
1841.000000	0.001457  
1840.000000	0.001355  
1839.000000	0.001354  
1838.000000	0.001465  
1837.000000	0.001582  
1836.000000	0.001605  
1835.000000	0.001559  
1834.000000	0.001519  
1833.000000	0.001481  
1832.000000	0.001392  
1831.000000	0.001273  
1830.000000	0.001255  
1829.000000	0.001417  
1828.000000	0.001650  
1827.000000	0.001792  
1826.000000	0.001782  
1825.000000	0.001664  
1824.000000	0.001546  
1823.000000	0.001539  
1822.000000	0.001649  
1821.000000	0.001753  
1820.000000	0.001691  
1819.000000	0.001452  
1818.000000	0.001232  
1817.000000	0.001228  
1816.000000	0.001422  
1815.000000	0.001633  
1814.000000	0.001712  
1813.000000	0.001646  
1812.000000	0.001525  
1811.000000	0.001467  
1810.000000	0.001539  
1809.000000	0.001686  
1808.000000	0.001788  
1807.000000	0.001784  
1806.000000	0.001729  
1805.000000	0.001719  
1804.000000	0.001783  
1803.000000	0.001877  
1802.000000	0.001943  
1801.000000	0.001974  
1800.000000	0.002004  
1799.000000	0.002065  
1798.000000	0.002154  
1797.000000	0.002217  
1796.000000	0.002198  
1795.000000	0.002088  
1794.000000	0.001935  
1793.000000	0.001806  
1792.000000	0.001707  
1791.000000	0.001613  
1790.000000	0.001530  
1789.000000	0.001484  
1788.000000	0.001492  
1787.000000	0.001547  
1786.000000	0.001622  
1785.000000	0.001677  
1784.000000	0.001675  
1783.000000	0.001613  
1782.000000	0.001523  
1781.000000	0.001485  
1780.000000	0.001551  
1779.000000	0.001702  
1778.000000	0.001879  
1777.000000	0.002014  
1776.000000	0.002050  
1775.000000	0.001959  
1774.000000	0.001784  
1773.000000	0.001625  
1772.000000	0.001546  
1771.000000	0.001531  
1770.000000	0.001508  
1769.000000	0.001444  
1768.000000	0.001363  
1767.000000	0.001308  
1766.000000	0.001313  
1765.000000	0.001375  
1764.000000	0.001474  
1763.000000	0.001592  
1762.000000	0.001696  
1761.000000	0.001780  
1760.000000	0.001845  
1759.000000	0.001875  
1758.000000	0.001859  
1757.000000	0.001821  
1756.000000	0.001798  
1755.000000	0.001792  
1754.000000	0.001788  
1753.000000	0.001805  
1752.000000	0.001879  
1751.000000	0.001973  
1750.000000	0.001990  
1749.000000	0.001891  
1748.000000	0.001740  
1747.000000	0.001642  
1746.000000	0.001642  
1745.000000	0.001718  
1744.000000	0.001792  
1743.000000	0.001801  
1742.000000	0.001736  
1741.000000	0.001624  
1740.000000	0.001503  
1739.000000	0.001414  
1738.000000	0.001342  
1737.000000	0.001223  
1736.000000	0.001069  
1735.000000	0.000988  
1734.000000	0.001059  
1733.000000	0.001257  
1732.000000	0.001456  
1731.000000	0.001550  
1730.000000	0.001574  
1729.000000	0.001613  
1728.000000	0.001697  
1727.000000	0.001798  
1726.000000	0.001881  
1725.000000	0.001927  
1724.000000	0.001924  
1723.000000	0.001902  
1722.000000	0.001912  
1721.000000	0.001963  
1720.000000	0.002038  
1719.000000	0.002110  
1718.000000	0.002128  
1717.000000	0.002059  
1716.000000	0.001962  
1715.000000	0.001891  
1714.000000	0.001858  
1713.000000	0.001849  
1712.000000	0.001834  
1711.000000	0.001795  
1710.000000	0.001752  
1709.000000	0.001756  
1708.000000	0.001837  
1707.000000	0.001984  
1706.000000	0.002169  
1705.000000	0.002349  
1704.000000	0.002489  
1703.000000	0.002570  
1702.000000	0.002625  
1701.000000	0.002644  
1700.000000	0.002549  
1699.000000	0.002411  
1698.000000	0.002252  
1697.000000	0.002041  
1696.000000	0.001889  
1695.000000	0.001914  
1694.000000	0.002051  
1693.000000	0.002112  
1692.000000	0.002061  
1691.000000	0.002029  
1690.000000	0.002107  
1689.000000	0.002249  
1688.000000	0.002345  
1687.000000	0.002348  
1686.000000	0.002344  
1685.000000	0.002422  
1684.000000	0.002516  
1683.000000	0.002545  
1682.000000	0.002494  
1681.000000	0.002392  
1680.000000	0.002328  
1679.000000	0.002330  
1678.000000	0.002316  
1677.000000	0.002200  
1676.000000	0.001988  
1675.000000	0.001842  
1674.000000	0.001910  
1673.000000	0.002129  
1672.000000	0.002335  
1671.000000	0.002471  
1670.000000	0.002534  
1669.000000	0.002527  
1668.000000	0.002474  
1667.000000	0.002407  
1666.000000	0.002373  
1665.000000	0.002413  
1664.000000	0.002511  
1663.000000	0.002572  
1662.000000	0.002531  
1661.000000	0.002444  
1660.000000	0.002388  
1659.000000	0.002389  
1658.000000	0.002434  
1657.000000	0.002465  
1656.000000	0.002407  
1655.000000	0.002278  
1654.000000	0.002179  
1653.000000	0.002181  
1652.000000	0.002413  
1651.000000	0.002739  
1650.000000	0.002880  
1649.000000	0.002914  
1648.000000	0.002955  
1647.000000	0.002879  
1646.000000	0.002628  
1645.000000	0.002365  
1644.000000	0.002184  
1643.000000	0.002074  
1642.000000	0.002050  
1641.000000	0.002123  
1640.000000	0.002235  
1639.000000	0.002301  
1638.000000	0.002327  
1637.000000	0.002383  
1636.000000	0.002445  
1635.000000	0.002428  
1634.000000	0.002389  
1633.000000	0.002369  
1632.000000	0.002354  
1631.000000	0.002363  
1630.000000	0.002400  
1629.000000	0.002464  
1628.000000	0.002551  
1627.000000	0.002660  
1626.000000	0.002773  
1625.000000	0.002869  
1624.000000	0.002917  
1623.000000	0.002916  
1622.000000	0.002926  
1621.000000	0.002986  
1620.000000	0.003054  
1619.000000	0.003098  
1618.000000	0.003158  
1617.000000	0.003285  
1616.000000	0.003475  
1615.000000	0.003649  
1614.000000	0.003733  
1613.000000	0.003751  
1612.000000	0.003779  
1611.000000	0.003854  
1610.000000	0.003969  
1609.000000	0.004097  
1608.000000	0.004186  
1607.000000	0.004185  
1606.000000	0.004104  
1605.000000	0.004005  
1604.000000	0.003919  
1603.000000	0.003834  
1602.000000	0.003750  
1601.000000	0.003675  
1600.000000	0.003583  
1599.000000	0.003443  
1598.000000	0.003284  
1597.000000	0.003185  
1596.000000	0.003181  
1595.000000	0.003223  
1594.000000	0.003251  
1593.000000	0.003261  
1592.000000	0.003288  
1591.000000	0.003348  
1590.000000	0.003418  
1589.000000	0.003457  
1588.000000	0.003435  
1587.000000	0.003352  
1586.000000	0.003244  
1585.000000	0.003157  
1584.000000	0.003114  
1583.000000	0.003099  
1582.000000	0.003107  
1581.000000	0.003142  
1580.000000	0.003185  
1579.000000	0.003200  
1578.000000	0.003179  
1577.000000	0.003112  
1576.000000	0.003008  
1575.000000	0.002975  
1574.000000	0.003055  
1573.000000	0.003175  
1572.000000	0.003285  
1571.000000	0.003345  
1570.000000	0.003307  
1569.000000	0.003209  
1568.000000	0.003131  
1567.000000	0.003058  
1566.000000	0.002953  
1565.000000	0.002835  
1564.000000	0.002735  
1563.000000	0.002660  
1562.000000	0.002627  
1561.000000	0.002715  
1560.000000	0.002956  
1559.000000	0.003034  
1558.000000	0.002915  
1557.000000	0.002944  
1556.000000	0.003041  
1555.000000	0.003114  
1554.000000	0.003183  
1553.000000	0.003238  
1552.000000	0.003209  
1551.000000	0.003058  
1550.000000	0.002870  
1549.000000	0.002767  
1548.000000	0.002805  
1547.000000	0.002950  
1546.000000	0.003150  
1545.000000	0.003324  
1544.000000	0.003362  
1543.000000	0.003273  
1542.000000	0.003220  
1541.000000	0.003290  
1540.000000	0.003359  
1539.000000	0.003405  
1538.000000	0.003548  
1537.000000	0.003707  
1536.000000	0.003775  
1535.000000	0.003761  
1534.000000	0.003679  
1533.000000	0.003552  
1532.000000	0.003421  
1531.000000	0.003325  
1530.000000	0.003284  
1529.000000	0.003291  
1528.000000	0.003312  
1527.000000	0.003360  
1526.000000	0.003511  
1525.000000	0.003780  
1524.000000	0.004047  
1523.000000	0.004217  
1522.000000	0.004338  
1521.000000	0.004487  
1520.000000	0.004635  
1519.000000	0.004706  
1518.000000	0.004712  
1517.000000	0.004718  
1516.000000	0.004743  
1515.000000	0.004803  
1514.000000	0.004952  
1513.000000	0.005211  
1512.000000	0.005499  
1511.000000	0.005711  
1510.000000	0.005843  
1509.000000	0.006006  
1508.000000	0.006276  
1507.000000	0.006547  
1506.000000	0.006794  
1505.000000	0.007147  
1504.000000	0.007440  
1503.000000	0.007519  
1502.000000	0.007493  
1501.000000	0.007494  
1500.000000	0.007533  
1499.000000	0.007597  
1498.000000	0.007811  
1497.000000	0.008257  
1496.000000	0.008717  
1495.000000	0.008985  
1494.000000	0.009144  
1493.000000	0.009318  
1492.000000	0.009468  
1491.000000	0.009516  
1490.000000	0.009569  
1489.000000	0.009804  
1488.000000	0.010162  
1487.000000	0.010513  
1486.000000	0.010886  
1485.000000	0.011352  
1484.000000	0.011906  
1483.000000	0.012529  
1482.000000	0.013308  
1481.000000	0.014275  
1480.000000	0.015323  
1479.000000	0.016432  
1478.000000	0.017808  
1477.000000	0.019610  
1476.000000	0.021703  
1475.000000	0.024093  
1474.000000	0.027519  
1473.000000	0.032891  
1472.000000	0.039752  
1471.000000	0.046692  
1470.000000	0.053143  
1469.000000	0.059116  
1468.000000	0.064444  
1467.000000	0.068964  
1466.000000	0.072816  
1465.000000	0.076121  
1464.000000	0.078657  
1463.000000	0.080380  
1462.000000	0.081659  
1461.000000	0.082795  
1460.000000	0.083853  
1459.000000	0.084866  
1458.000000	0.085785  
1457.000000	0.085968  
1456.000000	0.084861  
1455.000000	0.082955  
1454.000000	0.080689  
1453.000000	0.078065  
1452.000000	0.075163  
1451.000000	0.072322  
1450.000000	0.069750  
1449.000000	0.067221  
1448.000000	0.064428  
1447.000000	0.061412  
1446.000000	0.058324  
1445.000000	0.055101  
1444.000000	0.051609  
1443.000000	0.047928  
1442.000000	0.044312  
1441.000000	0.041003  
1440.000000	0.038094  
1439.000000	0.035455  
1438.000000	0.032726  
1437.000000	0.029651  
1436.000000	0.026657  
1435.000000	0.024345  
1434.000000	0.022566  
1433.000000	0.020857  
1432.000000	0.019065  
1431.000000	0.017314  
1430.000000	0.015736  
1429.000000	0.014394  
1428.000000	0.013373  
1427.000000	0.012687  
1426.000000	0.012160  
1425.000000	0.011609  
1424.000000	0.011042  
1423.000000	0.010581  
1422.000000	0.010227  
1421.000000	0.009876  
1420.000000	0.009491  
1419.000000	0.009118  
1418.000000	0.008796  
1417.000000	0.008545  
1416.000000	0.008396  
1415.000000	0.008357  
1414.000000	0.008356  
1413.000000	0.008300  
1412.000000	0.008165  
1411.000000	0.007981  
1410.000000	0.007765  
1409.000000	0.007554  
1408.000000	0.007435  
1407.000000	0.007446  
1406.000000	0.007482  
1405.000000	0.007440  
1404.000000	0.007381  
1403.000000	0.007420  
1402.000000	0.007529  
1401.000000	0.007602  
1400.000000	0.007624  
1399.000000	0.007651  
1398.000000	0.007710  
1397.000000	0.007807  
1396.000000	0.007988  
1395.000000	0.008275  
1394.000000	0.008611  
1393.000000	0.008994  
1392.000000	0.009514  
1391.000000	0.010254  
1390.000000	0.011266  
1389.000000	0.012683  
1388.000000	0.014726  
1387.000000	0.017407  
1386.000000	0.020385  
1385.000000	0.023389  
1384.000000	0.026504  
1383.000000	0.029969  
1382.000000	0.033932  
1381.000000	0.038341  
1380.000000	0.042837  
1379.000000	0.046657  
1378.000000	0.048936  
1377.000000	0.049234  
1376.000000	0.047581  
1375.000000	0.044247  
1374.000000	0.039880  
1373.000000	0.035503  
1372.000000	0.031888  
1371.000000	0.029235  
1370.000000	0.027465  
1369.000000	0.026467  
1368.000000	0.026015  
1367.000000	0.025699  
1366.000000	0.025084  
1365.000000	0.023885  
1364.000000	0.022052  
1363.000000	0.019830  
1362.000000	0.017710  
1361.000000	0.016092  
1360.000000	0.015027  
1359.000000	0.014341  
1358.000000	0.013861  
1357.000000	0.013511  
1356.000000	0.013290  
1355.000000	0.013195  
1354.000000	0.013168  
1353.000000	0.013134  
1352.000000	0.013063  
1351.000000	0.012972  
1350.000000	0.012881  
1349.000000	0.012788  
1348.000000	0.012668  
1347.000000	0.012502  
1346.000000	0.012302  
1345.000000	0.012129  
1344.000000	0.012058  
1343.000000	0.012100  
1342.000000	0.012179  
1341.000000	0.012189  
1340.000000	0.012066  
1339.000000	0.011812  
1338.000000	0.011485  
1337.000000	0.011153  
1336.000000	0.010866  
1335.000000	0.010624  
1334.000000	0.010389  
1333.000000	0.010128  
1332.000000	0.009860  
1331.000000	0.009631  
1330.000000	0.009449  
1329.000000	0.009289  
1328.000000	0.009136  
1327.000000	0.009008  
1326.000000	0.008909  
1325.000000	0.008830  
1324.000000	0.008765  
1323.000000	0.008722  
1322.000000	0.008699  
1321.000000	0.008681  
1320.000000	0.008663  
1319.000000	0.008655  
1318.000000	0.008663  
1317.000000	0.008683  
1316.000000	0.008722  
1315.000000	0.008794  
1314.000000	0.008899  
1313.000000	0.009015  
1312.000000	0.009121  
1311.000000	0.009222  
1310.000000	0.009336  
1309.000000	0.009476  
1308.000000	0.009636  
1307.000000	0.009788  
1306.000000	0.009893  
1305.000000	0.009929  
1304.000000	0.009899  
1303.000000	0.009819  
1302.000000	0.009720  
1301.000000	0.009644  
1300.000000	0.009613  
1299.000000	0.009602  
1298.000000	0.009559  
1297.000000	0.009461  
1296.000000	0.009329  
1295.000000	0.009178  
1294.000000	0.008990  
1293.000000	0.008759  
1292.000000	0.008530  
1291.000000	0.008369  
1290.000000	0.008296  
1289.000000	0.008271  
1288.000000	0.008250  
1287.000000	0.008212  
1286.000000	0.008164  
1285.000000	0.008116  
1284.000000	0.008076  
1283.000000	0.008037  
1282.000000	0.007989  
1281.000000	0.007934  
1280.000000	0.007882  
1279.000000	0.007833  
1278.000000	0.007777  
1277.000000	0.007727  
1276.000000	0.007716  
1275.000000	0.007756  
1274.000000	0.007819  
1273.000000	0.007867  
1272.000000	0.007883  
1271.000000	0.007866  
1270.000000	0.007814  
1269.000000	0.007740  
1268.000000	0.007682  
1267.000000	0.007654  
1266.000000	0.007619  
1265.000000	0.007529  
1264.000000	0.007397  
1263.000000	0.007278  
1262.000000	0.007218  
1261.000000	0.007211  
1260.000000	0.007219  
1259.000000	0.007205  
1258.000000	0.007151  
1257.000000	0.007066  
1256.000000	0.006970  
1255.000000	0.006881  
1254.000000	0.006813  
1253.000000	0.006799  
1252.000000	0.006858  
1251.000000	0.006947  
1250.000000	0.006972  
1249.000000	0.006891  
1248.000000	0.006771  
1247.000000	0.006706  
1246.000000	0.006715  
1245.000000	0.006730  
1244.000000	0.006694  
1243.000000	0.006606  
1242.000000	0.006490  
1241.000000	0.006376  
1240.000000	0.006296  
1239.000000	0.006270  
1238.000000	0.006278  
1237.000000	0.006277  
1236.000000	0.006250  
1235.000000	0.006210  
1234.000000	0.006163  
1233.000000	0.006091  
1232.000000	0.005996  
1231.000000	0.005906  
1230.000000	0.005845  
1229.000000	0.005807  
1228.000000	0.005781  
1227.000000	0.005774  
1226.000000	0.005787  
1225.000000	0.005800  
1224.000000	0.005791  
1223.000000	0.005764  
1222.000000	0.005736  
1221.000000	0.005706  
1220.000000	0.005663  
1219.000000	0.005616  
1218.000000	0.005605  
1217.000000	0.005662  
1216.000000	0.005771  
1215.000000	0.005859  
1214.000000	0.005853  
1213.000000	0.005747  
1212.000000	0.005607  
1211.000000	0.005523  
1210.000000	0.005536  
1209.000000	0.005603  
1208.000000	0.005643  
1207.000000	0.005614  
1206.000000	0.005547  
1205.000000	0.005502  
1204.000000	0.005495  
1203.000000	0.005482  
1202.000000	0.005428  
1201.000000	0.005357  
1200.000000	0.005314  
1199.000000	0.005309  
1198.000000	0.005319  
1197.000000	0.005341  
1196.000000	0.005393  
1195.000000	0.005476  
1194.000000	0.005565  
1193.000000	0.005638  
1192.000000	0.005689  
1191.000000	0.005699  
1190.000000	0.005655  
1189.000000	0.005579  
1188.000000	0.005519  
1187.000000	0.005499  
1186.000000	0.005503  
1185.000000	0.005525  
1184.000000	0.005583  
1183.000000	0.005683  
1182.000000	0.005795  
1181.000000	0.005890  
1180.000000	0.005966  
1179.000000	0.006026  
1178.000000	0.006067  
1177.000000	0.006111  
1176.000000	0.006209  
1175.000000	0.006382  
1174.000000	0.006593  
1173.000000	0.006796  
1172.000000	0.006985  
1171.000000	0.007165  
1170.000000	0.007306  
1169.000000	0.007360  
1168.000000	0.007324  
1167.000000	0.007245  
1166.000000	0.007178  
1165.000000	0.007144  
1164.000000	0.007121  
1163.000000	0.007072  
1162.000000	0.007005  
1161.000000	0.007002  
1160.000000	0.007144  
1159.000000	0.007405  
1158.000000	0.007650  
1157.000000	0.007761  
1156.000000	0.007723  
1155.000000	0.007588  
1154.000000	0.007397  
1153.000000	0.007176  
1152.000000	0.006975  
1151.000000	0.006841  
1150.000000	0.006787  
1149.000000	0.006804  
1148.000000	0.006882  
1147.000000	0.006991  
1146.000000	0.007063  
1145.000000	0.007044  
1144.000000	0.006938  
1143.000000	0.006783  
1142.000000	0.006608  
1141.000000	0.006421  
1140.000000	0.006239  
1139.000000	0.006099  
1138.000000	0.006037  
1137.000000	0.006082  
1136.000000	0.006213  
1135.000000	0.006334  
1134.000000	0.006327  
1133.000000	0.006179  
1132.000000	0.006001  
1131.000000	0.005902  
1130.000000	0.005876  
1129.000000	0.005869  
1128.000000	0.005873  
1127.000000	0.005912  
1126.000000	0.005955  
1125.000000	0.005941  
1124.000000	0.005867  
1123.000000	0.005801  
1122.000000	0.005787  
1121.000000	0.005812  
1120.000000	0.005846  
1119.000000	0.005872  
1118.000000	0.005870  
1117.000000	0.005838  
1116.000000	0.005819  
1115.000000	0.005861  
1114.000000	0.005939  
1113.000000	0.005977  
1112.000000	0.005945  
1111.000000	0.005877  
1110.000000	0.005803  
1109.000000	0.005712  
1108.000000	0.005618  
1107.000000	0.005586  
1106.000000	0.005663  
1105.000000	0.005798  
1104.000000	0.005889  
1103.000000	0.005878  
1102.000000	0.005805  
1101.000000	0.005756  
1100.000000	0.005791  
1099.000000	0.005890  
1098.000000	0.005988  
1097.000000	0.006046  
1096.000000	0.006093  
1095.000000	0.006168  
1094.000000	0.006253  
1093.000000	0.006300  
1092.000000	0.006309  
1091.000000	0.006320  
1090.000000	0.006325  
1089.000000	0.006259  
1088.000000	0.006098  
1087.000000	0.005915  
1086.000000	0.005819  
1085.000000	0.005841  
1084.000000	0.005922  
1083.000000	0.005981  
1082.000000	0.005980  
1081.000000	0.005947  
1080.000000	0.005950  
1079.000000	0.006049  
1078.000000	0.006229  
1077.000000	0.006419  
1076.000000	0.006569  
1075.000000	0.006696  
1074.000000	0.006842  
1073.000000	0.006999  
1072.000000	0.007102  
1071.000000	0.007108  
1070.000000	0.007038  
1069.000000	0.006955  
1068.000000	0.006899  
1067.000000	0.006853  
1066.000000	0.006782  
1065.000000	0.006700  
1064.000000	0.006660  
1063.000000	0.006691  
1062.000000	0.006744  
1061.000000	0.006748  
1060.000000	0.006693  
1059.000000	0.006644  
1058.000000	0.006659  
1057.000000	0.006746  
1056.000000	0.006892  
1055.000000	0.007078  
1054.000000	0.007241  
1053.000000	0.007261  
1052.000000	0.007062  
1051.000000	0.006738  
1050.000000	0.006499  
1049.000000	0.006470  
1048.000000	0.006589  
1047.000000	0.006704  
1046.000000	0.006729  
1045.000000	0.006679  
1044.000000	0.006621  
1043.000000	0.006636  
1042.000000	0.006773  
1041.000000	0.007008  
1040.000000	0.007237  
1039.000000	0.007349  
1038.000000	0.007313  
1037.000000	0.007189  
1036.000000	0.007062  
1035.000000	0.006996  
1034.000000	0.007025  
1033.000000	0.007148  
1032.000000	0.007296  
1031.000000	0.007369  
1030.000000	0.007335  
1029.000000	0.007261  
1028.000000	0.007229  
1027.000000	0.007244  
1026.000000	0.007249  
1025.000000	0.007220  
1024.000000	0.007183  
1023.000000	0.007158  
1022.000000	0.007133  
1021.000000	0.007104  
1020.000000	0.007088  
1019.000000	0.007085  
1018.000000	0.007074  
1017.000000	0.007068  
1016.000000	0.007115  
1015.000000	0.007225  
1014.000000	0.007328  
1013.000000	0.007333  
1012.000000	0.007229  
1011.000000	0.007093  
1010.000000	0.007018  
1009.000000	0.007040  
1008.000000	0.007130  
1007.000000	0.007212  
1006.000000	0.007221  
1005.000000	0.007151  
1004.000000	0.007060  
1003.000000	0.007023  
1002.000000	0.007067  
1001.000000	0.007151  
1000.000000	0.007187  
999.000000	 0.007095  
998.000000	 0.006876  
997.000000	 0.006643  
996.000000	 0.006544  
995.000000	 0.006630  
994.000000	 0.006809  
993.000000	 0.006940  
992.000000	 0.006951  
991.000000	 0.006873  
990.000000	 0.006793  
989.000000	 0.006792  
988.000000	 0.006892  
987.000000	 0.007032  
986.000000	 0.007121  
985.000000	 0.007146  
984.000000	 0.007197  
983.000000	 0.007350  
982.000000	 0.007557  
981.000000	 0.007703  
980.000000	 0.007749  
979.000000	 0.007768  
978.000000	 0.007846  
977.000000	 0.007983  
976.000000	 0.008120  
975.000000	 0.008207  
974.000000	 0.008238  
973.000000	 0.008244  
972.000000	 0.008276  
971.000000	 0.008370  
970.000000	 0.008518  
969.000000	 0.008673  
968.000000	 0.008784  
967.000000	 0.008827  
966.000000	 0.008796  
965.000000	 0.008695  
964.000000	 0.008542  
963.000000	 0.008380  
962.000000	 0.008263  
961.000000	 0.008227  
960.000000	 0.008258  
959.000000	 0.008301  
958.000000	 0.008304  
957.000000	 0.008282  
956.000000	 0.008292  
955.000000	 0.008358  
954.000000	 0.008418  
953.000000	 0.008394  
952.000000	 0.008287  
951.000000	 0.008178  
950.000000	 0.008136  
949.000000	 0.008160  
948.000000	 0.008215  
947.000000	 0.008294  
946.000000	 0.008424  
945.000000	 0.008608  
944.000000	 0.008805  
943.000000	 0.008950  
942.000000	 0.009000  
941.000000	 0.008951  
940.000000	 0.008819  
939.000000	 0.008622  
938.000000	 0.008400  
937.000000	 0.008212  
936.000000	 0.008095  
935.000000	 0.008023  
934.000000	 0.007958  
933.000000	 0.007925  
932.000000	 0.007986  
931.000000	 0.008121  
930.000000	 0.008194  
929.000000	 0.008083  
928.000000	 0.007847  
927.000000	 0.007673  
926.000000	 0.007686  
925.000000	 0.007835  
924.000000	 0.007981  
923.000000	 0.008050  
922.000000	 0.008068  
921.000000	 0.008082  
920.000000	 0.008090  
919.000000	 0.008057  
918.000000	 0.007981  
917.000000	 0.007915  
916.000000	 0.007916  
915.000000	 0.007982  
914.000000	 0.008040  
913.000000	 0.008017  
912.000000	 0.007897  
911.000000	 0.007721  
910.000000	 0.007578  
909.000000	 0.007555  
908.000000	 0.007668  
907.000000	 0.007801  
906.000000	 0.007784  
905.000000	 0.007577  
904.000000	 0.007353  
903.000000	 0.007329  
902.000000	 0.007541  
901.000000	 0.007830  
900.000000	 0.008037  
899.000000	 0.008136  
898.000000	 0.008194  
897.000000	 0.008258  
896.000000	 0.008328  
895.000000	 0.008389  
894.000000	 0.008438  
893.000000	 0.008488  
892.000000	 0.008567  
891.000000	 0.008697  
890.000000	 0.008849  
889.000000	 0.008949  
888.000000	 0.008956  
887.000000	 0.008900  
886.000000	 0.008843  
885.000000	 0.008795  
884.000000	 0.008714  
883.000000	 0.008580  
882.000000	 0.008441  
881.000000	 0.008373  
880.000000	 0.008403  
879.000000	 0.008490  
878.000000	 0.008573  
877.000000	 0.008618  
876.000000	 0.008615  
875.000000	 0.008554  
874.000000	 0.008424  
873.000000	 0.008225  
872.000000	 0.007974  
871.000000	 0.007719  
870.000000	 0.007567  
869.000000	 0.007636  
868.000000	 0.007928  
867.000000	 0.008254  
866.000000	 0.008374  
865.000000	 0.008220  
864.000000	 0.007947  
863.000000	 0.007742  
862.000000	 0.007653  
861.000000	 0.007644  
860.000000	 0.007716  
859.000000	 0.007880  
858.000000	 0.008050  
857.000000	 0.008110  
856.000000	 0.008084  
855.000000	 0.008159  
854.000000	 0.008466  
853.000000	 0.008923  
852.000000	 0.009331  
851.000000	 0.009575  
850.000000	 0.009674  
849.000000	 0.009668  
848.000000	 0.009566  
847.000000	 0.009390  
846.000000	 0.009221  
845.000000	 0.009128  
844.000000	 0.009095  
843.000000	 0.009036  
842.000000	 0.008902  
841.000000	 0.008729  
840.000000	 0.008596  
839.000000	 0.008554  
838.000000	 0.008591  
837.000000	 0.008645  
836.000000	 0.008611  
835.000000	 0.008387  
834.000000	 0.007974  
833.000000	 0.007531  
832.000000	 0.007272  
831.000000	 0.007268  
830.000000	 0.007390  
829.000000	 0.007482  
828.000000	 0.007550  
827.000000	 0.007723  
826.000000	 0.008058  
825.000000	 0.008453  
824.000000	 0.008758  
823.000000	 0.008896  
822.000000	 0.008884  
821.000000	 0.008837  
820.000000	 0.008924  
819.000000	 0.009244  
818.000000	 0.009723  
817.000000	 0.010176  
816.000000	 0.010467  
815.000000	 0.010578  
814.000000	 0.010544  
813.000000	 0.010405  
812.000000	 0.010230  
811.000000	 0.010142  
810.000000	 0.010245  
809.000000	 0.010546  
808.000000	 0.010963  
807.000000	 0.011383  
806.000000	 0.011686  
805.000000	 0.011768  
804.000000	 0.011587  
803.000000	 0.011200  
802.000000	 0.010733  
801.000000	 0.010297  
800.000000	 0.009936  
799.000000	 0.009634  
798.000000	 0.009351  
797.000000	 0.009060  
796.000000	 0.008772  
795.000000	 0.008512  
794.000000	 0.008304  
793.000000	 0.008172  
792.000000	 0.008159  
791.000000	 0.008272  
790.000000	 0.008429  
789.000000	 0.008499  
788.000000	 0.008444  
787.000000	 0.008394  
786.000000	 0.008522  
785.000000	 0.008869  
784.000000	 0.009306  
783.000000	 0.009679  
782.000000	 0.009950  
781.000000	 0.010191  
780.000000	 0.010481  
779.000000	 0.010828  
778.000000	 0.011184  
777.000000	 0.011512  
776.000000	 0.011818  
775.000000	 0.012117  
774.000000	 0.012399  
773.000000	 0.012643  
772.000000	 0.012869  
771.000000	 0.013132  
770.000000	 0.013457  
769.000000	 0.013806  
768.000000	 0.014098  
767.000000	 0.014248  
766.000000	 0.014172  
765.000000	 0.013811  
764.000000	 0.013210  
763.000000	 0.012569  
762.000000	 0.012143  
761.000000	 0.012045  
760.000000	 0.012178  
759.000000	 0.012344  
758.000000	 0.012432  
757.000000	 0.012467  
756.000000	 0.012533  
755.000000	 0.012674  
754.000000	 0.012847  
753.000000	 0.012957  
752.000000	 0.012938  
751.000000	 0.012820  
750.000000	 0.012729  
749.000000	 0.012806  
748.000000	 0.013115  
747.000000	 0.013657  
746.000000	 0.014463  
745.000000	 0.015613  
744.000000	 0.017120  
743.000000	 0.018770  
742.000000	 0.020146  
741.000000	 0.020852  
740.000000	 0.020782  
739.000000	 0.020166  
738.000000	 0.019365  
737.000000	 0.018618  
736.000000	 0.017985  
735.000000	 0.017465  
734.000000	 0.017121  
733.000000	 0.017027  
732.000000	 0.017140  
731.000000	 0.017305  
730.000000	 0.017440  
729.000000	 0.017686  
728.000000	 0.018296  
727.000000	 0.019361  
726.000000	 0.020689  
725.000000	 0.021946  
724.000000	 0.022907  
723.000000	 0.023516  
722.000000	 0.023733  
721.000000	 0.023382  
720.000000	 0.022272  
719.000000	 0.020470  
718.000000	 0.018378  
717.000000	 0.016485  
716.000000	 0.015077  
715.000000	 0.014115  
714.000000	 0.013333  
713.000000	 0.012497  
712.000000	 0.011599  
711.000000	 0.010818  
710.000000	 0.010327  
709.000000	 0.010142  
708.000000	 0.010144  
707.000000	 0.010205  
706.000000	 0.010310  
705.000000	 0.010548  
704.000000	 0.010969  
703.000000	 0.011461  
702.000000	 0.011827  
701.000000	 0.011995  
700.000000	 0.012085  
699.000000	 0.012195  
698.000000	 0.012178  
697.000000	 0.011745  
696.000000	 0.010849  
695.000000	 0.009853  
694.000000	 0.009212  
693.000000	 0.008992  
692.000000	 0.008799  
691.000000	 0.008225  
690.000000	 0.007312  
689.000000	 0.006475  
688.000000	 0.005979  
687.000000	 0.005645  
686.000000	 0.005190  
685.000000	 0.004674  
684.000000	 0.004391  
683.000000	 0.004458  
682.000000	 0.004714  
681.000000	 0.004959  
680.000000	 0.005105  
679.000000	 0.005117  
678.000000	 0.004990  
677.000000	 0.004827  
676.000000	 0.004768  
675.000000	 0.004760  
674.000000	 0.004616  
673.000000	 0.004372  
672.000000	 0.004254  
671.000000	 0.004132  
670.000000	 0.003496  
669.000000	 0.001958  
668.000000	 -0.000181 
667.000000	 -0.001498 
666.000000	 -0.000823 
665.000000	 0.000981  
664.000000	 0.002541  
663.000000	 0.003576  
662.000000	 0.004174  
661.000000	 0.004315  
660.000000	 0.004182  
659.000000	 0.004303  
658.000000	 0.004871  
657.000000	 0.005338  
656.000000	 0.005078  
655.000000	 0.004223  
654.000000	 0.003490  
653.000000	 0.003324  
652.000000	 0.003506  
651.000000	 0.003584  
650.000000	 0.003418  

