PE IR                   SPECTRUM    ASCII       PEDS        1.60        
  -1
NB4-25~3.ASC
17/04/10
13:49:26.00
17/04/10
13:49:26.00
Admin

650.000000
6









SPECTRUM ONE,CPU32 MAIN 00.02.5000 17-APRIL-2002 13:00:00
MIR TGS
MIR
OPTKBR
68128
0.200000

4.000000
STRONG
RATIO
SPECTRUM
MAGNITUDE

DOUBLE

COMBINED


0


#HDR
-1
-1
#GR
CM-1
A
0.00000011920928955078
0.0
4000.000000
-1.000000
3351
8
0.205090
-0.015821
#DATA
4000.000000	0.001336  
3999.000000	0.001278  
3998.000000	0.001275  
3997.000000	0.001150  
3996.000000	0.001279  
3995.000000	0.001466  
3994.000000	0.001645  
3993.000000	0.001762  
3992.000000	0.001797  
3991.000000	0.001771  
3990.000000	0.001717  
3989.000000	0.001647  
3988.000000	0.001542  
3987.000000	0.001395  
3986.000000	0.001260  
3985.000000	0.001216  
3984.000000	0.001285  
3983.000000	0.001384  
3982.000000	0.001393  
3981.000000	0.001270  
3980.000000	0.001091  
3979.000000	0.000978  
3978.000000	0.000996  
3977.000000	0.001127  
3976.000000	0.001315  
3975.000000	0.001516  
3974.000000	0.001691  
3973.000000	0.001787  
3972.000000	0.001765  
3971.000000	0.001649  
3970.000000	0.001518  
3969.000000	0.001430  
3968.000000	0.001362  
3967.000000	0.001252  
3966.000000	0.001100  
3965.000000	0.000993  
3964.000000	0.001029  
3963.000000	0.001211  
3962.000000	0.001441  
3961.000000	0.001614  
3960.000000	0.001701  
3959.000000	0.001734  
3958.000000	0.001735  
3957.000000	0.001686  
3956.000000	0.001568  
3955.000000	0.001415  
3954.000000	0.001311  
3953.000000	0.001326  
3952.000000	0.001448  
3951.000000	0.001589  
3950.000000	0.001659  
3949.000000	0.001639  
3948.000000	0.001590  
3947.000000	0.001580  
3946.000000	0.001610  
3945.000000	0.001621  
3944.000000	0.001555  
3943.000000	0.001415  
3942.000000	0.001267  
3941.000000	0.001186  
3940.000000	0.001217  
3939.000000	0.001351  
3938.000000	0.001526  
3937.000000	0.001647  
3936.000000	0.001647  
3935.000000	0.001547  
3934.000000	0.001451  
3933.000000	0.001463  
3932.000000	0.001591  
3931.000000	0.001747  
3930.000000	0.001843  
3929.000000	0.001852  
3928.000000	0.001813  
3927.000000	0.001787  
3926.000000	0.001813  
3925.000000	0.001887  
3924.000000	0.001971  
3923.000000	0.002040  
3922.000000	0.002098  
3921.000000	0.002160  
3920.000000	0.002214  
3919.000000	0.002232  
3918.000000	0.002192  
3917.000000	0.002112  
3916.000000	0.002025  
3915.000000	0.001948  
3914.000000	0.001860  
3913.000000	0.001725  
3912.000000	0.001538  
3911.000000	0.001343  
3910.000000	0.001222  
3909.000000	0.001249  
3908.000000	0.001442  
3907.000000	0.001751  
3906.000000	0.002082  
3905.000000	0.002342  
3904.000000	0.002459  
3903.000000	0.002392  
3902.000000	0.002172  
3901.000000	0.001919  
3900.000000	0.001781  
3899.000000	0.001815  
3898.000000	0.001929  
3897.000000	0.001980  
3896.000000	0.001896  
3895.000000	0.001712  
3894.000000	0.001539  
3893.000000	0.001483  
3892.000000	0.001560  
3891.000000	0.001668  
3890.000000	0.001708  
3889.000000	0.001674  
3888.000000	0.001618  
3887.000000	0.001582  
3886.000000	0.001587  
3885.000000	0.001620  
3884.000000	0.001646  
3883.000000	0.001635  
3882.000000	0.001589  
3881.000000	0.001546  
3880.000000	0.001547  
3879.000000	0.001603  
3878.000000	0.001702  
3877.000000	0.001821  
3876.000000	0.001929  
3875.000000	0.002029  
3874.000000	0.002156  
3873.000000	0.002320  
3872.000000	0.002493  
3871.000000	0.002630  
3870.000000	0.002713  
3869.000000	0.002739  
3868.000000	0.002724  
3867.000000	0.002682  
3866.000000	0.002601  
3865.000000	0.002478  
3864.000000	0.002344  
3863.000000	0.002234  
3862.000000	0.002146  
3861.000000	0.002041  
3860.000000	0.001891  
3859.000000	0.001727  
3858.000000	0.001623  
3857.000000	0.001615  
3856.000000	0.001644  
3855.000000	0.001612  
3854.000000	0.001605  
3853.000000	0.001702  
3852.000000	0.001807  
3851.000000	0.001880  
3850.000000	0.001968  
3849.000000	0.002108  
3848.000000	0.002293  
3847.000000	0.002473  
3846.000000	0.002607  
3845.000000	0.002717  
3844.000000	0.002864  
3843.000000	0.003069  
3842.000000	0.003287  
3841.000000	0.003435  
3840.000000	0.003436  
3839.000000	0.003263  
3838.000000	0.002971  
3837.000000	0.002694  
3836.000000	0.002560  
3835.000000	0.002614  
3834.000000	0.002800  
3833.000000	0.002979  
3832.000000	0.003020  
3831.000000	0.002896  
3830.000000	0.002695  
3829.000000	0.002519  
3828.000000	0.002402  
3827.000000	0.002316  
3826.000000	0.002257  
3825.000000	0.002301  
3824.000000	0.002538  
3823.000000	0.002948  
3822.000000	0.003373  
3821.000000	0.003574  
3820.000000	0.003417  
3819.000000	0.002996  
3818.000000	0.002518  
3817.000000	0.002149  
3816.000000	0.001952  
3815.000000	0.001872  
3814.000000	0.001832  
3813.000000	0.001795  
3812.000000	0.001746  
3811.000000	0.001679  
3810.000000	0.001597  
3809.000000	0.001531  
3808.000000	0.001554  
3807.000000	0.001721  
3806.000000	0.002010  
3805.000000	0.002348  
3804.000000	0.002648  
3803.000000	0.002799  
3802.000000	0.002741  
3801.000000	0.002533  
3800.000000	0.002305  
3799.000000	0.002155  
3798.000000	0.002104  
3797.000000	0.002122  
3796.000000	0.002170  
3795.000000	0.002212  
3794.000000	0.002215  
3793.000000	0.002152  
3792.000000	0.002017  
3791.000000	0.001848  
3790.000000	0.001708  
3789.000000	0.001646  
3788.000000	0.001662  
3787.000000	0.001715  
3786.000000	0.001755  
3785.000000	0.001751  
3784.000000	0.001700  
3783.000000	0.001623  
3782.000000	0.001544  
3781.000000	0.001491  
3780.000000	0.001496  
3779.000000	0.001565  
3778.000000	0.001661  
3777.000000	0.001732  
3776.000000	0.001748  
3775.000000	0.001704  
3774.000000	0.001621  
3773.000000	0.001545  
3772.000000	0.001533  
3771.000000	0.001641  
3770.000000	0.001890  
3769.000000	0.002213  
3768.000000	0.002473  
3767.000000	0.002553  
3766.000000	0.002419  
3765.000000	0.002156  
3764.000000	0.001910  
3763.000000	0.001782  
3762.000000	0.001781  
3761.000000	0.001864  
3760.000000	0.001994  
3759.000000	0.002150  
3758.000000	0.002288  
3757.000000	0.002353  
3756.000000	0.002339  
3755.000000	0.002338  
3754.000000	0.002543  
3753.000000	0.003117  
3752.000000	0.003948  
3751.000000	0.004557  
3750.000000	0.004548  
3749.000000	0.004071  
3748.000000	0.003549  
3747.000000	0.003285  
3746.000000	0.003352  
3745.000000	0.003620  
3744.000000	0.003822  
3743.000000	0.003831  
3742.000000	0.003762  
3741.000000	0.003784  
3740.000000	0.004010  
3739.000000	0.004458  
3738.000000	0.004994  
3737.000000	0.005366  
3736.000000	0.005379  
3735.000000	0.005095  
3734.000000	0.004791  
3733.000000	0.004647  
3732.000000	0.004607  
3731.000000	0.004558  
3730.000000	0.004491  
3729.000000	0.004458  
3728.000000	0.004464  
3727.000000	0.004458  
3726.000000	0.004390  
3725.000000	0.004254  
3724.000000	0.004056  
3723.000000	0.003780  
3722.000000	0.003410  
3721.000000	0.002966  
3720.000000	0.002518  
3719.000000	0.002160  
3718.000000	0.001957  
3717.000000	0.001908  
3716.000000	0.001947  
3715.000000	0.001995  
3714.000000	0.002030  
3713.000000	0.002130  
3712.000000	0.002401  
3711.000000	0.002782  
3710.000000	0.003074  
3709.000000	0.003179  
3708.000000	0.003179  
3707.000000	0.003221  
3706.000000	0.003350  
3705.000000	0.003442  
3704.000000	0.003304  
3703.000000	0.002880  
3702.000000	0.002365  
3701.000000	0.002041  
3700.000000	0.002015  
3699.000000	0.002181  
3698.000000	0.002361  
3697.000000	0.002468  
3696.000000	0.002545  
3695.000000	0.002686  
3694.000000	0.002904  
3693.000000	0.003098  
3692.000000	0.003148  
3691.000000	0.003049  
3690.000000	0.002918  
3689.000000	0.002831  
3688.000000	0.002724  
3687.000000	0.002547  
3686.000000	0.002346  
3685.000000	0.002214  
3684.000000	0.002215  
3683.000000	0.002324  
3682.000000	0.002431  
3681.000000	0.002440  
3680.000000	0.002368  
3679.000000	0.002345  
3678.000000	0.002500  
3677.000000	0.002834  
3676.000000	0.003203  
3675.000000	0.003388  
3674.000000	0.003347  
3673.000000	0.003232  
3672.000000	0.003181  
3671.000000	0.003194  
3670.000000	0.003186  
3669.000000	0.003080  
3668.000000	0.002881  
3667.000000	0.002658  
3666.000000	0.002447  
3665.000000	0.002211  
3664.000000	0.001906  
3663.000000	0.001546  
3662.000000	0.001204  
3661.000000	0.000952  
3660.000000	0.000808  
3659.000000	0.000783  
3658.000000	0.000922  
3657.000000	0.001281  
3656.000000	0.001803  
3655.000000	0.002323  
3654.000000	0.002704  
3653.000000	0.002883  
3652.000000	0.002850  
3651.000000	0.002688  
3650.000000	0.002563  
3649.000000	0.002557  
3648.000000	0.002618  
3647.000000	0.002688  
3646.000000	0.002733  
3645.000000	0.002740  
3644.000000	0.002735  
3643.000000	0.002772  
3642.000000	0.002878  
3641.000000	0.003016  
3640.000000	0.003103  
3639.000000	0.003089  
3638.000000	0.003001  
3637.000000	0.002916  
3636.000000	0.002911  
3635.000000	0.003013  
3634.000000	0.003195  
3633.000000	0.003403  
3632.000000	0.003586  
3631.000000	0.003721  
3630.000000	0.003838  
3629.000000	0.003956  
3628.000000	0.003997  
3627.000000	0.003913  
3626.000000	0.003766  
3625.000000	0.003628  
3624.000000	0.003516  
3623.000000	0.003391  
3622.000000	0.003188  
3621.000000	0.002896  
3620.000000	0.002622  
3619.000000	0.002504  
3618.000000	0.002560  
3617.000000	0.002703  
3616.000000	0.002845  
3615.000000	0.002951  
3614.000000	0.003046  
3613.000000	0.003181  
3612.000000	0.003376  
3611.000000	0.003603  
3610.000000	0.003797  
3609.000000	0.003863  
3608.000000	0.003752  
3607.000000	0.003508  
3606.000000	0.003224  
3605.000000	0.002975  
3604.000000	0.002810  
3603.000000	0.002788  
3602.000000	0.002973  
3601.000000	0.003359  
3600.000000	0.003822  
3599.000000	0.004181  
3598.000000	0.004305  
3597.000000	0.004193  
3596.000000	0.003954  
3595.000000	0.003725  
3594.000000	0.003576  
3593.000000	0.003475  
3592.000000	0.003354  
3591.000000	0.003199  
3590.000000	0.003081  
3589.000000	0.003115  
3588.000000	0.003342  
3587.000000	0.003618  
3586.000000	0.003750  
3585.000000	0.003675  
3584.000000	0.003448  
3583.000000	0.003163  
3582.000000	0.002917  
3581.000000	0.002796  
3580.000000	0.002822  
3579.000000	0.002918  
3578.000000	0.002957  
3577.000000	0.002877  
3576.000000	0.002730  
3575.000000	0.002605  
3574.000000	0.002524  
3573.000000	0.002434  
3572.000000	0.002307  
3571.000000	0.002209  
3570.000000	0.002280  
3569.000000	0.002602  
3568.000000	0.003058  
3567.000000	0.003364  
3566.000000	0.003359  
3565.000000	0.003160  
3564.000000	0.002968  
3563.000000	0.002866  
3562.000000	0.002829  
3561.000000	0.002828  
3560.000000	0.002885  
3559.000000	0.003019  
3558.000000	0.003174  
3557.000000	0.003233  
3556.000000	0.003117  
3555.000000	0.002846  
3554.000000	0.002540  
3553.000000	0.002341  
3552.000000	0.002318  
3551.000000	0.002424  
3550.000000	0.002544  
3549.000000	0.002580  
3548.000000	0.002522  
3547.000000	0.002455  
3546.000000	0.002484  
3545.000000	0.002634  
3544.000000	0.002831  
3543.000000	0.002991  
3542.000000	0.003090  
3541.000000	0.003160  
3540.000000	0.003214  
3539.000000	0.003211  
3538.000000	0.003101  
3537.000000	0.002896  
3536.000000	0.002683  
3535.000000	0.002556  
3534.000000	0.002550  
3533.000000	0.002644  
3532.000000	0.002803  
3531.000000	0.002999  
3530.000000	0.003197  
3529.000000	0.003353  
3528.000000	0.003439  
3527.000000	0.003454  
3526.000000	0.003406  
3525.000000	0.003292  
3524.000000	0.003126  
3523.000000	0.002972  
3522.000000	0.002900  
3521.000000	0.002920  
3520.000000	0.002976  
3519.000000	0.003027  
3518.000000	0.003088  
3517.000000	0.003195  
3516.000000	0.003344  
3515.000000	0.003488  
3514.000000	0.003583  
3513.000000	0.003616  
3512.000000	0.003600  
3511.000000	0.003556  
3510.000000	0.003507  
3509.000000	0.003461  
3508.000000	0.003413  
3507.000000	0.003366  
3506.000000	0.003349  
3505.000000	0.003394  
3504.000000	0.003486  
3503.000000	0.003564  
3502.000000	0.003588  
3501.000000	0.003566  
3500.000000	0.003539  
3499.000000	0.003539  
3498.000000	0.003583  
3497.000000	0.003671  
3496.000000	0.003784  
3495.000000	0.003895  
3494.000000	0.003981  
3493.000000	0.004005  
3492.000000	0.003923  
3491.000000	0.003729  
3490.000000	0.003502  
3489.000000	0.003363  
3488.000000	0.003371  
3487.000000	0.003492  
3486.000000	0.003668  
3485.000000	0.003869  
3484.000000	0.004054  
3483.000000	0.004150  
3482.000000	0.004108  
3481.000000	0.003979  
3480.000000	0.003869  
3479.000000	0.003836  
3478.000000	0.003861  
3477.000000	0.003898  
3476.000000	0.003928  
3475.000000	0.003957  
3474.000000	0.003989  
3473.000000	0.004013  
3472.000000	0.003997  
3471.000000	0.003910  
3470.000000	0.003767  
3469.000000	0.003640  
3468.000000	0.003602  
3467.000000	0.003661  
3466.000000	0.003761  
3465.000000	0.003835  
3464.000000	0.003834  
3463.000000	0.003734  
3462.000000	0.003566  
3461.000000	0.003423  
3460.000000	0.003401  
3459.000000	0.003508  
3458.000000	0.003672  
3457.000000	0.003824  
3456.000000	0.003944  
3455.000000	0.004042  
3454.000000	0.004124  
3453.000000	0.004205  
3452.000000	0.004307  
3451.000000	0.004420  
3450.000000	0.004497  
3449.000000	0.004513  
3448.000000	0.004506  
3447.000000	0.004529  
3446.000000	0.004588  
3445.000000	0.004655  
3444.000000	0.004713  
3443.000000	0.004748  
3442.000000	0.004743  
3441.000000	0.004706  
3440.000000	0.004700  
3439.000000	0.004783  
3438.000000	0.004911  
3437.000000	0.004952  
3436.000000	0.004805  
3435.000000	0.004514  
3434.000000	0.004243  
3433.000000	0.004150  
3432.000000	0.004259  
3431.000000	0.004458  
3430.000000	0.004591  
3429.000000	0.004570  
3428.000000	0.004404  
3427.000000	0.004168  
3426.000000	0.003959  
3425.000000	0.003866  
3424.000000	0.003926  
3423.000000	0.004091  
3422.000000	0.004264  
3421.000000	0.004391  
3420.000000	0.004490  
3419.000000	0.004591  
3418.000000	0.004679  
3417.000000	0.004730  
3416.000000	0.004757  
3415.000000	0.004790  
3414.000000	0.004830  
3413.000000	0.004862  
3412.000000	0.004906  
3411.000000	0.004995  
3410.000000	0.005101  
3409.000000	0.005128  
3408.000000	0.004990  
3407.000000	0.004720  
3406.000000	0.004449  
3405.000000	0.004294  
3404.000000	0.004277  
3403.000000	0.004345  
3402.000000	0.004461  
3401.000000	0.004630  
3400.000000	0.004842  
3399.000000	0.005019  
3398.000000	0.005071  
3397.000000	0.005010  
3396.000000	0.004969  
3395.000000	0.005077  
3394.000000	0.005328  
3393.000000	0.005578  
3392.000000	0.005677  
3391.000000	0.005583  
3390.000000	0.005377  
3389.000000	0.005182  
3388.000000	0.005065  
3387.000000	0.005000  
3386.000000	0.004927  
3385.000000	0.004835  
3384.000000	0.004801  
3383.000000	0.004898  
3382.000000	0.005107  
3381.000000	0.005323  
3380.000000	0.005448  
3379.000000	0.005449  
3378.000000	0.005324  
3377.000000	0.005085  
3376.000000	0.004782  
3375.000000	0.004528  
3374.000000	0.004441  
3373.000000	0.004541  
3372.000000	0.004742  
3371.000000	0.004938  
3370.000000	0.005102  
3369.000000	0.005271  
3368.000000	0.005454  
3367.000000	0.005603  
3366.000000	0.005664  
3365.000000	0.005643  
3364.000000	0.005581  
3363.000000	0.005482  
3362.000000	0.005325  
3361.000000	0.005139  
3360.000000	0.005027  
3359.000000	0.005061  
3358.000000	0.005209  
3357.000000	0.005369  
3356.000000	0.005472  
3355.000000	0.005505  
3354.000000	0.005469  
3353.000000	0.005359  
3352.000000	0.005206  
3351.000000	0.005072  
3350.000000	0.004999  
3349.000000	0.004976  
3348.000000	0.004999  
3347.000000	0.005097  
3346.000000	0.005285  
3345.000000	0.005492  
3344.000000	0.005603  
3343.000000	0.005569  
3342.000000	0.005453  
3341.000000	0.005358  
3340.000000	0.005324  
3339.000000	0.005318  
3338.000000	0.005304  
3337.000000	0.005290  
3336.000000	0.005300  
3335.000000	0.005320  
3334.000000	0.005307  
3333.000000	0.005252  
3332.000000	0.005204  
3331.000000	0.005211  
3330.000000	0.005269  
3329.000000	0.005342  
3328.000000	0.005408  
3327.000000	0.005463  
3326.000000	0.005483  
3325.000000	0.005437  
3324.000000	0.005341  
3323.000000	0.005264  
3322.000000	0.005262  
3321.000000	0.005318  
3320.000000	0.005385  
3319.000000	0.005446  
3318.000000	0.005524  
3317.000000	0.005613  
3316.000000	0.005654  
3315.000000	0.005587  
3314.000000	0.005423  
3313.000000	0.005250  
3312.000000	0.005168  
3311.000000	0.005222  
3310.000000	0.005380  
3309.000000	0.005543  
3308.000000	0.005594  
3307.000000	0.005478  
3306.000000	0.005256  
3305.000000	0.005083  
3304.000000	0.005073  
3303.000000	0.005209  
3302.000000	0.005376  
3301.000000	0.005490  
3300.000000	0.005541  
3299.000000	0.005535  
3298.000000	0.005449  
3297.000000	0.005295  
3296.000000	0.005164  
3295.000000	0.005161  
3294.000000	0.005289  
3293.000000	0.005464  
3292.000000	0.005621  
3291.000000	0.005751  
3290.000000	0.005842  
3289.000000	0.005845  
3288.000000	0.005729  
3287.000000	0.005539  
3286.000000	0.005348  
3285.000000	0.005184  
3284.000000	0.005049  
3283.000000	0.004965  
3282.000000	0.004965  
3281.000000	0.005039  
3280.000000	0.005118  
3279.000000	0.005138  
3278.000000	0.005098  
3277.000000	0.005059  
3276.000000	0.005099  
3275.000000	0.005259  
3274.000000	0.005518  
3273.000000	0.005788  
3272.000000	0.005958  
3271.000000	0.005961  
3270.000000	0.005814  
3269.000000	0.005588  
3268.000000	0.005340  
3267.000000	0.005091  
3266.000000	0.004868  
3265.000000	0.004744  
3264.000000	0.004794  
3263.000000	0.005009  
3262.000000	0.005282  
3261.000000	0.005496  
3260.000000	0.005621  
3259.000000	0.005696  
3258.000000	0.005741  
3257.000000	0.005717  
3256.000000	0.005578  
3255.000000	0.005350  
3254.000000	0.005141  
3253.000000	0.005070  
3252.000000	0.005178  
3251.000000	0.005384  
3250.000000	0.005551  
3249.000000	0.005610  
3248.000000	0.005608  
3247.000000	0.005607  
3246.000000	0.005596  
3245.000000	0.005515  
3244.000000	0.005378  
3243.000000	0.005280  
3242.000000	0.005281  
3241.000000	0.005336  
3240.000000	0.005363  
3239.000000	0.005327  
3238.000000	0.005234  
3237.000000	0.005092  
3236.000000	0.004916  
3235.000000	0.004741  
3234.000000	0.004604  
3233.000000	0.004521  
3232.000000	0.004513  
3231.000000	0.004606  
3230.000000	0.004777  
3229.000000	0.004937  
3228.000000	0.005010  
3227.000000	0.005018  
3226.000000	0.005039  
3225.000000	0.005105  
3224.000000	0.005179  
3223.000000	0.005218  
3222.000000	0.005211  
3221.000000	0.005156  
3220.000000	0.005057  
3219.000000	0.004947  
3218.000000	0.004887  
3217.000000	0.004910  
3216.000000	0.004995  
3215.000000	0.005088  
3214.000000	0.005150  
3213.000000	0.005166  
3212.000000	0.005146  
3211.000000	0.005115  
3210.000000	0.005097  
3209.000000	0.005095  
3208.000000	0.005108  
3207.000000	0.005144  
3206.000000	0.005209  
3205.000000	0.005286  
3204.000000	0.005350  
3203.000000	0.005393  
3202.000000	0.005419  
3201.000000	0.005403  
3200.000000	0.005305  
3199.000000	0.005114  
3198.000000	0.004862  
3197.000000	0.004594  
3196.000000	0.004349  
3195.000000	0.004170  
3194.000000	0.004100  
3193.000000	0.004144  
3192.000000	0.004265  
3191.000000	0.004430  
3190.000000	0.004637  
3189.000000	0.004878  
3188.000000	0.005090  
3187.000000	0.005201  
3186.000000	0.005200  
3185.000000	0.005149  
3184.000000	0.005104  
3183.000000	0.005059  
3182.000000	0.004982  
3181.000000	0.004881  
3180.000000	0.004790  
3179.000000	0.004720  
3178.000000	0.004647  
3177.000000	0.004585  
3176.000000	0.004612  
3175.000000	0.004779  
3174.000000	0.005020  
3173.000000	0.005179  
3172.000000	0.005145  
3171.000000	0.004942  
3170.000000	0.004693  
3169.000000	0.004519  
3168.000000	0.004481  
3167.000000	0.004567  
3166.000000	0.004712  
3165.000000	0.004837  
3164.000000	0.004897  
3163.000000	0.004892  
3162.000000	0.004839  
3161.000000	0.004750  
3160.000000	0.004649  
3159.000000	0.004577  
3158.000000	0.004563  
3157.000000	0.004608  
3156.000000	0.004688  
3155.000000	0.004786  
3154.000000	0.004885  
3153.000000	0.004965  
3152.000000	0.005003  
3151.000000	0.004969  
3150.000000	0.004837  
3149.000000	0.004613  
3148.000000	0.004368  
3147.000000	0.004188  
3146.000000	0.004100  
3145.000000	0.004073  
3144.000000	0.004090  
3143.000000	0.004170  
3142.000000	0.004298  
3141.000000	0.004394  
3140.000000	0.004399  
3139.000000	0.004368  
3138.000000	0.004410  
3137.000000	0.004543  
3136.000000	0.004670  
3135.000000	0.004678  
3134.000000	0.004549  
3133.000000	0.004367  
3132.000000	0.004271  
3131.000000	0.004360  
3130.000000	0.004597  
3129.000000	0.004821  
3128.000000	0.004874  
3127.000000	0.004741  
3126.000000	0.004544  
3125.000000	0.004405  
3124.000000	0.004374  
3123.000000	0.004448  
3122.000000	0.004601  
3121.000000	0.004769  
3120.000000	0.004851  
3119.000000	0.004778  
3118.000000	0.004568  
3117.000000	0.004317  
3116.000000	0.004144  
3115.000000	0.004126  
3114.000000	0.004252  
3113.000000	0.004434  
3112.000000	0.004585  
3111.000000	0.004680  
3110.000000	0.004745  
3109.000000	0.004774  
3108.000000	0.004725  
3107.000000	0.004576  
3106.000000	0.004370  
3105.000000	0.004194  
3104.000000	0.004133  
3103.000000	0.004226  
3102.000000	0.004432  
3101.000000	0.004620  
3100.000000	0.004648  
3099.000000	0.004486  
3098.000000	0.004253  
3097.000000	0.004104  
3096.000000	0.004118  
3095.000000	0.004267  
3094.000000	0.004468  
3093.000000	0.004625  
3092.000000	0.004668  
3091.000000	0.004598  
3090.000000	0.004482  
3089.000000	0.004397  
3088.000000	0.004376  
3087.000000	0.004421  
3086.000000	0.004521  
3085.000000	0.004641  
3084.000000	0.004716  
3083.000000	0.004698  
3082.000000	0.004611  
3081.000000	0.004541  
3080.000000	0.004560  
3079.000000	0.004688  
3078.000000	0.004886  
3077.000000	0.005080  
3076.000000	0.005190  
3075.000000	0.005170  
3074.000000	0.005044  
3073.000000	0.004886  
3072.000000	0.004775  
3071.000000	0.004766  
3070.000000	0.004862  
3069.000000	0.005008  
3068.000000	0.005114  
3067.000000	0.005128  
3066.000000	0.005086  
3065.000000	0.005089  
3064.000000	0.005208  
3063.000000	0.005413  
3062.000000	0.005590  
3061.000000	0.005625  
3060.000000	0.005492  
3059.000000	0.005274  
3058.000000	0.005087  
3057.000000	0.004990  
3056.000000	0.004967  
3055.000000	0.004997  
3054.000000	0.005080  
3053.000000	0.005195  
3052.000000	0.005269  
3051.000000	0.005247  
3050.000000	0.005173  
3049.000000	0.005160  
3048.000000	0.005275  
3047.000000	0.005470  
3046.000000	0.005639  
3045.000000	0.005712  
3044.000000	0.005691  
3043.000000	0.005628  
3042.000000	0.005580  
3041.000000	0.005579  
3040.000000	0.005629  
3039.000000	0.005720  
3038.000000	0.005833  
3037.000000	0.005931  
3036.000000	0.005973  
3035.000000	0.005949  
3034.000000	0.005885  
3033.000000	0.005828  
3032.000000	0.005826  
3031.000000	0.005925  
3030.000000	0.006149  
3029.000000	0.006457  
3028.000000	0.006766  
3027.000000	0.007011  
3026.000000	0.007210  
3025.000000	0.007431  
3024.000000	0.007730  
3023.000000	0.008112  
3022.000000	0.008528  
3021.000000	0.008889  
3020.000000	0.009127  
3019.000000	0.009275  
3018.000000	0.009472  
3017.000000	0.009843  
3016.000000	0.010380  
3015.000000	0.010958  
3014.000000	0.011461  
3013.000000	0.011842  
3012.000000	0.012103  
3011.000000	0.012255  
3010.000000	0.012328  
3009.000000	0.012366  
3008.000000	0.012399  
3007.000000	0.012426  
3006.000000	0.012416  
3005.000000	0.012319  
3004.000000	0.012081  
3003.000000	0.011711  
3002.000000	0.011327  
3001.000000	0.011109  
3000.000000	0.011146  
2999.000000	0.011363  
2998.000000	0.011598  
2997.000000	0.011731  
2996.000000	0.011745  
2995.000000	0.011701  
2994.000000	0.011701  
2993.000000	0.011857  
2992.000000	0.012228  
2991.000000	0.012790  
2990.000000	0.013448  
2989.000000	0.014109  
2988.000000	0.014747  
2987.000000	0.015410  
2986.000000	0.016170  
2985.000000	0.017055  
2984.000000	0.018033  
2983.000000	0.019060  
2982.000000	0.020151  
2981.000000	0.021370  
2980.000000	0.022774  
2979.000000	0.024374  
2978.000000	0.026166  
2977.000000	0.028190  
2976.000000	0.030529  
2975.000000	0.033260  
2974.000000	0.036410  
2973.000000	0.039926  
2972.000000	0.043702  
2971.000000	0.047650  
2970.000000	0.051785  
2969.000000	0.056237  
2968.000000	0.061128  
2967.000000	0.066411  
2966.000000	0.071856  
2965.000000	0.077197  
2964.000000	0.082293  
2963.000000	0.087145  
2962.000000	0.091789  
2961.000000	0.096214  
2960.000000	0.100340  
2959.000000	0.104020  
2958.000000	0.107061  
2957.000000	0.109284  
2956.000000	0.110619  
2955.000000	0.111129  
2954.000000	0.110930  
2953.000000	0.110120  
2952.000000	0.108777  
2951.000000	0.107015  
2950.000000	0.105019  
2949.000000	0.103012  
2948.000000	0.101192  
2947.000000	0.099714  
2946.000000	0.098707  
2945.000000	0.098323  
2944.000000	0.098719  
2943.000000	0.099997  
2942.000000	0.102151  
2941.000000	0.105092  
2940.000000	0.108735  
2939.000000	0.113059  
2938.000000	0.118085  
2937.000000	0.123792  
2936.000000	0.130042  
2935.000000	0.136604  
2934.000000	0.143277  
2933.000000	0.150002  
2932.000000	0.156855  
2931.000000	0.163896  
2930.000000	0.171031  
2929.000000	0.178021  
2928.000000	0.184597  
2927.000000	0.190539  
2926.000000	0.195674  
2925.000000	0.199864  
2924.000000	0.202964  
2923.000000	0.204778  
2922.000000	0.205090  
2921.000000	0.203832  
2920.000000	0.201203  
2919.000000	0.197548  
2918.000000	0.193150  
2917.000000	0.188195  
2916.000000	0.182881  
2915.000000	0.177433  
2914.000000	0.171998  
2913.000000	0.166604  
2912.000000	0.161286  
2911.000000	0.156190  
2910.000000	0.151491  
2909.000000	0.147212  
2908.000000	0.143171  
2907.000000	0.139128  
2906.000000	0.134968  
2905.000000	0.130772  
2904.000000	0.126719  
2903.000000	0.122944  
2902.000000	0.119459  
2901.000000	0.116183  
2900.000000	0.112997  
2899.000000	0.109794  
2898.000000	0.106525  
2897.000000	0.103228  
2896.000000	0.099999  
2895.000000	0.096917  
2894.000000	0.093977  
2893.000000	0.091099  
2892.000000	0.088194  
2891.000000	0.085241  
2890.000000	0.082321  
2889.000000	0.079586  
2888.000000	0.077175  
2887.000000	0.075148  
2886.000000	0.073483  
2885.000000	0.072157  
2884.000000	0.071203  
2883.000000	0.070693  
2882.000000	0.070677  
2881.000000	0.071168  
2880.000000	0.072188  
2879.000000	0.073807  
2878.000000	0.076078  
2877.000000	0.078932  
2876.000000	0.082128  
2875.000000	0.085324  
2874.000000	0.088199  
2873.000000	0.090513  
2872.000000	0.092123  
2871.000000	0.093000  
2870.000000	0.093283  
2869.000000	0.093281  
2868.000000	0.093355  
2867.000000	0.093761  
2866.000000	0.094625  
2865.000000	0.096037  
2864.000000	0.098118  
2863.000000	0.100941  
2862.000000	0.104425  
2861.000000	0.108375  
2860.000000	0.112622  
2859.000000	0.117081  
2858.000000	0.121619  
2857.000000	0.125917  
2856.000000	0.129487  
2855.000000	0.131824  
2854.000000	0.132552  
2853.000000	0.131500  
2852.000000	0.128726  
2851.000000	0.124471  
2850.000000	0.119070  
2849.000000	0.112871  
2848.000000	0.106185  
2847.000000	0.099279  
2846.000000	0.092380  
2845.000000	0.085662  
2844.000000	0.079224  
2843.000000	0.073099  
2842.000000	0.067302  
2841.000000	0.061861  
2840.000000	0.056803  
2839.000000	0.052139  
2838.000000	0.047889  
2837.000000	0.044086  
2836.000000	0.040735  
2835.000000	0.037761  
2834.000000	0.035054  
2833.000000	0.032558  
2832.000000	0.030307  
2831.000000	0.028360  
2830.000000	0.026720  
2829.000000	0.025328  
2828.000000	0.024099  
2827.000000	0.022964  
2826.000000	0.021892  
2825.000000	0.020884  
2824.000000	0.019956  
2823.000000	0.019117  
2822.000000	0.018366  
2821.000000	0.017691  
2820.000000	0.017077  
2819.000000	0.016512  
2818.000000	0.015991  
2817.000000	0.015510  
2816.000000	0.015054  
2815.000000	0.014594  
2814.000000	0.014111  
2813.000000	0.013612  
2812.000000	0.013120  
2811.000000	0.012666  
2810.000000	0.012289  
2809.000000	0.012033  
2808.000000	0.011908  
2807.000000	0.011861  
2806.000000	0.011803  
2805.000000	0.011667  
2804.000000	0.011440  
2803.000000	0.011141  
2802.000000	0.010806  
2801.000000	0.010495  
2800.000000	0.010266  
2799.000000	0.010129  
2798.000000	0.010036  
2797.000000	0.009937  
2796.000000	0.009832  
2795.000000	0.009736  
2794.000000	0.009624  
2793.000000	0.009430  
2792.000000	0.009122  
2791.000000	0.008756  
2790.000000	0.008458  
2789.000000	0.008321  
2788.000000	0.008336  
2787.000000	0.008405  
2786.000000	0.008424  
2785.000000	0.008367  
2784.000000	0.008265  
2783.000000	0.008158  
2782.000000	0.008059  
2781.000000	0.007984  
2780.000000	0.007962  
2779.000000	0.007988  
2778.000000	0.007994  
2777.000000	0.007889  
2776.000000	0.007650  
2775.000000	0.007353  
2774.000000	0.007116  
2773.000000	0.007005  
2772.000000	0.006999  
2771.000000	0.007022  
2770.000000	0.007006  
2769.000000	0.006924  
2768.000000	0.006777  
2767.000000	0.006577  
2766.000000	0.006359  
2765.000000	0.006194  
2764.000000	0.006147  
2763.000000	0.006218  
2762.000000	0.006329  
2761.000000	0.006393  
2760.000000	0.006372  
2759.000000	0.006276  
2758.000000	0.006134  
2757.000000	0.005987  
2756.000000	0.005895  
2755.000000	0.005894  
2754.000000	0.005947  
2753.000000	0.005964  
2752.000000	0.005888  
2751.000000	0.005760  
2750.000000	0.005678  
2749.000000	0.005704  
2748.000000	0.005799  
2747.000000	0.005857  
2746.000000	0.005804  
2745.000000	0.005668  
2744.000000	0.005546  
2743.000000	0.005515  
2742.000000	0.005573  
2741.000000	0.005670  
2740.000000	0.005775  
2739.000000	0.005875  
2738.000000	0.005954  
2737.000000	0.005997  
2736.000000	0.006025  
2735.000000	0.006084  
2734.000000	0.006177  
2733.000000	0.006250  
2732.000000	0.006247  
2731.000000	0.006168  
2730.000000	0.006069  
2729.000000	0.006019  
2728.000000	0.006050  
2727.000000	0.006131  
2726.000000	0.006176  
2725.000000	0.006116  
2724.000000	0.005968  
2723.000000	0.005822  
2722.000000	0.005749  
2721.000000	0.005747  
2720.000000	0.005783  
2719.000000	0.005839  
2718.000000	0.005897  
2717.000000	0.005911  
2716.000000	0.005846  
2715.000000	0.005717  
2714.000000	0.005557  
2713.000000	0.005375  
2712.000000	0.005169  
2711.000000	0.004981  
2710.000000	0.004874  
2709.000000	0.004866  
2708.000000	0.004913  
2707.000000	0.004968  
2706.000000	0.005013  
2705.000000	0.005030  
2704.000000	0.004986  
2703.000000	0.004872  
2702.000000	0.004727  
2701.000000	0.004593  
2700.000000	0.004481  
2699.000000	0.004390  
2698.000000	0.004344  
2697.000000	0.004382  
2696.000000	0.004506  
2695.000000	0.004668  
2694.000000	0.004803  
2693.000000	0.004867  
2692.000000	0.004851  
2691.000000	0.004792  
2690.000000	0.004762  
2689.000000	0.004824  
2688.000000	0.004985  
2687.000000	0.005178  
2686.000000	0.005311  
2685.000000	0.005341  
2684.000000	0.005303  
2683.000000	0.005268  
2682.000000	0.005271  
2681.000000	0.005287  
2680.000000	0.005276  
2679.000000	0.005238  
2678.000000	0.005213  
2677.000000	0.005231  
2676.000000	0.005283  
2675.000000	0.005346  
2674.000000	0.005400  
2673.000000	0.005422  
2672.000000	0.005390  
2671.000000	0.005304  
2670.000000	0.005199  
2669.000000	0.005122  
2668.000000	0.005114  
2667.000000	0.005183  
2666.000000	0.005307  
2665.000000	0.005432  
2664.000000	0.005487  
2663.000000	0.005418  
2662.000000	0.005223  
2661.000000	0.004956  
2660.000000	0.004709  
2659.000000	0.004560  
2658.000000	0.004521  
2657.000000	0.004533  
2656.000000	0.004538  
2655.000000	0.004535  
2654.000000	0.004549  
2653.000000	0.004560  
2652.000000	0.004523  
2651.000000	0.004448  
2650.000000	0.004410  
2649.000000	0.004454  
2648.000000	0.004534  
2647.000000	0.004573  
2646.000000	0.004553  
2645.000000	0.004507  
2644.000000	0.004466  
2643.000000	0.004449  
2642.000000	0.004483  
2641.000000	0.004584  
2640.000000	0.004703  
2639.000000	0.004743  
2638.000000	0.004641  
2637.000000	0.004426  
2636.000000	0.004212  
2635.000000	0.004120  
2634.000000	0.004202  
2633.000000	0.004388  
2632.000000	0.004536  
2631.000000	0.004538  
2630.000000	0.004398  
2629.000000	0.004197  
2628.000000	0.004029  
2627.000000	0.003973  
2626.000000	0.004068  
2625.000000	0.004263  
2624.000000	0.004421  
2623.000000	0.004428  
2622.000000	0.004298  
2621.000000	0.004130  
2620.000000	0.003976  
2619.000000	0.003821  
2618.000000	0.003680  
2617.000000	0.003625  
2616.000000	0.003689  
2615.000000	0.003817  
2614.000000	0.003923  
2613.000000	0.003977  
2612.000000	0.003990  
2611.000000	0.003979  
2610.000000	0.003976  
2609.000000	0.004025  
2608.000000	0.004135  
2607.000000	0.004249  
2606.000000	0.004288  
2605.000000	0.004230  
2604.000000	0.004104  
2603.000000	0.003952  
2602.000000	0.003827  
2601.000000	0.003786  
2600.000000	0.003848  
2599.000000	0.003940  
2598.000000	0.003956  
2597.000000	0.003864  
2596.000000	0.003743  
2595.000000	0.003686  
2594.000000	0.003696  
2593.000000	0.003684  
2592.000000	0.003570  
2591.000000	0.003369  
2590.000000	0.003184  
2589.000000	0.003105  
2588.000000	0.003138  
2587.000000	0.003221  
2586.000000	0.003298  
2585.000000	0.003344  
2584.000000	0.003337  
2583.000000	0.003245  
2582.000000	0.003078  
2581.000000	0.002910  
2580.000000	0.002833  
2579.000000	0.002891  
2578.000000	0.003057  
2577.000000	0.003267  
2576.000000	0.003432  
2575.000000	0.003460  
2574.000000	0.003319  
2573.000000	0.003089  
2572.000000	0.002917  
2571.000000	0.002893  
2570.000000	0.002969  
2569.000000	0.003024  
2568.000000	0.002983  
2567.000000	0.002865  
2566.000000	0.002743  
2565.000000	0.002674  
2564.000000	0.002671  
2563.000000	0.002708  
2562.000000	0.002747  
2561.000000	0.002767  
2560.000000	0.002775  
2559.000000	0.002793  
2558.000000	0.002830  
2557.000000	0.002875  
2556.000000	0.002914  
2555.000000	0.002928  
2554.000000	0.002908  
2553.000000	0.002876  
2552.000000	0.002903  
2551.000000	0.003042  
2550.000000	0.003259  
2549.000000	0.003432  
2548.000000	0.003464  
2547.000000	0.003346  
2546.000000	0.003120  
2545.000000	0.002828  
2544.000000	0.002538  
2543.000000	0.002366  
2542.000000	0.002394  
2541.000000	0.002557  
2540.000000	0.002699  
2539.000000	0.002749  
2538.000000	0.002774  
2537.000000	0.002838  
2536.000000	0.002883  
2535.000000	0.002808  
2534.000000	0.002617  
2533.000000	0.002425  
2532.000000	0.002331  
2531.000000	0.002324  
2530.000000	0.002318  
2529.000000	0.002238  
2528.000000	0.002096  
2527.000000	0.001997  
2526.000000	0.002061  
2525.000000	0.002300  
2524.000000	0.002600  
2523.000000	0.002838  
2522.000000	0.002976  
2521.000000	0.003022  
2520.000000	0.002956  
2519.000000	0.002781  
2518.000000	0.002598  
2517.000000	0.002549  
2516.000000	0.002672  
2515.000000	0.002866  
2514.000000	0.003004  
2513.000000	0.003033  
2512.000000	0.002959  
2511.000000	0.002812  
2510.000000	0.002639  
2509.000000	0.002497  
2508.000000	0.002422  
2507.000000	0.002420  
2506.000000	0.002489  
2505.000000	0.002606  
2504.000000	0.002695  
2503.000000	0.002673  
2502.000000	0.002559  
2501.000000	0.002480  
2500.000000	0.002535  
2499.000000	0.002657  
2498.000000	0.002659  
2497.000000	0.002402  
2496.000000	0.001928  
2495.000000	0.001431  
2494.000000	0.001127  
2493.000000	0.001127  
2492.000000	0.001389  
2491.000000	0.001784  
2490.000000	0.002187  
2489.000000	0.002507  
2488.000000	0.002672  
2487.000000	0.002639  
2486.000000	0.002429  
2485.000000	0.002131  
2484.000000	0.001854  
2483.000000	0.001702  
2482.000000	0.001765  
2481.000000	0.002071  
2480.000000	0.002518  
2479.000000	0.002896  
2478.000000	0.003029  
2477.000000	0.002904  
2476.000000	0.002654  
2475.000000	0.002428  
2474.000000	0.002291  
2473.000000	0.002231  
2472.000000	0.002212  
2471.000000	0.002206  
2470.000000	0.002181  
2469.000000	0.002101  
2468.000000	0.001985  
2467.000000	0.001941  
2466.000000	0.002080  
2465.000000	0.002362  
2464.000000	0.002589  
2463.000000	0.002592  
2462.000000	0.002399  
2461.000000	0.002173  
2460.000000	0.002037  
2459.000000	0.002029  
2458.000000	0.002161  
2457.000000	0.002409  
2456.000000	0.002639  
2455.000000	0.002675  
2454.000000	0.002483  
2453.000000	0.002211  
2452.000000	0.001992  
2451.000000	0.001806  
2450.000000	0.001603  
2449.000000	0.001460  
2448.000000	0.001520  
2447.000000	0.001790  
2446.000000	0.002111  
2445.000000	0.002317  
2444.000000	0.002368  
2443.000000	0.002326  
2442.000000	0.002272  
2441.000000	0.002238  
2440.000000	0.002200  
2439.000000	0.002118  
2438.000000	0.002013  
2437.000000	0.001979  
2436.000000	0.002070  
2435.000000	0.002194  
2434.000000	0.002188  
2433.000000	0.002008  
2432.000000	0.001796  
2431.000000	0.001720  
2430.000000	0.001807  
2429.000000	0.001955  
2428.000000	0.002072  
2427.000000	0.002162  
2426.000000	0.002264  
2425.000000	0.002361  
2424.000000	0.002381  
2423.000000	0.002284  
2422.000000	0.002122  
2421.000000	0.001997  
2420.000000	0.001959  
2419.000000	0.001988  
2418.000000	0.002044  
2417.000000	0.002113  
2416.000000	0.002191  
2415.000000	0.002267  
2414.000000	0.002337  
2413.000000	0.002409  
2412.000000	0.002472  
2411.000000	0.002492  
2410.000000	0.002467  
2409.000000	0.002456  
2408.000000	0.002505  
2407.000000	0.002566  
2406.000000	0.002527  
2405.000000	0.002343  
2404.000000	0.002095  
2403.000000	0.001905  
2402.000000	0.001820  
2401.000000	0.001797  
2400.000000	0.001795  
2399.000000	0.001833  
2398.000000	0.001962  
2397.000000	0.002174  
2396.000000	0.002386  
2395.000000	0.002507  
2394.000000	0.002534  
2393.000000	0.002556  
2392.000000	0.002658  
2391.000000	0.002848  
2390.000000	0.003066  
2389.000000	0.003270  
2388.000000	0.003509  
2387.000000	0.003912  
2386.000000	0.004582  
2385.000000	0.005465  
2384.000000	0.006308  
2383.000000	0.006781  
2382.000000	0.006681  
2381.000000	0.006036  
2380.000000	0.005062  
2379.000000	0.004028  
2378.000000	0.003155  
2377.000000	0.002577  
2376.000000	0.002382  
2375.000000	0.002639  
2374.000000	0.003353  
2373.000000	0.004396  
2372.000000	0.005535  
2371.000000	0.006580  
2370.000000	0.007462  
2369.000000	0.008140  
2368.000000	0.008555  
2367.000000	0.008722  
2366.000000	0.008751  
2365.000000	0.008703  
2364.000000	0.008556  
2363.000000	0.008373  
2362.000000	0.008272  
2361.000000	0.008381  
2360.000000	0.008929  
2359.000000	0.009817  
2358.000000	0.010396  
2357.000000	0.009960  
2356.000000	0.008620  
2355.000000	0.007230  
2354.000000	0.006311  
2353.000000	0.006002  
2352.000000	0.006337  
2351.000000	0.007165  
2350.000000	0.008015  
2349.000000	0.008232  
2348.000000	0.007689  
2347.000000	0.006905  
2346.000000	0.006972  
2345.000000	0.008391  
2344.000000	0.010222  
2343.000000	0.011101  
2342.000000	0.010321  
2341.000000	0.008580  
2340.000000	0.007146  
2339.000000	0.006557  
2338.000000	0.006309  
2337.000000	0.005840  
2336.000000	0.005236  
2335.000000	0.004863  
2334.000000	0.004693  
2333.000000	0.004643  
2332.000000	0.004910  
2331.000000	0.005769  
2330.000000	0.007141  
2329.000000	0.008491  
2328.000000	0.009530  
2327.000000	0.010083  
2326.000000	0.010106  
2325.000000	0.009629  
2324.000000	0.008792  
2323.000000	0.007897  
2322.000000	0.007095  
2321.000000	0.006633  
2320.000000	0.006696  
2319.000000	0.007290  
2318.000000	0.008015  
2317.000000	0.008340  
2316.000000	0.008038  
2315.000000	0.007383  
2314.000000	0.006960  
2313.000000	0.007162  
2312.000000	0.007894  
2311.000000	0.008667  
2310.000000	0.009091  
2309.000000	0.009147  
2308.000000	0.009035  
2307.000000	0.008849  
2306.000000	0.008539  
2305.000000	0.008128  
2304.000000	0.007769  
2303.000000	0.007596  
2302.000000	0.007558  
2301.000000	0.007485  
2300.000000	0.007286  
2299.000000	0.007035  
2298.000000	0.006900  
2297.000000	0.006942  
2296.000000	0.007032  
2295.000000	0.006941  
2294.000000	0.006588  
2293.000000	0.006107  
2292.000000	0.005681  
2291.000000	0.005345  
2290.000000	0.005026  
2289.000000	0.004695  
2288.000000	0.004354  
2287.000000	0.003941  
2286.000000	0.003385  
2285.000000	0.002807  
2284.000000	0.002482  
2283.000000	0.002535  
2282.000000	0.002768  
2281.000000	0.002892  
2280.000000	0.002846  
2279.000000	0.002796  
2278.000000	0.002848  
2277.000000	0.002921  
2276.000000	0.002933  
2275.000000	0.002998  
2274.000000	0.003314  
2273.000000	0.003882  
2272.000000	0.004443  
2271.000000	0.004713  
2270.000000	0.004642  
2269.000000	0.004380  
2268.000000	0.004047  
2267.000000	0.003628  
2266.000000	0.003136  
2265.000000	0.002744  
2264.000000	0.002635  
2263.000000	0.002779  
2262.000000	0.002981  
2261.000000	0.003126  
2260.000000	0.003233  
2259.000000	0.003331  
2258.000000	0.003399  
2257.000000	0.003466  
2256.000000	0.003599  
2255.000000	0.003742  
2254.000000	0.003710  
2253.000000	0.003426  
2252.000000	0.003059  
2251.000000	0.002827  
2250.000000	0.002745  
2249.000000	0.002657  
2248.000000	0.002421  
2247.000000	0.002009  
2246.000000	0.001493  
2245.000000	0.001041  
2244.000000	0.000860  
2243.000000	0.001038  
2242.000000	0.001461  
2241.000000	0.001950  
2240.000000	0.002400  
2239.000000	0.002749  
2238.000000	0.002878  
2237.000000	0.002694  
2236.000000	0.002286  
2235.000000	0.001897  
2234.000000	0.001717  
2233.000000	0.001767  
2232.000000	0.001923  
2231.000000	0.002009  
2230.000000	0.001898  
2229.000000	0.001616  
2228.000000	0.001344  
2227.000000	0.001231  
2226.000000	0.001239  
2225.000000	0.001215  
2224.000000	0.001075  
2223.000000	0.000849  
2222.000000	0.000631  
2221.000000	0.000563  
2220.000000	0.000796  
2219.000000	0.001305  
2218.000000	0.001811  
2217.000000	0.002048  
2216.000000	0.002095  
2215.000000	0.002260  
2214.000000	0.002617  
2213.000000	0.002875  
2212.000000	0.002795  
2211.000000	0.002529  
2210.000000	0.002388  
2209.000000	0.002391  
2208.000000	0.002285  
2207.000000	0.001944  
2206.000000	0.001566  
2205.000000	0.001424  
2204.000000	0.001580  
2203.000000	0.001924  
2202.000000	0.002373  
2201.000000	0.002903  
2200.000000	0.003421  
2199.000000	0.003763  
2198.000000	0.003860  
2197.000000	0.003809  
2196.000000	0.003717  
2195.000000	0.003523  
2194.000000	0.003091  
2193.000000	0.002471  
2192.000000	0.001922  
2191.000000	0.001635  
2190.000000	0.001526  
2189.000000	0.001399  
2188.000000	0.001221  
2187.000000	0.001133  
2186.000000	0.001223  
2185.000000	0.001405  
2184.000000	0.001543  
2183.000000	0.001606  
2182.000000	0.001691  
2181.000000	0.001928  
2180.000000	0.002355  
2179.000000	0.002845  
2178.000000	0.003176  
2177.000000	0.003224  
2176.000000	0.003078  
2175.000000	0.002875  
2174.000000	0.002588  
2173.000000	0.002121  
2172.000000	0.001573  
2171.000000	0.001252  
2170.000000	0.001337  
2169.000000	0.001670  
2168.000000	0.001957  
2167.000000	0.002123  
2166.000000	0.002329  
2165.000000	0.002664  
2164.000000	0.002960  
2163.000000	0.002953  
2162.000000	0.002602  
2161.000000	0.002163  
2160.000000	0.001963  
2159.000000	0.002079  
2158.000000	0.002314  
2157.000000	0.002471  
2156.000000	0.002528  
2155.000000	0.002518  
2154.000000	0.002414  
2153.000000	0.002204  
2152.000000	0.001998  
2151.000000	0.001946  
2150.000000	0.002066  
2149.000000	0.002230  
2148.000000	0.002327  
2147.000000	0.002371  
2146.000000	0.002456  
2145.000000	0.002663  
2144.000000	0.002983  
2143.000000	0.003268  
2142.000000	0.003273  
2141.000000	0.002851  
2140.000000	0.002145  
2139.000000	0.001521  
2138.000000	0.001277  
2137.000000	0.001430  
2136.000000	0.001751  
2135.000000	0.001960  
2134.000000	0.001909  
2133.000000	0.001673  
2132.000000	0.001507  
2131.000000	0.001628  
2130.000000	0.002006  
2129.000000	0.002402  
2128.000000	0.002607  
2127.000000	0.002587  
2126.000000	0.002391  
2125.000000	0.002050  
2124.000000	0.001634  
2123.000000	0.001343  
2122.000000	0.001389  
2121.000000	0.001769  
2120.000000	0.002229  
2119.000000	0.002481  
2118.000000	0.002440  
2117.000000	0.002275  
2116.000000	0.002259  
2115.000000	0.002525  
2114.000000	0.002910  
2113.000000	0.003059  
2112.000000	0.002782  
2111.000000	0.002303  
2110.000000	0.002054  
2109.000000	0.002227  
2108.000000	0.002595  
2107.000000	0.002798  
2106.000000	0.002707  
2105.000000	0.002440  
2104.000000	0.002158  
2103.000000	0.001948  
2102.000000	0.001844  
2101.000000	0.001822  
2100.000000	0.001769  
2099.000000	0.001564  
2098.000000	0.001222  
2097.000000	0.000892  
2096.000000	0.000690  
2095.000000	0.000601  
2094.000000	0.000566  
2093.000000	0.000610  
2092.000000	0.000799  
2091.000000	0.001118  
2090.000000	0.001438  
2089.000000	0.001644  
2088.000000	0.001759  
2087.000000	0.001918  
2086.000000	0.002197  
2085.000000	0.002474  
2084.000000	0.002505  
2083.000000	0.002165  
2082.000000	0.001628  
2081.000000	0.001270  
2080.000000	0.001359  
2079.000000	0.001813  
2078.000000	0.002259  
2077.000000	0.002356  
2076.000000	0.002092  
2075.000000	0.001796  
2074.000000	0.001816  
2073.000000	0.002169  
2072.000000	0.002540  
2071.000000	0.002628  
2070.000000	0.002457  
2069.000000	0.002258  
2068.000000	0.002157  
2067.000000	0.002085  
2066.000000	0.001992  
2065.000000	0.001968  
2064.000000	0.002091  
2063.000000	0.002292  
2062.000000	0.002439  
2061.000000	0.002478  
2060.000000	0.002405  
2059.000000	0.002213  
2058.000000	0.001952  
2057.000000	0.001757  
2056.000000	0.001678  
2055.000000	0.001555  
2054.000000	0.001238  
2053.000000	0.000871  
2052.000000	0.000770  
2051.000000	0.001032  
2050.000000	0.001441  
2049.000000	0.001796  
2048.000000	0.002135  
2047.000000	0.002483  
2046.000000	0.002612  
2045.000000	0.002312  
2044.000000	0.001775  
2043.000000	0.001438  
2042.000000	0.001464  
2041.000000	0.001619  
2040.000000	0.001689  
2039.000000	0.001760  
2038.000000	0.001975  
2037.000000	0.002220  
2036.000000	0.002264  
2035.000000	0.002111  
2034.000000	0.002015  
2033.000000	0.002148  
2032.000000	0.002407  
2031.000000	0.002563  
2030.000000	0.002475  
2029.000000	0.002134  
2028.000000	0.001624  
2027.000000	0.001108  
2026.000000	0.000747  
2025.000000	0.000575  
2024.000000	0.000495  
2023.000000	0.000482  
2022.000000	0.000692  
2021.000000	0.001242  
2020.000000	0.001945  
2019.000000	0.002403  
2018.000000	0.002390  
2017.000000	0.002037  
2016.000000	0.001630  
2015.000000	0.001339  
2014.000000	0.001240  
2013.000000	0.001402  
2012.000000	0.001746  
2011.000000	0.001909  
2010.000000	0.001504  
2009.000000	0.000586  
2008.000000	-0.000284 
2007.000000	-0.000557 
2006.000000	-0.000179 
2005.000000	0.000493  
2004.000000	0.001114  
2003.000000	0.001612  
2002.000000	0.002108  
2001.000000	0.002676  
2000.000000	0.003171  
1999.000000	0.003273  
1998.000000	0.002797  
1997.000000	0.001974  
1996.000000	0.001306  
1995.000000	0.001094  
1994.000000	0.001222  
1993.000000	0.001385  
1992.000000	0.001442  
1991.000000	0.001452  
1990.000000	0.001487  
1989.000000	0.001591  
1988.000000	0.001835  
1987.000000	0.002227  
1986.000000	0.002602  
1985.000000	0.002785  
1984.000000	0.002830  
1983.000000	0.002922  
1982.000000	0.003055  
1981.000000	0.003004  
1980.000000	0.002685  
1979.000000	0.002314  
1978.000000	0.002079  
1977.000000	0.001835  
1976.000000	0.001379  
1975.000000	0.000854  
1974.000000	0.000599  
1973.000000	0.000685  
1972.000000	0.000881  
1971.000000	0.001037  
1970.000000	0.001240  
1969.000000	0.001532  
1968.000000	0.001730  
1967.000000	0.001669  
1966.000000	0.001472  
1965.000000	0.001388  
1964.000000	0.001479  
1963.000000	0.001607  
1962.000000	0.001648  
1961.000000	0.001600  
1960.000000	0.001541  
1959.000000	0.001579  
1958.000000	0.001773  
1957.000000	0.002025  
1956.000000	0.002092  
1955.000000	0.001813  
1954.000000	0.001311  
1953.000000	0.000900  
1952.000000	0.000822  
1951.000000	0.001103  
1950.000000	0.001609  
1949.000000	0.002127  
1948.000000	0.002441  
1947.000000	0.002478  
1946.000000	0.002371  
1945.000000	0.002306  
1944.000000	0.002290  
1943.000000	0.002164  
1942.000000	0.001885  
1941.000000	0.001629  
1940.000000	0.001532  
1939.000000	0.001534  
1938.000000	0.001554  
1937.000000	0.001657  
1936.000000	0.001949  
1935.000000	0.002378  
1934.000000	0.002762  
1933.000000	0.002989  
1932.000000	0.003097  
1931.000000	0.003142  
1930.000000	0.003089  
1929.000000	0.002887  
1928.000000	0.002578  
1927.000000	0.002257  
1926.000000	0.001975  
1925.000000	0.001745  
1924.000000	0.001596  
1923.000000	0.001585  
1922.000000	0.001745  
1921.000000	0.002061  
1920.000000	0.002472  
1919.000000	0.002854  
1918.000000	0.003060  
1917.000000	0.003064  
1916.000000	0.002968  
1915.000000	0.002806  
1914.000000	0.002503  
1913.000000	0.002064  
1912.000000	0.001682  
1911.000000	0.001570  
1910.000000	0.001710  
1909.000000	0.001893  
1908.000000	0.001981  
1907.000000	0.002005  
1906.000000	0.002007  
1905.000000	0.001958  
1904.000000	0.001853  
1903.000000	0.001779  
1902.000000	0.001833  
1901.000000	0.002011  
1900.000000	0.002211  
1899.000000	0.002321  
1898.000000	0.002295  
1897.000000	0.002176  
1896.000000	0.002065  
1895.000000	0.002046  
1894.000000	0.002111  
1893.000000	0.002204  
1892.000000	0.002306  
1891.000000	0.002440  
1890.000000	0.002590  
1889.000000	0.002690  
1888.000000	0.002701  
1887.000000	0.002636  
1886.000000	0.002528  
1885.000000	0.002423  
1884.000000	0.002353  
1883.000000	0.002300  
1882.000000	0.002219  
1881.000000	0.002117  
1880.000000	0.002058  
1879.000000	0.002066  
1878.000000	0.002073  
1877.000000	0.002032  
1876.000000	0.002011  
1875.000000	0.002122  
1874.000000	0.002355  
1873.000000	0.002577  
1872.000000	0.002690  
1871.000000	0.002708  
1870.000000	0.002659  
1869.000000	0.002519  
1868.000000	0.002337  
1867.000000	0.002241  
1866.000000	0.002262  
1865.000000	0.002326  
1864.000000	0.002385  
1863.000000	0.002443  
1862.000000	0.002502  
1861.000000	0.002511  
1860.000000	0.002435  
1859.000000	0.002327  
1858.000000	0.002280  
1857.000000	0.002327  
1856.000000	0.002406  
1855.000000	0.002410  
1854.000000	0.002296  
1853.000000	0.002144  
1852.000000	0.002087  
1851.000000	0.002163  
1850.000000	0.002256  
1849.000000	0.002211  
1848.000000	0.002017  
1847.000000	0.001838  
1846.000000	0.001853  
1845.000000	0.002078  
1844.000000	0.002346  
1843.000000	0.002481  
1842.000000	0.002450  
1841.000000	0.002335  
1840.000000	0.002230  
1839.000000	0.002199  
1838.000000	0.002246  
1837.000000	0.002320  
1836.000000	0.002362  
1835.000000	0.002359  
1834.000000	0.002335  
1833.000000	0.002284  
1832.000000	0.002167  
1831.000000	0.002008  
1830.000000	0.001930  
1829.000000	0.002022  
1828.000000	0.002197  
1827.000000	0.002312  
1826.000000	0.002331  
1825.000000	0.002313  
1824.000000	0.002341  
1823.000000	0.002458  
1822.000000	0.002621  
1821.000000	0.002708  
1820.000000	0.002602  
1819.000000	0.002330  
1818.000000	0.002079  
1817.000000	0.002024  
1816.000000	0.002165  
1815.000000	0.002360  
1814.000000	0.002470  
1813.000000	0.002441  
1812.000000	0.002310  
1811.000000	0.002214  
1810.000000	0.002268  
1809.000000	0.002451  
1808.000000	0.002658  
1807.000000	0.002805  
1806.000000	0.002854  
1805.000000	0.002816  
1804.000000	0.002757  
1803.000000	0.002768  
1802.000000	0.002885  
1801.000000	0.003050  
1800.000000	0.003202  
1799.000000	0.003339  
1798.000000	0.003445  
1797.000000	0.003474  
1796.000000	0.003428  
1795.000000	0.003350  
1794.000000	0.003278  
1793.000000	0.003204  
1792.000000	0.003109  
1791.000000	0.003036  
1790.000000	0.003020  
1789.000000	0.003044  
1788.000000	0.003095  
1787.000000	0.003176  
1786.000000	0.003268  
1785.000000	0.003325  
1784.000000	0.003316  
1783.000000	0.003256  
1782.000000	0.003213  
1781.000000	0.003273  
1780.000000	0.003464  
1779.000000	0.003710  
1778.000000	0.003898  
1777.000000	0.003992  
1776.000000	0.004035  
1775.000000	0.004079  
1774.000000	0.004147  
1773.000000	0.004214  
1772.000000	0.004204  
1771.000000	0.004114  
1770.000000	0.004046  
1769.000000	0.004095  
1768.000000	0.004263  
1767.000000	0.004464  
1766.000000	0.004634  
1765.000000	0.004796  
1764.000000	0.005010  
1763.000000	0.005302  
1762.000000	0.005669  
1761.000000	0.006091  
1760.000000	0.006516  
1759.000000	0.006900  
1758.000000	0.007307  
1757.000000	0.007877  
1756.000000	0.008638  
1755.000000	0.009485  
1754.000000	0.010446  
1753.000000	0.011803  
1752.000000	0.013861  
1751.000000	0.016622  
1750.000000	0.019963  
1749.000000	0.024014  
1748.000000	0.028862  
1747.000000	0.034249  
1746.000000	0.039921  
1745.000000	0.045771  
1744.000000	0.051383  
1743.000000	0.055914  
1742.000000	0.058722  
1741.000000	0.059562  
1740.000000	0.058271  
1739.000000	0.055195  
1738.000000	0.051405  
1737.000000	0.047534  
1736.000000	0.043225  
1735.000000	0.037704  
1734.000000	0.031594  
1733.000000	0.026784  
1732.000000	0.023596  
1731.000000	0.021147  
1730.000000	0.019051  
1729.000000	0.017359  
1728.000000	0.016081  
1727.000000	0.015059  
1726.000000	0.014158  
1725.000000	0.013326  
1724.000000	0.012533  
1723.000000	0.011790  
1722.000000	0.011142  
1721.000000	0.010603  
1720.000000	0.010137  
1719.000000	0.009733  
1718.000000	0.009380  
1717.000000	0.008942  
1716.000000	0.008397  
1715.000000	0.007902  
1714.000000	0.007527  
1713.000000	0.007221  
1712.000000	0.006904  
1711.000000	0.006554  
1710.000000	0.006227  
1709.000000	0.005959  
1708.000000	0.005735  
1707.000000	0.005565  
1706.000000	0.005481  
1705.000000	0.005463  
1704.000000	0.005502  
1703.000000	0.005626  
1702.000000	0.005847  
1701.000000	0.005978  
1700.000000	0.005865  
1699.000000	0.005712  
1698.000000	0.005649  
1697.000000	0.005553  
1696.000000	0.005368  
1695.000000	0.005255  
1694.000000	0.005222  
1693.000000	0.005133  
1692.000000	0.004996  
1691.000000	0.004892  
1690.000000	0.004881  
1689.000000	0.004915  
1688.000000	0.004926  
1687.000000	0.004898  
1686.000000	0.004878  
1685.000000	0.004863  
1684.000000	0.004823  
1683.000000	0.004844  
1682.000000	0.004914  
1681.000000	0.004943  
1680.000000	0.004892  
1679.000000	0.004786  
1678.000000	0.004647  
1677.000000	0.004509  
1676.000000	0.004410  
1675.000000	0.004434  
1674.000000	0.004612  
1673.000000	0.004848  
1672.000000	0.005055  
1671.000000	0.005209  
1670.000000	0.005299  
1669.000000	0.005358  
1668.000000	0.005406  
1667.000000	0.005424  
1666.000000	0.005445  
1665.000000	0.005528  
1664.000000	0.005678  
1663.000000	0.005847  
1662.000000	0.006002  
1661.000000	0.006176  
1660.000000	0.006377  
1659.000000	0.006564  
1658.000000	0.006634  
1657.000000	0.006586  
1656.000000	0.006465  
1655.000000	0.006404  
1654.000000	0.006458  
1653.000000	0.006703  
1652.000000	0.007113  
1651.000000	0.007299  
1650.000000	0.007303  
1649.000000	0.007363  
1648.000000	0.007521  
1647.000000	0.007557  
1646.000000	0.007413  
1645.000000	0.007249  
1644.000000	0.007109  
1643.000000	0.006992  
1642.000000	0.006953  
1641.000000	0.006959  
1640.000000	0.006949  
1639.000000	0.006902  
1638.000000	0.006872  
1637.000000	0.006899  
1636.000000	0.006923  
1635.000000	0.006905  
1634.000000	0.006882  
1633.000000	0.006849  
1632.000000	0.006802  
1631.000000	0.006746  
1630.000000	0.006665  
1629.000000	0.006592  
1628.000000	0.006559  
1627.000000	0.006564  
1626.000000	0.006587  
1625.000000	0.006630  
1624.000000	0.006666  
1623.000000	0.006629  
1622.000000	0.006517  
1621.000000	0.006416  
1620.000000	0.006362  
1619.000000	0.006337  
1618.000000	0.006296  
1617.000000	0.006242  
1616.000000	0.006236  
1615.000000	0.006241  
1614.000000	0.006202  
1613.000000	0.006161  
1612.000000	0.006166  
1611.000000	0.006202  
1610.000000	0.006235  
1609.000000	0.006260  
1608.000000	0.006260  
1607.000000	0.006184  
1606.000000	0.006040  
1605.000000	0.005914  
1604.000000	0.005856  
1603.000000	0.005826  
1602.000000	0.005771  
1601.000000	0.005695  
1600.000000	0.005601  
1599.000000	0.005455  
1598.000000	0.005274  
1597.000000	0.005157  
1596.000000	0.005175  
1595.000000	0.005292  
1594.000000	0.005411  
1593.000000	0.005507  
1592.000000	0.005613  
1591.000000	0.005730  
1590.000000	0.005825  
1589.000000	0.005895  
1588.000000	0.005958  
1587.000000	0.006004  
1586.000000	0.006022  
1585.000000	0.006044  
1584.000000	0.006100  
1583.000000	0.006173  
1582.000000	0.006233  
1581.000000	0.006293  
1580.000000	0.006393  
1579.000000	0.006548  
1578.000000	0.006732  
1577.000000	0.006872  
1576.000000	0.006912  
1575.000000	0.006878  
1574.000000	0.006866  
1573.000000	0.006953  
1572.000000	0.007120  
1571.000000	0.007243  
1570.000000	0.007202  
1569.000000	0.007099  
1568.000000	0.007067  
1567.000000	0.007048  
1566.000000	0.006941  
1565.000000	0.006777  
1564.000000	0.006569  
1563.000000	0.006333  
1562.000000	0.006060  
1561.000000	0.005848  
1560.000000	0.005883  
1559.000000	0.005946  
1558.000000	0.005858  
1557.000000	0.005939  
1556.000000	0.006159  
1555.000000	0.006293  
1554.000000	0.006392  
1553.000000	0.006352  
1552.000000	0.006197  
1551.000000	0.005945  
1550.000000	0.005728  
1549.000000	0.005642  
1548.000000	0.005673  
1547.000000	0.005727  
1546.000000	0.005772  
1545.000000	0.005786  
1544.000000	0.005741  
1543.000000	0.005689  
1542.000000	0.005773  
1541.000000	0.005926  
1540.000000	0.005902  
1539.000000	0.005815  
1538.000000	0.005850  
1537.000000	0.005920  
1536.000000	0.005952  
1535.000000	0.005932  
1534.000000	0.005797  
1533.000000	0.005574  
1532.000000	0.005399  
1531.000000	0.005335  
1530.000000	0.005307  
1529.000000	0.005274  
1528.000000	0.005282  
1527.000000	0.005410  
1526.000000	0.005672  
1525.000000	0.005950  
1524.000000	0.006111  
1523.000000	0.006161  
1522.000000	0.006174  
1521.000000	0.006191  
1520.000000	0.006215  
1519.000000	0.006215  
1518.000000	0.006207  
1517.000000	0.006219  
1516.000000	0.006256  
1515.000000	0.006367  
1514.000000	0.006588  
1513.000000	0.006879  
1512.000000	0.007105  
1511.000000	0.007190  
1510.000000	0.007230  
1509.000000	0.007435  
1508.000000	0.007834  
1507.000000	0.008142  
1506.000000	0.008409  
1505.000000	0.008736  
1504.000000	0.008854  
1503.000000	0.008761  
1502.000000	0.008667  
1501.000000	0.008609  
1500.000000	0.008572  
1499.000000	0.008615  
1498.000000	0.008994  
1497.000000	0.009675  
1496.000000	0.010193  
1495.000000	0.010340  
1494.000000	0.010400  
1493.000000	0.010587  
1492.000000	0.010827  
1491.000000	0.010983  
1490.000000	0.011120  
1489.000000	0.011357  
1488.000000	0.011668  
1487.000000	0.012016  
1486.000000	0.012439  
1485.000000	0.012983  
1484.000000	0.013618  
1483.000000	0.014346  
1482.000000	0.015262  
1481.000000	0.016364  
1480.000000	0.017491  
1479.000000	0.018625  
1478.000000	0.020019  
1477.000000	0.021866  
1476.000000	0.024055  
1475.000000	0.026606  
1474.000000	0.030220  
1473.000000	0.035649  
1472.000000	0.042348  
1471.000000	0.049061  
1470.000000	0.055330  
1469.000000	0.061139  
1468.000000	0.066274  
1467.000000	0.070571  
1466.000000	0.074139  
1465.000000	0.077004  
1464.000000	0.078942  
1463.000000	0.080052  
1462.000000	0.080770  
1461.000000	0.081376  
1460.000000	0.081938  
1459.000000	0.082552  
1458.000000	0.083248  
1457.000000	0.083282  
1456.000000	0.081925  
1455.000000	0.079689  
1454.000000	0.077213  
1453.000000	0.074545  
1452.000000	0.071695  
1451.000000	0.068898  
1450.000000	0.066351  
1449.000000	0.063854  
1448.000000	0.061159  
1447.000000	0.058408  
1446.000000	0.055807  
1445.000000	0.053204  
1444.000000	0.050384  
1443.000000	0.047401  
1442.000000	0.044495  
1441.000000	0.041858  
1440.000000	0.039523  
1439.000000	0.037374  
1438.000000	0.035186  
1437.000000	0.032844  
1436.000000	0.030666  
1435.000000	0.028999  
1434.000000	0.027643  
1433.000000	0.026211  
1432.000000	0.024592  
1431.000000	0.022931  
1430.000000	0.021418  
1429.000000	0.020139  
1428.000000	0.019140  
1427.000000	0.018421  
1426.000000	0.017896  
1425.000000	0.017473  
1424.000000	0.017120  
1423.000000	0.016845  
1422.000000	0.016618  
1421.000000	0.016366  
1420.000000	0.016031  
1419.000000	0.015629  
1418.000000	0.015237  
1417.000000	0.014889  
1416.000000	0.014566  
1415.000000	0.014268  
1414.000000	0.013988  
1413.000000	0.013703  
1412.000000	0.013406  
1411.000000	0.013119  
1410.000000	0.012886  
1409.000000	0.012743  
1408.000000	0.012717  
1407.000000	0.012823  
1406.000000	0.013040  
1405.000000	0.013317  
1404.000000	0.013619  
1403.000000	0.013934  
1402.000000	0.014235  
1401.000000	0.014509  
1400.000000	0.014791  
1399.000000	0.015101  
1398.000000	0.015406  
1397.000000	0.015679  
1396.000000	0.015939  
1395.000000	0.016231  
1394.000000	0.016607  
1393.000000	0.017081  
1392.000000	0.017606  
1391.000000	0.018168  
1390.000000	0.018841  
1389.000000	0.019800  
1388.000000	0.021248  
1387.000000	0.023181  
1386.000000	0.025342  
1385.000000	0.027552  
1384.000000	0.029908  
1383.000000	0.032622  
1382.000000	0.035797  
1381.000000	0.039310  
1380.000000	0.042771  
1379.000000	0.045528  
1378.000000	0.046943  
1377.000000	0.046777  
1376.000000	0.045160  
1375.000000	0.042385  
1374.000000	0.038993  
1373.000000	0.035741  
1372.000000	0.033118  
1371.000000	0.031169  
1370.000000	0.029807  
1369.000000	0.029011  
1368.000000	0.028670  
1367.000000	0.028478  
1366.000000	0.028079  
1365.000000	0.027259  
1364.000000	0.026019  
1363.000000	0.024570  
1362.000000	0.023244  
1361.000000	0.022278  
1360.000000	0.021670  
1359.000000	0.021271  
1358.000000	0.020957  
1357.000000	0.020696  
1356.000000	0.020522  
1355.000000	0.020459  
1354.000000	0.020473  
1353.000000	0.020481  
1352.000000	0.020432  
1351.000000	0.020322  
1350.000000	0.020152  
1349.000000	0.019930  
1348.000000	0.019665  
1347.000000	0.019362  
1346.000000	0.019031  
1345.000000	0.018722  
1344.000000	0.018500  
1343.000000	0.018376  
1342.000000	0.018279  
1341.000000	0.018127  
1340.000000	0.017864  
1339.000000	0.017486  
1338.000000	0.017043  
1337.000000	0.016607  
1336.000000	0.016231  
1335.000000	0.015925  
1334.000000	0.015659  
1333.000000	0.015412  
1332.000000	0.015207  
1331.000000	0.015076  
1330.000000	0.015006  
1329.000000	0.014958  
1328.000000	0.014925  
1327.000000	0.014927  
1326.000000	0.014967  
1325.000000	0.015033  
1324.000000	0.015124  
1323.000000	0.015240  
1322.000000	0.015368  
1321.000000	0.015488  
1320.000000	0.015595  
1319.000000	0.015698  
1318.000000	0.015802  
1317.000000	0.015908  
1316.000000	0.016026  
1315.000000	0.016171  
1314.000000	0.016347  
1313.000000	0.016532  
1312.000000	0.016695  
1311.000000	0.016828  
1310.000000	0.016952  
1309.000000	0.017093  
1308.000000	0.017262  
1307.000000	0.017440  
1306.000000	0.017591  
1305.000000	0.017680  
1304.000000	0.017682  
1303.000000	0.017605  
1302.000000	0.017486  
1301.000000	0.017372  
1300.000000	0.017275  
1299.000000	0.017171  
1298.000000	0.017035  
1297.000000	0.016863  
1296.000000	0.016667  
1295.000000	0.016453  
1294.000000	0.016222  
1293.000000	0.015989  
1292.000000	0.015784  
1291.000000	0.015641  
1290.000000	0.015582  
1289.000000	0.015607  
1288.000000	0.015700  
1287.000000	0.015843  
1286.000000	0.016031  
1285.000000	0.016262  
1284.000000	0.016513  
1283.000000	0.016750  
1282.000000	0.016957  
1281.000000	0.017148  
1280.000000	0.017340  
1279.000000	0.017528  
1278.000000	0.017707  
1277.000000	0.017893  
1276.000000	0.018109  
1275.000000	0.018343  
1274.000000	0.018560  
1273.000000	0.018745  
1272.000000	0.018909  
1271.000000	0.019061  
1270.000000	0.019191  
1269.000000	0.019295  
1268.000000	0.019378  
1267.000000	0.019434  
1266.000000	0.019447  
1265.000000	0.019411  
1264.000000	0.019352  
1263.000000	0.019325  
1262.000000	0.019388  
1261.000000	0.019557  
1260.000000	0.019779  
1259.000000	0.019962  
1258.000000	0.020048  
1257.000000	0.020054  
1256.000000	0.020040  
1255.000000	0.020061  
1254.000000	0.020166  
1253.000000	0.020396  
1252.000000	0.020742  
1251.000000	0.021126  
1250.000000	0.021468  
1249.000000	0.021770  
1248.000000	0.022100  
1247.000000	0.022483  
1246.000000	0.022857  
1245.000000	0.023136  
1244.000000	0.023289  
1243.000000	0.023333  
1242.000000	0.023297  
1241.000000	0.023192  
1240.000000	0.023028  
1239.000000	0.022807  
1238.000000	0.022527  
1237.000000	0.022192  
1236.000000	0.021838  
1235.000000	0.021510  
1234.000000	0.021216  
1233.000000	0.020916  
1232.000000	0.020570  
1231.000000	0.020182  
1230.000000	0.019794  
1229.000000	0.019441  
1228.000000	0.019141  
1227.000000	0.018912  
1226.000000	0.018763  
1225.000000	0.018663  
1224.000000	0.018561  
1223.000000	0.018437  
1222.000000	0.018317  
1221.000000	0.018226  
1220.000000	0.018149  
1219.000000	0.018085  
1218.000000	0.018080  
1217.000000	0.018185  
1216.000000	0.018380  
1215.000000	0.018582  
1214.000000	0.018725  
1213.000000	0.018816  
1212.000000	0.018899  
1211.000000	0.019014  
1210.000000	0.019176  
1209.000000	0.019361  
1208.000000	0.019521  
1207.000000	0.019646  
1206.000000	0.019800  
1205.000000	0.020059  
1204.000000	0.020414  
1203.000000	0.020780  
1202.000000	0.021112  
1201.000000	0.021444  
1200.000000	0.021817  
1199.000000	0.022231  
1198.000000	0.022694  
1197.000000	0.023248  
1196.000000	0.023908  
1195.000000	0.024620  
1194.000000	0.025329  
1193.000000	0.026043  
1192.000000	0.026776  
1191.000000	0.027481  
1190.000000	0.028107  
1189.000000	0.028699  
1188.000000	0.029351  
1187.000000	0.030093  
1186.000000	0.030871  
1185.000000	0.031640  
1184.000000	0.032412  
1183.000000	0.033203  
1182.000000	0.034001  
1181.000000	0.034775  
1180.000000	0.035483  
1179.000000	0.036076  
1178.000000	0.036531  
1177.000000	0.036871  
1176.000000	0.037125  
1175.000000	0.037279  
1174.000000	0.037302  
1173.000000	0.037208  
1172.000000	0.037044  
1171.000000	0.036830  
1170.000000	0.036538  
1169.000000	0.036135  
1168.000000	0.035622  
1167.000000	0.035026  
1166.000000	0.034381  
1165.000000	0.033708  
1164.000000	0.032985  
1163.000000	0.032164  
1162.000000	0.031247  
1161.000000	0.030322  
1160.000000	0.029499  
1159.000000	0.028790  
1158.000000	0.028102  
1157.000000	0.027362  
1156.000000	0.026589  
1155.000000	0.025845  
1154.000000	0.025150  
1153.000000	0.024490  
1152.000000	0.023865  
1151.000000	0.023302  
1150.000000	0.022820  
1149.000000	0.022417  
1148.000000	0.022074  
1147.000000	0.021761  
1146.000000	0.021434  
1145.000000	0.021043  
1144.000000	0.020557  
1143.000000	0.019978  
1142.000000	0.019355  
1141.000000	0.018767  
1140.000000	0.018270  
1139.000000	0.017852  
1138.000000	0.017471  
1137.000000	0.017127  
1136.000000	0.016849  
1135.000000	0.016613  
1134.000000	0.016345  
1133.000000	0.016034  
1132.000000	0.015773  
1131.000000	0.015655  
1130.000000	0.015663  
1129.000000	0.015739  
1128.000000	0.015887  
1127.000000	0.016153  
1126.000000	0.016519  
1125.000000	0.016908  
1124.000000	0.017271  
1123.000000	0.017614  
1122.000000	0.017933  
1121.000000	0.018183  
1120.000000	0.018339  
1119.000000	0.018413  
1118.000000	0.018418  
1117.000000	0.018344  
1116.000000	0.018192  
1115.000000	0.017982  
1114.000000	0.017724  
1113.000000	0.017409  
1112.000000	0.017052  
1111.000000	0.016704  
1110.000000	0.016400  
1109.000000	0.016148  
1108.000000	0.015972  
1107.000000	0.015933  
1106.000000	0.016060  
1105.000000	0.016279  
1104.000000	0.016455  
1103.000000	0.016506  
1102.000000	0.016472  
1101.000000	0.016464  
1100.000000	0.016549  
1099.000000	0.016700  
1098.000000	0.016829  
1097.000000	0.016897  
1096.000000	0.016946  
1095.000000	0.017015  
1094.000000	0.017060  
1093.000000	0.017011  
1092.000000	0.016888  
1091.000000	0.016788  
1090.000000	0.016749  
1089.000000	0.016694  
1088.000000	0.016545  
1087.000000	0.016340  
1086.000000	0.016193  
1085.000000	0.016166  
1084.000000	0.016214  
1083.000000	0.016247  
1082.000000	0.016215  
1081.000000	0.016144  
1080.000000	0.016133  
1079.000000	0.016291  
1078.000000	0.016644  
1077.000000	0.017113  
1076.000000	0.017596  
1075.000000	0.018062  
1074.000000	0.018525  
1073.000000	0.018967  
1072.000000	0.019325  
1071.000000	0.019567  
1070.000000	0.019736  
1069.000000	0.019899  
1068.000000	0.020062  
1067.000000	0.020162  
1066.000000	0.020148  
1065.000000	0.020042  
1064.000000	0.019906  
1063.000000	0.019764  
1062.000000	0.019566  
1061.000000	0.019245  
1060.000000	0.018819  
1059.000000	0.018388  
1058.000000	0.018056  
1057.000000	0.017845  
1056.000000	0.017721  
1055.000000	0.017640  
1054.000000	0.017538  
1053.000000	0.017312  
1052.000000	0.016901  
1051.000000	0.016413  
1050.000000	0.016102  
1049.000000	0.016119  
1048.000000	0.016362  
1047.000000	0.016590  
1046.000000	0.016670  
1045.000000	0.016651  
1044.000000	0.016661  
1043.000000	0.016780  
1042.000000	0.016995  
1041.000000	0.017225  
1040.000000	0.017373  
1039.000000	0.017385  
1038.000000	0.017280  
1037.000000	0.017137  
1036.000000	0.017031  
1035.000000	0.017003  
1034.000000	0.017055  
1033.000000	0.017159  
1032.000000	0.017262  
1031.000000	0.017320  
1030.000000	0.017324  
1029.000000	0.017306  
1028.000000	0.017292  
1027.000000	0.017278  
1026.000000	0.017248  
1025.000000	0.017186  
1024.000000	0.017062  
1023.000000	0.016838  
1022.000000	0.016505  
1021.000000	0.016117  
1020.000000	0.015751  
1019.000000	0.015441  
1018.000000	0.015181  
1017.000000	0.014978  
1016.000000	0.014866  
1015.000000	0.014848  
1014.000000	0.014852  
1013.000000	0.014775  
1012.000000	0.014573  
1011.000000	0.014303  
1010.000000	0.014072  
1009.000000	0.013956  
1008.000000	0.013950  
1007.000000	0.013982  
1006.000000	0.013968  
1005.000000	0.013866  
1004.000000	0.013697  
1003.000000	0.013522  
1002.000000	0.013401  
1001.000000	0.013342  
1000.000000	0.013279  
999.000000	 0.013117  
998.000000	 0.012835  
997.000000	 0.012540  
996.000000	 0.012389  
995.000000	 0.012440  
994.000000	 0.012604  
993.000000	 0.012739  
992.000000	 0.012763  
991.000000	 0.012689  
990.000000	 0.012595  
989.000000	 0.012566  
988.000000	 0.012638  
987.000000	 0.012750  
986.000000	 0.012795  
985.000000	 0.012738  
984.000000	 0.012664  
983.000000	 0.012678  
982.000000	 0.012793  
981.000000	 0.012930  
980.000000	 0.013034  
979.000000	 0.013126  
978.000000	 0.013266  
977.000000	 0.013476  
976.000000	 0.013721  
975.000000	 0.013937  
974.000000	 0.014071  
973.000000	 0.014130  
972.000000	 0.014190  
971.000000	 0.014331  
970.000000	 0.014561  
969.000000	 0.014814  
968.000000	 0.015013  
967.000000	 0.015119  
966.000000	 0.015117  
965.000000	 0.014995  
964.000000	 0.014766  
963.000000	 0.014493  
962.000000	 0.014263  
961.000000	 0.014136  
960.000000	 0.014105  
959.000000	 0.014114  
958.000000	 0.014101  
957.000000	 0.014051  
956.000000	 0.014001  
955.000000	 0.013992  
954.000000	 0.014014  
953.000000	 0.014027  
952.000000	 0.014024  
951.000000	 0.014042  
950.000000	 0.014098  
949.000000	 0.014147  
948.000000	 0.014134  
947.000000	 0.014069  
946.000000	 0.014005  
945.000000	 0.013963  
944.000000	 0.013896  
943.000000	 0.013757  
942.000000	 0.013554  
941.000000	 0.013321  
940.000000	 0.013065  
939.000000	 0.012762  
938.000000	 0.012415  
937.000000	 0.012081  
936.000000	 0.011821  
935.000000	 0.011648  
934.000000	 0.011537  
933.000000	 0.011476  
932.000000	 0.011474  
931.000000	 0.011511  
930.000000	 0.011524  
929.000000	 0.011464  
928.000000	 0.011371  
927.000000	 0.011338  
926.000000	 0.011408  
925.000000	 0.011534  
924.000000	 0.011640  
923.000000	 0.011703  
922.000000	 0.011746  
921.000000	 0.011774  
920.000000	 0.011749  
919.000000	 0.011656  
918.000000	 0.011556  
917.000000	 0.011537  
916.000000	 0.011619  
915.000000	 0.011727  
914.000000	 0.011765  
913.000000	 0.011711  
912.000000	 0.011609  
911.000000	 0.011514  
910.000000	 0.011465  
909.000000	 0.011481  
908.000000	 0.011541  
907.000000	 0.011558  
906.000000	 0.011435  
905.000000	 0.011186  
904.000000	 0.010955  
903.000000	 0.010888  
902.000000	 0.010988  
901.000000	 0.011131  
900.000000	 0.011191  
899.000000	 0.011145  
898.000000	 0.011042  
897.000000	 0.010947  
896.000000	 0.010903  
895.000000	 0.010916  
894.000000	 0.010960  
893.000000	 0.010996  
892.000000	 0.011008  
891.000000	 0.011016  
890.000000	 0.011055  
889.000000	 0.011148  
888.000000	 0.011278  
887.000000	 0.011390  
886.000000	 0.011419  
885.000000	 0.011333  
884.000000	 0.011162  
883.000000	 0.010975  
882.000000	 0.010856  
881.000000	 0.010877  
880.000000	 0.011059  
879.000000	 0.011328  
878.000000	 0.011543  
877.000000	 0.011604  
876.000000	 0.011533  
875.000000	 0.011423  
874.000000	 0.011314  
873.000000	 0.011164  
872.000000	 0.010932  
871.000000	 0.010676  
870.000000	 0.010531  
869.000000	 0.010605  
868.000000	 0.010862  
867.000000	 0.011124  
866.000000	 0.011209  
865.000000	 0.011092  
864.000000	 0.010904  
863.000000	 0.010772  
862.000000	 0.010701  
861.000000	 0.010651  
860.000000	 0.010653  
859.000000	 0.010776  
858.000000	 0.010994  
857.000000	 0.011183  
856.000000	 0.011273  
855.000000	 0.011347  
854.000000	 0.011532  
853.000000	 0.011845  
852.000000	 0.012191  
851.000000	 0.012488  
850.000000	 0.012735  
849.000000	 0.012956  
848.000000	 0.013134  
847.000000	 0.013228  
846.000000	 0.013250  
845.000000	 0.013264  
844.000000	 0.013316  
843.000000	 0.013371  
842.000000	 0.013347  
841.000000	 0.013211  
840.000000	 0.013018  
839.000000	 0.012860  
838.000000	 0.012786  
837.000000	 0.012756  
836.000000	 0.012650  
835.000000	 0.012346  
834.000000	 0.011838  
833.000000	 0.011299  
832.000000	 0.010962  
831.000000	 0.010911  
830.000000	 0.010997  
829.000000	 0.011021  
828.000000	 0.010967  
827.000000	 0.010988  
826.000000	 0.011178  
825.000000	 0.011450  
824.000000	 0.011644  
823.000000	 0.011676  
822.000000	 0.011567  
821.000000	 0.011407  
820.000000	 0.011333  
819.000000	 0.011447  
818.000000	 0.011733  
817.000000	 0.012068  
816.000000	 0.012324  
815.000000	 0.012449  
814.000000	 0.012444  
813.000000	 0.012341  
812.000000	 0.012218  
811.000000	 0.012194  
810.000000	 0.012346  
809.000000	 0.012637  
808.000000	 0.012941  
807.000000	 0.013132  
806.000000	 0.013156  
805.000000	 0.013016  
804.000000	 0.012756  
803.000000	 0.012432  
802.000000	 0.012106  
801.000000	 0.011833  
800.000000	 0.011648  
799.000000	 0.011535  
798.000000	 0.011439  
797.000000	 0.011324  
796.000000	 0.011198  
795.000000	 0.011079  
794.000000	 0.010945  
793.000000	 0.010793  
792.000000	 0.010707  
791.000000	 0.010798  
790.000000	 0.011052  
789.000000	 0.011293  
788.000000	 0.011365  
787.000000	 0.011297  
786.000000	 0.011260  
785.000000	 0.011385  
784.000000	 0.011664  
783.000000	 0.012017  
782.000000	 0.012399  
781.000000	 0.012809  
780.000000	 0.013245  
779.000000	 0.013667  
778.000000	 0.014032  
777.000000	 0.014341  
776.000000	 0.014639  
775.000000	 0.014959  
774.000000	 0.015287  
773.000000	 0.015592  
772.000000	 0.015878  
771.000000	 0.016169  
770.000000	 0.016454  
769.000000	 0.016675  
768.000000	 0.016787  
767.000000	 0.016802  
766.000000	 0.016746  
765.000000	 0.016620  
764.000000	 0.016446  
763.000000	 0.016320  
762.000000	 0.016360  
761.000000	 0.016576  
760.000000	 0.016842  
759.000000	 0.017019  
758.000000	 0.017105  
757.000000	 0.017227  
756.000000	 0.017485  
755.000000	 0.017825  
754.000000	 0.018099  
753.000000	 0.018234  
752.000000	 0.018312  
751.000000	 0.018473  
750.000000	 0.018772  
749.000000	 0.019168  
748.000000	 0.019633  
747.000000	 0.020242  
746.000000	 0.021124  
745.000000	 0.022356  
744.000000	 0.023880  
743.000000	 0.025491  
742.000000	 0.026904  
741.000000	 0.027901  
740.000000	 0.028481  
739.000000	 0.028826  
738.000000	 0.029096  
737.000000	 0.029283  
736.000000	 0.029297  
735.000000	 0.029165  
734.000000	 0.029076  
733.000000	 0.029211  
732.000000	 0.029583  
731.000000	 0.030047  
730.000000	 0.030495  
729.000000	 0.031023  
728.000000	 0.031852  
727.000000	 0.033083  
726.000000	 0.034569  
725.000000	 0.036019  
724.000000	 0.037216  
723.000000	 0.038115  
722.000000	 0.038686  
721.000000	 0.038669  
720.000000	 0.037670  
719.000000	 0.035660  
718.000000	 0.033188  
717.000000	 0.030945  
716.000000	 0.029294  
715.000000	 0.028174  
714.000000	 0.027296  
713.000000	 0.026441  
712.000000	 0.025568  
711.000000	 0.024752  
710.000000	 0.024100  
709.000000	 0.023696  
708.000000	 0.023522  
707.000000	 0.023433  
706.000000	 0.023344  
705.000000	 0.023366  
704.000000	 0.023621  
703.000000	 0.024018  
702.000000	 0.024296  
701.000000	 0.024308  
700.000000	 0.024178  
699.000000	 0.024057  
698.000000	 0.023878  
697.000000	 0.023430  
696.000000	 0.022675  
695.000000	 0.021930  
694.000000	 0.021559  
693.000000	 0.021506  
692.000000	 0.021286  
691.000000	 0.020460  
690.000000	 0.019168  
689.000000	 0.018010  
688.000000	 0.017347  
687.000000	 0.016945  
686.000000	 0.016385  
685.000000	 0.015655  
684.000000	 0.015096  
683.000000	 0.014887  
682.000000	 0.014884  
681.000000	 0.014877  
680.000000	 0.014776  
679.000000	 0.014529  
678.000000	 0.014170  
677.000000	 0.013979  
676.000000	 0.014041  
675.000000	 0.014148  
674.000000	 0.014169  
673.000000	 0.014052  
672.000000	 0.013191  
671.000000	 0.010003  
670.000000	 0.003073  
669.000000	 -0.007572 
668.000000	 -0.015821 
667.000000	 -0.012136 
666.000000	 -0.001943 
665.000000	 0.005635  
664.000000	 0.009428  
663.000000	 0.011041  
662.000000	 0.011738  
661.000000	 0.011837  
660.000000	 0.011531  
659.000000	 0.011306  
658.000000	 0.011377  
657.000000	 0.011397  
656.000000	 0.010832  
655.000000	 0.009788  
654.000000	 0.008981  
653.000000	 0.008896  
652.000000	 0.009315  
651.000000	 0.009765  
650.000000	 0.010097  

