PE IR                   SPECTRUM    ASCII       PEDS        1.60        
  -1
NB4-01~2.ASC
17/04/10
13:11:47.00
17/04/10
13:11:47.00
Admin

650.000000
6









SPECTRUM ONE,CPU32 MAIN 00.02.5000 17-APRIL-2002 13:00:00
MIR TGS
MIR
OPTKBR
68128
0.200000

4.000000
STRONG
RATIO
SPECTRUM
MAGNITUDE

DOUBLE

COMBINED


0


#HDR
-1
-1
#GR
CM-1
A
0.00000011920928955078
0.0
4000.000000
-1.000000
3351
8
0.219314
-0.005017
#DATA
4000.000000	0.001206  
3999.000000	0.001140  
3998.000000	0.001163  
3997.000000	0.001281  
3996.000000	0.001434  
3995.000000	0.001545  
3994.000000	0.001458  
3993.000000	0.001408  
3992.000000	0.001346  
3991.000000	0.001314  
3990.000000	0.001329  
3989.000000	0.001369  
3988.000000	0.001384  
3987.000000	0.001342  
3986.000000	0.001266  
3985.000000	0.001222  
3984.000000	0.001241  
3983.000000	0.001267  
3982.000000	0.001211  
3981.000000	0.001056  
3980.000000	0.000892  
3979.000000	0.000829  
3978.000000	0.000898  
3977.000000	0.001034  
3976.000000	0.001161  
3975.000000	0.001250  
3974.000000	0.001310  
3973.000000	0.001345  
3972.000000	0.001346  
3971.000000	0.001317  
3970.000000	0.001284  
3969.000000	0.001254  
3968.000000	0.001197  
3967.000000	0.001074  
3966.000000	0.000906  
3965.000000	0.000785  
3964.000000	0.000807  
3963.000000	0.000986  
3962.000000	0.001247  
3961.000000	0.001496  
3960.000000	0.001680  
3959.000000	0.001778  
3958.000000	0.001779  
3957.000000	0.001685  
3956.000000	0.001530  
3955.000000	0.001361  
3954.000000	0.001215  
3953.000000	0.001099  
3952.000000	0.001015  
3951.000000	0.000969  
3950.000000	0.000975  
3949.000000	0.001031  
3948.000000	0.001120  
3947.000000	0.001212  
3946.000000	0.001279  
3945.000000	0.001292  
3944.000000	0.001240  
3943.000000	0.001145  
3942.000000	0.001055  
3941.000000	0.001013  
3940.000000	0.001039  
3939.000000	0.001122  
3938.000000	0.001234  
3937.000000	0.001331  
3936.000000	0.001370  
3935.000000	0.001323  
3934.000000	0.001220  
3933.000000	0.001136  
3932.000000	0.001137  
3931.000000	0.001211  
3930.000000	0.001283  
3929.000000	0.001309  
3928.000000	0.001321  
3927.000000	0.001372  
3926.000000	0.001464  
3925.000000	0.001546  
3924.000000	0.001589  
3923.000000	0.001619  
3922.000000	0.001667  
3921.000000	0.001730  
3920.000000	0.001778  
3919.000000	0.001784  
3918.000000	0.001733  
3917.000000	0.001648  
3916.000000	0.001586  
3915.000000	0.001600  
3914.000000	0.001672  
3913.000000	0.001719  
3912.000000	0.001661  
3911.000000	0.001492  
3910.000000	0.001285  
3909.000000	0.001131  
3908.000000	0.001078  
3907.000000	0.001113  
3906.000000	0.001169  
3905.000000	0.001172  
3904.000000	0.001094  
3903.000000	0.000975  
3902.000000	0.000884  
3901.000000	0.000865  
3900.000000	0.000935  
3899.000000	0.001077  
3898.000000	0.001230  
3897.000000	0.001311  
3896.000000	0.001281  
3895.000000	0.001187  
3894.000000	0.001124  
3893.000000	0.001131  
3892.000000	0.001110  
3891.000000	0.000962  
3890.000000	0.000747  
3889.000000	0.000634  
3888.000000	0.000723  
3887.000000	0.000936  
3886.000000	0.001096  
3885.000000	0.001124  
3884.000000	0.001104  
3883.000000	0.001133  
3882.000000	0.001200  
3881.000000	0.001227  
3880.000000	0.001172  
3879.000000	0.001108  
3878.000000	0.001144  
3877.000000	0.001303  
3876.000000	0.001483  
3875.000000	0.001545  
3874.000000	0.001479  
3873.000000	0.001427  
3872.000000	0.001509  
3871.000000	0.001648  
3870.000000	0.001675  
3869.000000	0.001584  
3868.000000	0.001521  
3867.000000	0.001552  
3866.000000	0.001591  
3865.000000	0.001551  
3864.000000	0.001468  
3863.000000	0.001427  
3862.000000	0.001439  
3861.000000	0.001433  
3860.000000	0.001332  
3859.000000	0.001124  
3858.000000	0.000874  
3857.000000	0.000704  
3856.000000	0.000702  
3855.000000	0.000771  
3854.000000	0.000718  
3853.000000	0.000589  
3852.000000	0.000611  
3851.000000	0.000844  
3850.000000	0.001170  
3849.000000	0.001483  
3848.000000	0.001766  
3847.000000	0.002040  
3846.000000	0.002309  
3845.000000	0.002552  
3844.000000	0.002717  
3843.000000	0.002753  
3842.000000	0.002644  
3841.000000	0.002426  
3840.000000	0.002152  
3839.000000	0.001876  
3838.000000	0.001629  
3837.000000	0.001443  
3836.000000	0.001372  
3835.000000	0.001464  
3834.000000	0.001696  
3833.000000	0.001943  
3832.000000	0.002058  
3831.000000	0.002016  
3830.000000	0.001927  
3829.000000	0.001891  
3828.000000	0.001876  
3827.000000	0.001776  
3826.000000	0.001600  
3825.000000	0.001542  
3824.000000	0.001807  
3823.000000	0.002353  
3822.000000	0.002800  
3821.000000	0.002762  
3820.000000	0.002286  
3819.000000	0.001714  
3818.000000	0.001290  
3817.000000	0.001044  
3816.000000	0.000928  
3815.000000	0.000958  
3814.000000	0.001140  
3813.000000	0.001367  
3812.000000	0.001487  
3811.000000	0.001455  
3810.000000	0.001345  
3809.000000	0.001243  
3808.000000	0.001144  
3807.000000	0.001030  
3806.000000	0.000996  
3805.000000	0.001176  
3804.000000	0.001568  
3803.000000	0.001937  
3802.000000	0.001968  
3801.000000	0.001655  
3800.000000	0.001350  
3799.000000	0.001324  
3798.000000	0.001555  
3797.000000	0.001847  
3796.000000	0.002036  
3795.000000	0.002088  
3794.000000	0.002058  
3793.000000	0.001987  
3792.000000	0.001899  
3791.000000	0.001805  
3790.000000	0.001710  
3789.000000	0.001619  
3788.000000	0.001562  
3787.000000	0.001568  
3786.000000	0.001615  
3785.000000	0.001622  
3784.000000	0.001541  
3783.000000	0.001426  
3782.000000	0.001363  
3781.000000	0.001385  
3780.000000	0.001445  
3779.000000	0.001486  
3778.000000	0.001503  
3777.000000	0.001514  
3776.000000	0.001508  
3775.000000	0.001461  
3774.000000	0.001396  
3773.000000	0.001380  
3772.000000	0.001439  
3771.000000	0.001535  
3770.000000	0.001633  
3769.000000	0.001743  
3768.000000	0.001860  
3767.000000	0.001892  
3766.000000	0.001737  
3765.000000	0.001434  
3764.000000	0.001176  
3763.000000	0.001130  
3762.000000	0.001283  
3761.000000	0.001484  
3760.000000	0.001616  
3759.000000	0.001677  
3758.000000	0.001692  
3757.000000	0.001636  
3756.000000	0.001483  
3755.000000	0.001292  
3754.000000	0.001234  
3753.000000	0.001488  
3752.000000	0.002016  
3751.000000	0.002416  
3750.000000	0.002285  
3749.000000	0.001715  
3748.000000	0.001138  
3747.000000	0.000918  
3746.000000	0.001095  
3745.000000	0.001346  
3744.000000	0.001409  
3743.000000	0.001391  
3742.000000	0.001447  
3741.000000	0.001565  
3740.000000	0.001723  
3739.000000	0.001953  
3738.000000	0.002218  
3737.000000	0.002358  
3736.000000	0.002282  
3735.000000	0.002139  
3734.000000	0.002115  
3733.000000	0.002165  
3732.000000	0.002124  
3731.000000	0.001970  
3730.000000	0.001828  
3729.000000	0.001793  
3728.000000	0.001820  
3727.000000	0.001805  
3726.000000	0.001724  
3725.000000	0.001649  
3724.000000	0.001625  
3723.000000	0.001613  
3722.000000	0.001553  
3721.000000	0.001434  
3720.000000	0.001294  
3719.000000	0.001161  
3718.000000	0.001039  
3717.000000	0.000924  
3716.000000	0.000825  
3715.000000	0.000746  
3714.000000	0.000674  
3713.000000	0.000632  
3712.000000	0.000679  
3711.000000	0.000826  
3710.000000	0.000990  
3709.000000	0.001106  
3708.000000	0.001213  
3707.000000	0.001384  
3706.000000	0.001632  
3705.000000	0.001864  
3704.000000	0.001942  
3703.000000	0.001803  
3702.000000	0.001541  
3701.000000	0.001336  
3700.000000	0.001296  
3699.000000	0.001388  
3698.000000	0.001488  
3697.000000	0.001502  
3696.000000	0.001452  
3695.000000	0.001428  
3694.000000	0.001460  
3693.000000	0.001488  
3692.000000	0.001430  
3691.000000	0.001276  
3690.000000	0.001094  
3689.000000	0.000950  
3688.000000	0.000883  
3687.000000	0.000918  
3686.000000	0.001050  
3685.000000	0.001241  
3684.000000	0.001462  
3683.000000	0.001673  
3682.000000	0.001789  
3681.000000	0.001682  
3680.000000	0.001325  
3679.000000	0.000913  
3678.000000	0.000755  
3677.000000	0.000972  
3676.000000	0.001324  
3675.000000	0.001481  
3674.000000	0.001435  
3673.000000	0.001394  
3672.000000	0.001470  
3671.000000	0.001604  
3670.000000	0.001681  
3669.000000	0.001681  
3668.000000	0.001663  
3667.000000	0.001673  
3666.000000	0.001693  
3665.000000	0.001653  
3664.000000	0.001479  
3663.000000	0.001147  
3662.000000	0.000715  
3661.000000	0.000299  
3660.000000	0.000019  
3659.000000	-0.000036 
3658.000000	0.000161  
3657.000000	0.000543  
3656.000000	0.000970  
3655.000000	0.001317  
3654.000000	0.001516  
3653.000000	0.001522  
3652.000000	0.001324  
3651.000000	0.001006  
3650.000000	0.000766  
3649.000000	0.000725  
3648.000000	0.000816  
3647.000000	0.000932  
3646.000000	0.001047  
3645.000000	0.001180  
3644.000000	0.001336  
3643.000000	0.001497  
3642.000000	0.001637  
3641.000000	0.001733  
3640.000000	0.001749  
3639.000000	0.001653  
3638.000000	0.001479  
3637.000000	0.001340  
3636.000000	0.001335  
3635.000000	0.001433  
3634.000000	0.001508  
3633.000000	0.001477  
3632.000000	0.001385  
3631.000000	0.001336  
3630.000000	0.001376  
3629.000000	0.001463  
3628.000000	0.001541  
3627.000000	0.001608  
3626.000000	0.001673  
3625.000000	0.001732  
3624.000000	0.001797  
3623.000000	0.001879  
3622.000000	0.001928  
3621.000000	0.001839  
3620.000000	0.001565  
3619.000000	0.001199  
3618.000000	0.000897  
3617.000000	0.000746  
3616.000000	0.000741  
3615.000000	0.000838  
3614.000000	0.000991  
3613.000000	0.001165  
3612.000000	0.001342  
3611.000000	0.001522  
3610.000000	0.001686  
3609.000000	0.001775  
3608.000000	0.001724  
3607.000000	0.001526  
3606.000000	0.001243  
3605.000000	0.000968  
3604.000000	0.000799  
3603.000000	0.000808  
3602.000000	0.001018  
3601.000000	0.001365  
3600.000000	0.001726  
3599.000000	0.001966  
3598.000000	0.001998  
3597.000000	0.001836  
3596.000000	0.001594  
3595.000000	0.001409  
3594.000000	0.001326  
3593.000000	0.001263  
3592.000000	0.001118  
3591.000000	0.000890  
3590.000000	0.000696  
3589.000000	0.000675  
3588.000000	0.000857  
3587.000000	0.001116  
3586.000000	0.001314  
3585.000000	0.001407  
3584.000000	0.001397  
3583.000000	0.001305  
3582.000000	0.001195  
3581.000000	0.001166  
3580.000000	0.001268  
3579.000000	0.001423  
3578.000000	0.001469  
3577.000000	0.001331  
3576.000000	0.001103  
3575.000000	0.000943  
3574.000000	0.000894  
3573.000000	0.000850  
3572.000000	0.000707  
3571.000000	0.000507  
3570.000000	0.000414  
3569.000000	0.000537  
3568.000000	0.000783  
3567.000000	0.000939  
3566.000000	0.000936  
3565.000000	0.000905  
3564.000000	0.000972  
3563.000000	0.001125  
3562.000000	0.001278  
3561.000000	0.001394  
3560.000000	0.001520  
3559.000000	0.001707  
3558.000000	0.001917  
3557.000000	0.002033  
3556.000000	0.001959  
3555.000000	0.001711  
3554.000000	0.001394  
3553.000000	0.001118  
3552.000000	0.000927  
3551.000000	0.000810  
3550.000000	0.000737  
3549.000000	0.000680  
3548.000000	0.000626  
3547.000000	0.000599  
3546.000000	0.000655  
3545.000000	0.000816  
3544.000000	0.001030  
3543.000000	0.001218  
3542.000000	0.001355  
3541.000000	0.001476  
3540.000000	0.001603  
3539.000000	0.001686  
3538.000000	0.001639  
3537.000000	0.001445  
3536.000000	0.001195  
3535.000000	0.001012  
3534.000000	0.000954  
3533.000000	0.001002  
3532.000000	0.001116  
3531.000000	0.001261  
3530.000000	0.001398  
3529.000000	0.001463  
3528.000000	0.001405  
3527.000000	0.001238  
3526.000000	0.001028  
3525.000000	0.000846  
3524.000000	0.000736  
3523.000000	0.000731  
3522.000000	0.000836  
3521.000000	0.001003  
3520.000000	0.001143  
3519.000000	0.001202  
3518.000000	0.001205  
3517.000000	0.001222  
3516.000000	0.001286  
3515.000000	0.001374  
3514.000000	0.001446  
3513.000000	0.001489  
3512.000000	0.001508  
3511.000000	0.001504  
3510.000000	0.001486  
3509.000000	0.001465  
3508.000000	0.001446  
3507.000000	0.001427  
3506.000000	0.001418  
3505.000000	0.001432  
3504.000000	0.001460  
3503.000000	0.001469  
3502.000000	0.001438  
3501.000000	0.001388  
3500.000000	0.001357  
3499.000000	0.001373  
3498.000000	0.001440  
3497.000000	0.001531  
3496.000000	0.001601  
3495.000000	0.001610  
3494.000000	0.001552  
3493.000000	0.001448  
3492.000000	0.001318  
3491.000000	0.001175  
3490.000000	0.001050  
3489.000000	0.000992  
3488.000000	0.001021  
3487.000000	0.001113  
3486.000000	0.001243  
3485.000000	0.001400  
3484.000000	0.001542  
3483.000000	0.001583  
3482.000000	0.001468  
3481.000000	0.001247  
3480.000000	0.001045  
3479.000000	0.000944  
3478.000000	0.000942  
3477.000000	0.000998  
3476.000000	0.001081  
3475.000000	0.001168  
3474.000000	0.001240  
3473.000000	0.001277  
3472.000000	0.001263  
3471.000000	0.001180  
3470.000000	0.001035  
3469.000000	0.000884  
3468.000000	0.000803  
3467.000000	0.000834  
3466.000000	0.000946  
3465.000000	0.001063  
3464.000000	0.001107  
3463.000000	0.001043  
3462.000000	0.000900  
3461.000000	0.000767  
3460.000000	0.000738  
3459.000000	0.000841  
3458.000000	0.001017  
3457.000000	0.001171  
3456.000000	0.001232  
3455.000000	0.001194  
3454.000000	0.001124  
3453.000000	0.001112  
3452.000000	0.001198  
3451.000000	0.001331  
3450.000000	0.001418  
3449.000000	0.001418  
3448.000000	0.001368  
3447.000000	0.001334  
3446.000000	0.001354  
3445.000000	0.001426  
3444.000000	0.001513  
3443.000000	0.001551  
3442.000000	0.001496  
3441.000000	0.001397  
3440.000000	0.001371  
3439.000000	0.001495  
3438.000000	0.001701  
3437.000000	0.001825  
3436.000000	0.001750  
3435.000000	0.001515  
3434.000000	0.001282  
3433.000000	0.001202  
3432.000000	0.001301  
3431.000000	0.001467  
3430.000000	0.001550  
3429.000000	0.001470  
3428.000000	0.001241  
3427.000000	0.000938  
3426.000000	0.000655  
3425.000000	0.000485  
3424.000000	0.000480  
3423.000000	0.000615  
3422.000000	0.000803  
3421.000000	0.000972  
3420.000000	0.001101  
3419.000000	0.001190  
3418.000000	0.001230  
3417.000000	0.001225  
3416.000000	0.001210  
3415.000000	0.001224  
3414.000000	0.001263  
3413.000000	0.001314  
3412.000000	0.001388  
3411.000000	0.001498  
3410.000000	0.001596  
3409.000000	0.001576  
3408.000000	0.001380  
3407.000000	0.001071  
3406.000000	0.000802  
3405.000000	0.000697  
3404.000000	0.000766  
3403.000000	0.000924  
3402.000000	0.001084  
3401.000000	0.001216  
3400.000000	0.001319  
3399.000000	0.001375  
3398.000000	0.001361  
3397.000000	0.001315  
3396.000000	0.001346  
3395.000000	0.001528  
3394.000000	0.001807  
3393.000000	0.002026  
3392.000000	0.002054  
3391.000000	0.001891  
3390.000000	0.001654  
3389.000000	0.001476  
3388.000000	0.001397  
3387.000000	0.001351  
3386.000000	0.001260  
3385.000000	0.001143  
3384.000000	0.001116  
3383.000000	0.001252  
3382.000000	0.001488  
3381.000000	0.001683  
3380.000000	0.001758  
3379.000000	0.001720  
3378.000000	0.001585  
3377.000000	0.001336  
3376.000000	0.000997  
3375.000000	0.000677  
3374.000000	0.000516  
3373.000000	0.000553  
3372.000000	0.000712  
3371.000000	0.000894  
3370.000000	0.001077  
3369.000000	0.001296  
3368.000000	0.001547  
3367.000000	0.001750  
3366.000000	0.001813  
3365.000000	0.001734  
3364.000000	0.001602  
3363.000000	0.001504  
3362.000000	0.001465  
3361.000000	0.001472  
3360.000000	0.001512  
3359.000000	0.001565  
3358.000000	0.001586  
3357.000000	0.001545  
3356.000000	0.001460  
3355.000000	0.001369  
3354.000000	0.001273  
3353.000000	0.001155  
3352.000000	0.001040  
3351.000000	0.000982  
3350.000000	0.000994  
3349.000000	0.001025  
3348.000000	0.001037  
3347.000000	0.001062  
3346.000000	0.001146  
3345.000000	0.001270  
3344.000000	0.001359  
3343.000000	0.001362  
3342.000000	0.001297  
3341.000000	0.001209  
3340.000000	0.001119  
3339.000000	0.001037  
3338.000000	0.000988  
3337.000000	0.001012  
3336.000000	0.001117  
3335.000000	0.001257  
3334.000000	0.001354  
3333.000000	0.001366  
3332.000000	0.001320  
3331.000000	0.001283  
3330.000000	0.001310  
3329.000000	0.001404  
3328.000000	0.001535  
3327.000000	0.001649  
3326.000000	0.001696  
3325.000000	0.001656  
3324.000000	0.001556  
3323.000000	0.001455  
3322.000000	0.001390  
3321.000000	0.001355  
3320.000000	0.001332  
3319.000000	0.001331  
3318.000000	0.001377  
3317.000000	0.001462  
3316.000000	0.001532  
3315.000000	0.001521  
3314.000000	0.001418  
3313.000000	0.001284  
3312.000000	0.001204  
3311.000000	0.001228  
3310.000000	0.001330  
3309.000000	0.001414  
3308.000000	0.001377  
3307.000000	0.001192  
3306.000000	0.000966  
3305.000000	0.000880  
3304.000000	0.001034  
3303.000000	0.001341  
3302.000000	0.001612  
3301.000000	0.001730  
3300.000000	0.001715  
3299.000000	0.001638  
3298.000000	0.001536  
3297.000000	0.001426  
3296.000000	0.001350  
3295.000000	0.001342  
3294.000000	0.001379  
3293.000000	0.001424  
3292.000000	0.001488  
3291.000000	0.001597  
3290.000000	0.001711  
3289.000000	0.001741  
3288.000000	0.001642  
3287.000000	0.001463  
3286.000000	0.001280  
3285.000000	0.001136  
3284.000000	0.001047  
3283.000000	0.001023  
3282.000000	0.001048  
3281.000000	0.001080  
3280.000000	0.001084  
3279.000000	0.001069  
3278.000000	0.001063  
3277.000000	0.001086  
3276.000000	0.001165  
3275.000000	0.001335  
3274.000000	0.001595  
3273.000000	0.001861  
3272.000000	0.002009  
3271.000000	0.001972  
3270.000000	0.001791  
3269.000000	0.001564  
3268.000000	0.001353  
3267.000000	0.001158  
3266.000000	0.000983  
3265.000000	0.000890  
3264.000000	0.000962  
3263.000000	0.001191  
3262.000000	0.001455  
3261.000000	0.001627  
3260.000000	0.001704  
3259.000000	0.001782  
3258.000000	0.001904  
3257.000000	0.001990  
3256.000000	0.001927  
3255.000000	0.001717  
3254.000000	0.001499  
3253.000000	0.001436  
3252.000000	0.001570  
3251.000000	0.001785  
3250.000000	0.001913  
3249.000000	0.001892  
3248.000000	0.001805  
3247.000000	0.001764  
3246.000000	0.001768  
3245.000000	0.001738  
3244.000000	0.001659  
3243.000000	0.001612  
3242.000000	0.001662  
3241.000000	0.001766  
3240.000000	0.001823  
3239.000000	0.001773  
3238.000000	0.001617  
3237.000000	0.001396  
3236.000000	0.001179  
3235.000000	0.001040  
3234.000000	0.001012  
3233.000000	0.001068  
3232.000000	0.001170  
3231.000000	0.001309  
3230.000000	0.001466  
3229.000000	0.001578  
3228.000000	0.001592  
3227.000000	0.001542  
3226.000000	0.001509  
3225.000000	0.001543  
3224.000000	0.001634  
3223.000000	0.001750  
3222.000000	0.001854  
3221.000000	0.001895  
3220.000000	0.001851  
3219.000000	0.001774  
3218.000000	0.001752  
3217.000000	0.001809  
3216.000000	0.001887  
3215.000000	0.001927  
3214.000000	0.001929  
3213.000000	0.001930  
3212.000000	0.001940  
3211.000000	0.001950  
3210.000000	0.001953  
3209.000000	0.001959  
3208.000000	0.001990  
3207.000000	0.002061  
3206.000000	0.002173  
3205.000000	0.002300  
3204.000000	0.002424  
3203.000000	0.002544  
3202.000000	0.002652  
3201.000000	0.002684  
3200.000000	0.002552  
3199.000000	0.002235  
3198.000000	0.001822  
3197.000000	0.001441  
3196.000000	0.001174  
3195.000000	0.001042  
3194.000000	0.001030  
3193.000000	0.001119  
3192.000000	0.001281  
3191.000000	0.001506  
3190.000000	0.001794  
3189.000000	0.002112  
3188.000000	0.002372  
3187.000000	0.002480  
3186.000000	0.002430  
3185.000000	0.002316  
3184.000000	0.002230  
3183.000000	0.002175  
3182.000000	0.002092  
3181.000000	0.001955  
3180.000000	0.001813  
3179.000000	0.001721  
3178.000000	0.001677  
3177.000000	0.001657  
3176.000000	0.001676  
3175.000000	0.001780  
3174.000000	0.001969  
3173.000000	0.002155  
3172.000000	0.002244  
3171.000000	0.002211  
3170.000000	0.002112  
3169.000000	0.002023  
3168.000000	0.001990  
3167.000000	0.002020  
3166.000000	0.002089  
3165.000000	0.002154  
3164.000000	0.002182  
3163.000000	0.002170  
3162.000000	0.002130  
3161.000000	0.002075  
3160.000000	0.002019  
3159.000000	0.001993  
3158.000000	0.002025  
3157.000000	0.002105  
3156.000000	0.002186  
3155.000000	0.002231  
3154.000000	0.002259  
3153.000000	0.002314  
3152.000000	0.002396  
3151.000000	0.002426  
3150.000000	0.002310  
3149.000000	0.002047  
3148.000000	0.001762  
3147.000000	0.001598  
3146.000000	0.001591  
3145.000000	0.001662  
3144.000000	0.001737  
3143.000000	0.001809  
3142.000000	0.001879  
3141.000000	0.001921  
3140.000000	0.001925  
3139.000000	0.001958  
3138.000000	0.002094  
3137.000000	0.002307  
3136.000000	0.002466  
3135.000000	0.002454  
3134.000000	0.002279  
3133.000000	0.002067  
3132.000000	0.001971  
3131.000000	0.002059  
3130.000000	0.002259  
3129.000000	0.002412  
3128.000000	0.002402  
3127.000000	0.002261  
3126.000000	0.002106  
3125.000000	0.002025  
3124.000000	0.002032  
3123.000000	0.002115  
3122.000000	0.002256  
3121.000000	0.002396  
3120.000000	0.002443  
3119.000000	0.002346  
3118.000000	0.002151  
3117.000000	0.001967  
3116.000000	0.001894  
3115.000000	0.001965  
3114.000000	0.002130  
3113.000000	0.002295  
3112.000000	0.002389  
3111.000000	0.002426  
3110.000000	0.002462  
3109.000000	0.002493  
3108.000000	0.002446  
3107.000000	0.002271  
3106.000000	0.002018  
3105.000000	0.001810  
3104.000000	0.001742  
3103.000000	0.001834  
3102.000000	0.002029  
3101.000000	0.002217  
3100.000000	0.002302  
3099.000000	0.002259  
3098.000000	0.002145  
3097.000000	0.002042  
3096.000000	0.002001  
3095.000000	0.002033  
3094.000000	0.002120  
3093.000000	0.002221  
3092.000000	0.002299  
3091.000000	0.002356  
3090.000000	0.002417  
3089.000000	0.002476  
3088.000000	0.002498  
3087.000000	0.002487  
3086.000000	0.002510  
3085.000000	0.002614  
3084.000000	0.002752  
3083.000000	0.002821  
3082.000000	0.002782  
3081.000000	0.002703  
3080.000000	0.002689  
3079.000000	0.002800  
3078.000000	0.003006  
3077.000000	0.003207  
3076.000000	0.003298  
3075.000000	0.003245  
3074.000000	0.003108  
3073.000000	0.002986  
3072.000000	0.002950  
3071.000000	0.003021  
3070.000000	0.003180  
3069.000000	0.003367  
3068.000000	0.003489  
3067.000000	0.003495  
3066.000000	0.003441  
3065.000000	0.003450  
3064.000000	0.003595  
3063.000000	0.003818  
3062.000000	0.003988  
3061.000000	0.004011  
3060.000000	0.003901  
3059.000000	0.003750  
3058.000000	0.003641  
3057.000000	0.003580  
3056.000000	0.003522  
3055.000000	0.003464  
3054.000000	0.003461  
3053.000000	0.003538  
3052.000000	0.003632  
3051.000000	0.003658  
3050.000000	0.003626  
3049.000000	0.003637  
3048.000000	0.003758  
3047.000000	0.003943  
3046.000000	0.004103  
3045.000000	0.004194  
3044.000000	0.004231  
3043.000000	0.004234  
3042.000000	0.004205  
3041.000000	0.004156  
3040.000000	0.004128  
3039.000000	0.004165  
3038.000000	0.004281  
3037.000000	0.004430  
3036.000000	0.004533  
3035.000000	0.004535  
3034.000000	0.004454  
3033.000000	0.004381  
3032.000000	0.004410  
3031.000000	0.004574  
3030.000000	0.004827  
3029.000000	0.005074  
3028.000000	0.005238  
3027.000000	0.005306  
3026.000000	0.005332  
3025.000000	0.005389  
3024.000000	0.005522  
3023.000000	0.005719  
3022.000000	0.005926  
3021.000000	0.006064  
3020.000000	0.006076  
3019.000000	0.005996  
3018.000000	0.005941  
3017.000000	0.006020  
3016.000000	0.006221  
3015.000000	0.006441  
3014.000000	0.006596  
3013.000000	0.006686  
3012.000000	0.006751  
3011.000000	0.006818  
3010.000000	0.006904  
3009.000000	0.007035  
3008.000000	0.007225  
3007.000000	0.007460  
3006.000000	0.007690  
3005.000000	0.007854  
3004.000000	0.007893  
3003.000000	0.007801  
3002.000000	0.007673  
3001.000000	0.007668  
3000.000000	0.007886  
2999.000000	0.008278  
2998.000000	0.008689  
2997.000000	0.008989  
2996.000000	0.009151  
2995.000000	0.009242  
2994.000000	0.009377  
2993.000000	0.009671  
2992.000000	0.010165  
2991.000000	0.010794  
2990.000000	0.011433  
2989.000000	0.012004  
2988.000000	0.012538  
2987.000000	0.013133  
2986.000000	0.013874  
2985.000000	0.014780  
2984.000000	0.015817  
2983.000000	0.016944  
2982.000000	0.018143  
2981.000000	0.019432  
2980.000000	0.020844  
2979.000000	0.022426  
2978.000000	0.024249  
2977.000000	0.026415  
2976.000000	0.029006  
2975.000000	0.032028  
2974.000000	0.035412  
2973.000000	0.039083  
2972.000000	0.043005  
2971.000000	0.047175  
2970.000000	0.051635  
2969.000000	0.056476  
2968.000000	0.061781  
2967.000000	0.067505  
2966.000000	0.073428  
2965.000000	0.079286  
2964.000000	0.084937  
2963.000000	0.090381  
2962.000000	0.095637  
2961.000000	0.100660  
2960.000000	0.105361  
2959.000000	0.109631  
2958.000000	0.113324  
2957.000000	0.116277  
2956.000000	0.118374  
2955.000000	0.119578  
2954.000000	0.119882  
2953.000000	0.119291  
2952.000000	0.117873  
2951.000000	0.115792  
2950.000000	0.113276  
2949.000000	0.110567  
2948.000000	0.107901  
2947.000000	0.105506  
2946.000000	0.103587  
2945.000000	0.102319  
2944.000000	0.101861  
2943.000000	0.102342  
2942.000000	0.103829  
2941.000000	0.106316  
2940.000000	0.109738  
2939.000000	0.114019  
2938.000000	0.119082  
2937.000000	0.124844  
2936.000000	0.131181  
2935.000000	0.137935  
2934.000000	0.144959  
2933.000000	0.152208  
2932.000000	0.159750  
2931.000000	0.167633  
2930.000000	0.175743  
2929.000000	0.183833  
2928.000000	0.191642  
2927.000000	0.198938  
2926.000000	0.205459  
2925.000000	0.210936  
2924.000000	0.215173  
2923.000000	0.218025  
2922.000000	0.219314  
2921.000000	0.218920  
2920.000000	0.216976  
2919.000000	0.213852  
2918.000000	0.209889  
2917.000000	0.205252  
2916.000000	0.200049  
2915.000000	0.194482  
2914.000000	0.188794  
2913.000000	0.183159  
2912.000000	0.177676  
2911.000000	0.172452  
2910.000000	0.167587  
2909.000000	0.163078  
2908.000000	0.158779  
2907.000000	0.154494  
2906.000000	0.150108  
2905.000000	0.145649  
2904.000000	0.141241  
2903.000000	0.137009  
2902.000000	0.133003  
2901.000000	0.129203  
2900.000000	0.125542  
2899.000000	0.121926  
2898.000000	0.118260  
2897.000000	0.114511  
2896.000000	0.110757  
2895.000000	0.107137  
2894.000000	0.103727  
2893.000000	0.100469  
2892.000000	0.097225  
2891.000000	0.093909  
2890.000000	0.090571  
2889.000000	0.087376  
2888.000000	0.084502  
2887.000000	0.082046  
2886.000000	0.080004  
2885.000000	0.078337  
2884.000000	0.077055  
2883.000000	0.076230  
2882.000000	0.075942  
2881.000000	0.076232  
2880.000000	0.077144  
2879.000000	0.078758  
2878.000000	0.081150  
2877.000000	0.084266  
2876.000000	0.087857  
2875.000000	0.091540  
2874.000000	0.094916  
2873.000000	0.097677  
2872.000000	0.099645  
2871.000000	0.100785  
2870.000000	0.101213  
2869.000000	0.101182  
2868.000000	0.101031  
2867.000000	0.101086  
2866.000000	0.101588  
2865.000000	0.102688  
2864.000000	0.104479  
2863.000000	0.107004  
2862.000000	0.110220  
2861.000000	0.114004  
2860.000000	0.118208  
2859.000000	0.122709  
2858.000000	0.127355  
2857.000000	0.131883  
2856.000000	0.135868  
2855.000000	0.138787  
2854.000000	0.140143  
2853.000000	0.139631  
2852.000000	0.137247  
2851.000000	0.133250  
2850.000000	0.128008  
2849.000000	0.121868  
2848.000000	0.115123  
2847.000000	0.108051  
2846.000000	0.100913  
2845.000000	0.093899  
2844.000000	0.087071  
2843.000000	0.080390  
2842.000000	0.073825  
2841.000000	0.067444  
2840.000000	0.061397  
2839.000000	0.055828  
2838.000000	0.050810  
2837.000000	0.046340  
2836.000000	0.042351  
2835.000000	0.038736  
2834.000000	0.035404  
2833.000000	0.032343  
2832.000000	0.029614  
2831.000000	0.027289  
2830.000000	0.025376  
2829.000000	0.023801  
2828.000000	0.022444  
2827.000000	0.021194  
2826.000000	0.019985  
2825.000000	0.018808  
2824.000000	0.017709  
2823.000000	0.016749  
2822.000000	0.015974  
2821.000000	0.015380  
2820.000000	0.014909  
2819.000000	0.014472  
2818.000000	0.014005  
2817.000000	0.013498  
2816.000000	0.012985  
2815.000000	0.012500  
2814.000000	0.012040  
2813.000000	0.011588  
2812.000000	0.011144  
2811.000000	0.010746  
2810.000000	0.010443  
2809.000000	0.010258  
2808.000000	0.010166  
2807.000000	0.010105  
2806.000000	0.010000  
2805.000000	0.009798  
2804.000000	0.009491  
2803.000000	0.009119  
2802.000000	0.008749  
2801.000000	0.008431  
2800.000000	0.008186  
2799.000000	0.008011  
2798.000000	0.007894  
2797.000000	0.007824  
2796.000000	0.007785  
2795.000000	0.007740  
2794.000000	0.007634  
2793.000000	0.007413  
2792.000000	0.007082  
2791.000000	0.006723  
2790.000000	0.006447  
2789.000000	0.006310  
2788.000000	0.006284  
2787.000000	0.006289  
2786.000000	0.006264  
2785.000000	0.006177  
2784.000000	0.006023  
2783.000000	0.005824  
2782.000000	0.005643  
2781.000000	0.005549  
2780.000000	0.005563  
2779.000000	0.005632  
2778.000000	0.005665  
2777.000000	0.005594  
2776.000000	0.005404  
2775.000000	0.005149  
2774.000000	0.004923  
2773.000000	0.004807  
2772.000000	0.004809  
2771.000000	0.004861  
2770.000000	0.004875  
2769.000000	0.004809  
2768.000000	0.004677  
2767.000000	0.004519  
2766.000000	0.004379  
2765.000000	0.004304  
2764.000000	0.004323  
2763.000000	0.004419  
2762.000000	0.004522  
2761.000000	0.004563  
2760.000000	0.004528  
2759.000000	0.004464  
2758.000000	0.004422  
2757.000000	0.004408  
2756.000000	0.004396  
2755.000000	0.004370  
2754.000000	0.004345  
2753.000000	0.004339  
2752.000000	0.004347  
2751.000000	0.004351  
2750.000000	0.004348  
2749.000000	0.004356  
2748.000000	0.004376  
2747.000000	0.004379  
2746.000000	0.004336  
2745.000000	0.004255  
2744.000000	0.004179  
2743.000000	0.004148  
2742.000000	0.004171  
2741.000000	0.004234  
2740.000000	0.004319  
2739.000000	0.004411  
2738.000000	0.004488  
2737.000000	0.004546  
2736.000000	0.004611  
2735.000000	0.004727  
2734.000000	0.004900  
2733.000000	0.005080  
2732.000000	0.005186  
2731.000000	0.005175  
2730.000000	0.005079  
2729.000000	0.004992  
2728.000000	0.004993  
2727.000000	0.005082  
2726.000000	0.005174  
2725.000000	0.005179  
2724.000000	0.005086  
2723.000000	0.004961  
2722.000000	0.004871  
2721.000000	0.004824  
2720.000000	0.004792  
2719.000000	0.004764  
2718.000000	0.004758  
2717.000000	0.004789  
2716.000000	0.004837  
2715.000000	0.004860  
2714.000000	0.004811  
2713.000000	0.004671  
2712.000000	0.004467  
2711.000000	0.004264  
2710.000000	0.004120  
2709.000000	0.004046  
2708.000000	0.004024  
2707.000000	0.004038  
2706.000000	0.004071  
2705.000000	0.004081  
2704.000000	0.004019  
2703.000000	0.003888  
2702.000000	0.003746  
2701.000000	0.003646  
2700.000000	0.003586  
2699.000000	0.003537  
2698.000000	0.003505  
2697.000000	0.003537  
2696.000000	0.003656  
2695.000000	0.003825  
2694.000000	0.003967  
2693.000000	0.004018  
2692.000000	0.003971  
2691.000000	0.003873  
2690.000000	0.003812  
2689.000000	0.003861  
2688.000000	0.004030  
2687.000000	0.004244  
2686.000000	0.004400  
2685.000000	0.004450  
2684.000000	0.004441  
2683.000000	0.004459  
2682.000000	0.004536  
2681.000000	0.004625  
2680.000000	0.004655  
2679.000000	0.004599  
2678.000000	0.004498  
2677.000000	0.004420  
2676.000000	0.004418  
2675.000000	0.004497  
2674.000000	0.004608  
2673.000000	0.004683  
2672.000000	0.004683  
2671.000000	0.004622  
2670.000000	0.004531  
2669.000000	0.004443  
2668.000000	0.004391  
2667.000000	0.004415  
2666.000000	0.004519  
2665.000000	0.004644  
2664.000000	0.004703  
2663.000000	0.004651  
2662.000000	0.004511  
2661.000000	0.004342  
2660.000000	0.004199  
2659.000000	0.004109  
2658.000000	0.004060  
2657.000000	0.004015  
2656.000000	0.003952  
2655.000000	0.003902  
2654.000000	0.003902  
2653.000000	0.003932  
2652.000000	0.003943  
2651.000000	0.003934  
2650.000000	0.003960  
2649.000000	0.004047  
2648.000000	0.004133  
2647.000000	0.004137  
2646.000000	0.004048  
2645.000000	0.003915  
2644.000000	0.003802  
2643.000000	0.003750  
2642.000000	0.003793  
2641.000000	0.003916  
2640.000000	0.004045  
2639.000000	0.004081  
2638.000000	0.003982  
2637.000000	0.003790  
2636.000000	0.003599  
2635.000000	0.003516  
2634.000000	0.003601  
2633.000000	0.003814  
2632.000000	0.004017  
2631.000000	0.004075  
2630.000000	0.003966  
2629.000000	0.003787  
2628.000000	0.003661  
2627.000000	0.003653  
2626.000000	0.003749  
2625.000000	0.003870  
2624.000000	0.003912  
2623.000000	0.003824  
2622.000000	0.003648  
2621.000000	0.003480  
2620.000000	0.003371  
2619.000000	0.003310  
2618.000000	0.003282  
2617.000000	0.003304  
2616.000000	0.003393  
2615.000000	0.003520  
2614.000000	0.003629  
2613.000000	0.003689  
2612.000000	0.003715  
2611.000000	0.003749  
2610.000000	0.003826  
2609.000000	0.003931  
2608.000000	0.004004  
2607.000000	0.004005  
2606.000000	0.003954  
2605.000000	0.003896  
2604.000000	0.003825  
2603.000000	0.003707  
2602.000000	0.003564  
2601.000000	0.003491  
2600.000000	0.003543  
2599.000000	0.003649  
2598.000000	0.003677  
2597.000000	0.003574  
2596.000000	0.003404  
2595.000000	0.003256  
2594.000000	0.003133  
2593.000000	0.002978  
2592.000000	0.002776  
2591.000000	0.002611  
2590.000000	0.002587  
2589.000000	0.002705  
2588.000000	0.002850  
2587.000000	0.002915  
2586.000000	0.002914  
2585.000000	0.002924  
2584.000000	0.002968  
2583.000000	0.002984  
2582.000000	0.002927  
2581.000000	0.002822  
2580.000000	0.002734  
2579.000000	0.002699  
2578.000000	0.002717  
2577.000000	0.002769  
2576.000000	0.002817  
2575.000000	0.002820  
2574.000000	0.002775  
2573.000000	0.002720  
2572.000000	0.002682  
2571.000000	0.002638  
2570.000000	0.002553  
2569.000000	0.002444  
2568.000000	0.002357  
2567.000000	0.002318  
2566.000000	0.002304  
2565.000000	0.002285  
2564.000000	0.002259  
2563.000000	0.002240  
2562.000000	0.002243  
2561.000000	0.002267  
2560.000000	0.002293  
2559.000000	0.002298  
2558.000000	0.002293  
2557.000000	0.002330  
2556.000000	0.002448  
2555.000000	0.002599  
2554.000000	0.002670  
2553.000000	0.002611  
2552.000000	0.002517  
2551.000000	0.002546  
2550.000000	0.002750  
2549.000000	0.003010  
2548.000000	0.003154  
2547.000000	0.003100  
2546.000000	0.002868  
2545.000000	0.002522  
2544.000000	0.002157  
2543.000000	0.001893  
2542.000000	0.001813  
2541.000000	0.001872  
2540.000000	0.001939  
2539.000000	0.001947  
2538.000000	0.001951  
2537.000000	0.002017  
2536.000000	0.002100  
2535.000000	0.002106  
2534.000000	0.002022  
2533.000000	0.001930  
2532.000000	0.001900  
2531.000000	0.001915  
2530.000000	0.001900  
2529.000000	0.001809  
2528.000000	0.001677  
2527.000000	0.001602  
2526.000000	0.001674  
2525.000000	0.001888  
2524.000000	0.002148  
2523.000000	0.002346  
2522.000000	0.002428  
2521.000000	0.002383  
2520.000000	0.002227  
2519.000000	0.002039  
2518.000000	0.001959  
2517.000000	0.002073  
2516.000000	0.002297  
2515.000000	0.002451  
2514.000000	0.002442  
2513.000000	0.002326  
2512.000000	0.002197  
2511.000000	0.002090  
2510.000000	0.002006  
2509.000000	0.001959  
2508.000000	0.001975  
2507.000000	0.002050  
2506.000000	0.002168  
2505.000000	0.002293  
2504.000000	0.002361  
2503.000000	0.002312  
2502.000000	0.002170  
2501.000000	0.002055  
2500.000000	0.002068  
2499.000000	0.002170  
2498.000000	0.002193  
2497.000000	0.001995  
2496.000000	0.001590  
2495.000000	0.001149  
2494.000000	0.000895  
2493.000000	0.000956  
2492.000000	0.001298  
2491.000000	0.001756  
2490.000000	0.002150  
2489.000000	0.002365  
2488.000000	0.002382  
2487.000000	0.002251  
2486.000000	0.002039  
2485.000000	0.001794  
2484.000000	0.001549  
2483.000000	0.001379  
2482.000000	0.001409  
2481.000000	0.001706  
2480.000000	0.002171  
2479.000000	0.002578  
2478.000000	0.002750  
2477.000000	0.002678  
2476.000000	0.002471  
2475.000000	0.002239  
2474.000000	0.002037  
2473.000000	0.001883  
2472.000000	0.001786  
2471.000000	0.001732  
2470.000000	0.001683  
2469.000000	0.001611  
2468.000000	0.001543  
2467.000000	0.001570  
2466.000000	0.001766  
2465.000000	0.002069  
2464.000000	0.002294  
2463.000000	0.002303  
2462.000000	0.002138  
2461.000000	0.001958  
2460.000000	0.001871  
2459.000000	0.001888  
2458.000000	0.001998  
2457.000000	0.002173  
2456.000000	0.002305  
2455.000000	0.002247  
2454.000000	0.001989  
2453.000000	0.001696  
2452.000000	0.001524  
2451.000000	0.001447  
2450.000000	0.001360  
2449.000000	0.001272  
2448.000000	0.001306  
2447.000000	0.001510  
2446.000000	0.001769  
2445.000000	0.001925  
2444.000000	0.001921  
2443.000000	0.001821  
2442.000000	0.001733  
2441.000000	0.001716  
2440.000000	0.001740  
2439.000000	0.001722  
2438.000000	0.001632  
2437.000000	0.001542  
2436.000000	0.001540  
2435.000000	0.001612  
2434.000000	0.001650  
2433.000000	0.001588  
2432.000000	0.001484  
2431.000000	0.001442  
2430.000000	0.001504  
2429.000000	0.001629  
2428.000000	0.001755  
2427.000000	0.001858  
2426.000000	0.001947  
2425.000000	0.002038  
2424.000000	0.002117  
2423.000000	0.002143  
2422.000000	0.002089  
2421.000000	0.001983  
2420.000000	0.001893  
2419.000000	0.001861  
2418.000000	0.001872  
2417.000000	0.001897  
2416.000000	0.001929  
2415.000000	0.001975  
2414.000000	0.002029  
2413.000000	0.002063  
2412.000000	0.002056  
2411.000000	0.002013  
2410.000000	0.001974  
2409.000000	0.001989  
2408.000000	0.002085  
2407.000000	0.002215  
2406.000000	0.002262  
2405.000000	0.002137  
2404.000000	0.001874  
2403.000000	0.001618  
2402.000000	0.001496  
2401.000000	0.001517  
2400.000000	0.001603  
2399.000000	0.001712  
2398.000000	0.001867  
2397.000000	0.002076  
2396.000000	0.002263  
2395.000000	0.002328  
2394.000000	0.002259  
2393.000000	0.002152  
2392.000000	0.002111  
2391.000000	0.002157  
2390.000000	0.002227  
2389.000000	0.002242  
2388.000000	0.002187  
2387.000000	0.002135  
2386.000000	0.002202  
2385.000000	0.002443  
2384.000000	0.002771  
2383.000000	0.003003  
2382.000000	0.003009  
2381.000000	0.002829  
2380.000000	0.002637  
2379.000000	0.002555  
2378.000000	0.002527  
2377.000000	0.002371  
2376.000000	0.001981  
2375.000000	0.001470  
2374.000000	0.001072  
2373.000000	0.000943  
2372.000000	0.001063  
2371.000000	0.001332  
2370.000000	0.001669  
2369.000000	0.001963  
2368.000000	0.002076  
2367.000000	0.002031  
2366.000000	0.002063  
2365.000000	0.002277  
2364.000000	0.002368  
2363.000000	0.002045  
2362.000000	0.001547  
2361.000000	0.001410  
2360.000000	0.001830  
2359.000000	0.002397  
2358.000000	0.002681  
2357.000000	0.002671  
2356.000000	0.002548  
2355.000000	0.002450  
2354.000000	0.002400  
2353.000000	0.002431  
2352.000000	0.002501  
2351.000000	0.002489  
2350.000000	0.002397  
2349.000000	0.002254  
2348.000000	0.002144  
2347.000000	0.002122  
2346.000000	0.002276  
2345.000000	0.002686  
2344.000000	0.003117  
2343.000000	0.003239  
2342.000000	0.002915  
2341.000000	0.002551  
2340.000000	0.002642  
2339.000000	0.003064  
2338.000000	0.003238  
2337.000000	0.002881  
2336.000000	0.002344  
2335.000000	0.002104  
2334.000000	0.002211  
2333.000000	0.002429  
2332.000000	0.002615  
2331.000000	0.002767  
2330.000000	0.002937  
2329.000000	0.003027  
2328.000000	0.003056  
2327.000000	0.003065  
2326.000000	0.003069  
2325.000000	0.003041  
2324.000000	0.002872  
2323.000000	0.002561  
2322.000000	0.002128  
2321.000000	0.001766  
2320.000000	0.001708  
2319.000000	0.002035  
2318.000000	0.002525  
2317.000000	0.002766  
2316.000000	0.002541  
2315.000000	0.001992  
2314.000000	0.001534  
2313.000000	0.001470  
2312.000000	0.001784  
2311.000000	0.002221  
2310.000000	0.002589  
2309.000000	0.002871  
2308.000000	0.003113  
2307.000000	0.003280  
2306.000000	0.003276  
2305.000000	0.003074  
2304.000000	0.002752  
2303.000000	0.002436  
2302.000000	0.002192  
2301.000000	0.001998  
2300.000000	0.001829  
2299.000000	0.001741  
2298.000000	0.001860  
2297.000000	0.002212  
2296.000000	0.002626  
2295.000000	0.002850  
2294.000000	0.002797  
2293.000000	0.002628  
2292.000000	0.002541  
2291.000000	0.002574  
2290.000000	0.002627  
2289.000000	0.002615  
2288.000000	0.002499  
2287.000000	0.002240  
2286.000000	0.001837  
2285.000000	0.001432  
2284.000000	0.001226  
2283.000000	0.001255  
2282.000000	0.001331  
2281.000000	0.001287  
2280.000000	0.001200  
2279.000000	0.001268  
2278.000000	0.001513  
2277.000000	0.001741  
2276.000000	0.001832  
2275.000000	0.001935  
2274.000000	0.002296  
2273.000000	0.002898  
2272.000000	0.003420  
2271.000000	0.003560  
2270.000000	0.003325  
2269.000000	0.002938  
2268.000000	0.002541  
2267.000000	0.002117  
2266.000000	0.001693  
2265.000000	0.001453  
2264.000000	0.001548  
2263.000000	0.001879  
2262.000000	0.002207  
2261.000000	0.002406  
2260.000000	0.002499  
2259.000000	0.002504  
2258.000000	0.002408  
2257.000000	0.002285  
2256.000000	0.002278  
2255.000000	0.002405  
2254.000000	0.002502  
2253.000000	0.002446  
2252.000000	0.002314  
2251.000000	0.002244  
2250.000000	0.002219  
2249.000000	0.002090  
2248.000000	0.001772  
2247.000000	0.001333  
2246.000000	0.000910  
2245.000000	0.000631  
2244.000000	0.000586  
2243.000000	0.000774  
2242.000000	0.001076  
2241.000000	0.001326  
2240.000000	0.001441  
2239.000000	0.001468  
2238.000000	0.001492  
2237.000000	0.001543  
2236.000000	0.001586  
2235.000000	0.001579  
2234.000000	0.001529  
2233.000000	0.001493  
2232.000000	0.001504  
2231.000000	0.001507  
2230.000000	0.001419  
2229.000000	0.001262  
2228.000000	0.001169  
2227.000000	0.001243  
2226.000000	0.001423  
2225.000000	0.001530  
2224.000000	0.001395  
2223.000000	0.000979  
2222.000000	0.000446  
2221.000000	0.000135  
2220.000000	0.000317  
2219.000000	0.000889  
2218.000000	0.001436  
2217.000000	0.001668  
2216.000000	0.001732  
2215.000000	0.001933  
2214.000000	0.002253  
2213.000000	0.002368  
2212.000000	0.002133  
2211.000000	0.001823  
2210.000000	0.001754  
2209.000000	0.001859  
2208.000000	0.001801  
2207.000000	0.001453  
2206.000000	0.001082  
2205.000000	0.001031  
2204.000000	0.001357  
2203.000000	0.001843  
2202.000000	0.002285  
2201.000000	0.002644  
2200.000000	0.002969  
2199.000000	0.003269  
2198.000000	0.003528  
2197.000000	0.003745  
2196.000000	0.003881  
2195.000000	0.003815  
2194.000000	0.003447  
2193.000000	0.002859  
2192.000000	0.002257  
2191.000000	0.001747  
2190.000000	0.001299  
2189.000000	0.000958  
2188.000000	0.000917  
2187.000000	0.001255  
2186.000000	0.001720  
2185.000000	0.001947  
2184.000000	0.001854  
2183.000000	0.001690  
2182.000000	0.001711  
2181.000000	0.001986  
2180.000000	0.002464  
2179.000000	0.003034  
2178.000000	0.003492  
2177.000000	0.003653  
2176.000000	0.003550  
2175.000000	0.003357  
2174.000000	0.003069  
2173.000000	0.002494  
2172.000000	0.001666  
2171.000000	0.001037  
2170.000000	0.001044  
2169.000000	0.001573  
2168.000000	0.002088  
2167.000000	0.002267  
2166.000000	0.002296  
2165.000000	0.002495  
2164.000000	0.002846  
2163.000000	0.003041  
2162.000000	0.002892  
2161.000000	0.002523  
2160.000000	0.002179  
2159.000000	0.001977  
2158.000000	0.001906  
2157.000000	0.001956  
2156.000000	0.002114  
2155.000000	0.002261  
2154.000000	0.002231  
2153.000000	0.002017  
2152.000000	0.001836  
2151.000000	0.001892  
2150.000000	0.002135  
2149.000000	0.002331  
2148.000000	0.002365  
2147.000000	0.002350  
2146.000000	0.002430  
2145.000000	0.002595  
2144.000000	0.002736  
2143.000000	0.002778  
2142.000000	0.002662  
2141.000000	0.002324  
2140.000000	0.001800  
2139.000000	0.001332  
2138.000000	0.001223  
2137.000000	0.001541  
2136.000000	0.002013  
2135.000000	0.002245  
2134.000000	0.002062  
2133.000000	0.001631  
2132.000000	0.001303  
2131.000000	0.001322  
2130.000000	0.001663  
2129.000000	0.002087  
2128.000000	0.002369  
2127.000000	0.002429  
2126.000000	0.002294  
2125.000000	0.001997  
2124.000000	0.001607  
2123.000000	0.001290  
2122.000000	0.001256  
2121.000000	0.001569  
2120.000000	0.002055  
2119.000000	0.002417  
2118.000000	0.002482  
2117.000000	0.002337  
2116.000000	0.002245  
2115.000000	0.002375  
2114.000000	0.002582  
2113.000000	0.002533  
2112.000000	0.002089  
2111.000000	0.001536  
2110.000000	0.001327  
2109.000000	0.001612  
2108.000000	0.002103  
2107.000000	0.002406  
2106.000000	0.002383  
2105.000000	0.002140  
2104.000000	0.001828  
2103.000000	0.001539  
2102.000000	0.001338  
2101.000000	0.001254  
2100.000000	0.001226  
2099.000000	0.001151  
2098.000000	0.001001  
2097.000000	0.000841  
2096.000000	0.000720  
2095.000000	0.000615  
2094.000000	0.000507  
2093.000000	0.000453  
2092.000000	0.000541  
2091.000000	0.000783  
2090.000000	0.001087  
2089.000000	0.001338  
2088.000000	0.001521  
2087.000000	0.001713  
2086.000000	0.001957  
2085.000000	0.002152  
2084.000000	0.002129  
2083.000000	0.001839  
2082.000000	0.001442  
2081.000000	0.001199  
2080.000000	0.001272  
2079.000000	0.001618  
2078.000000	0.002009  
2077.000000	0.002179  
2076.000000	0.002027  
2075.000000	0.001751  
2074.000000	0.001680  
2073.000000	0.001920  
2072.000000	0.002207  
2071.000000	0.002220  
2070.000000	0.001953  
2069.000000	0.001670  
2068.000000	0.001546  
2067.000000	0.001507  
2066.000000	0.001453  
2065.000000	0.001437  
2064.000000	0.001553  
2063.000000	0.001763  
2062.000000	0.001955  
2061.000000	0.002075  
2060.000000	0.002112  
2059.000000	0.002038  
2058.000000	0.001870  
2057.000000	0.001723  
2056.000000	0.001672  
2055.000000	0.001610  
2054.000000	0.001384  
2053.000000	0.001045  
2052.000000	0.000827  
2051.000000	0.000877  
2050.000000	0.001140  
2049.000000	0.001539  
2048.000000	0.002065  
2047.000000	0.002602  
2046.000000	0.002831  
2045.000000	0.002537  
2044.000000	0.001943  
2043.000000	0.001532  
2042.000000	0.001549  
2041.000000	0.001825  
2040.000000	0.002103  
2039.000000	0.002325  
2038.000000	0.002520  
2037.000000	0.002584  
2036.000000	0.002401  
2035.000000	0.002105  
2034.000000	0.002018  
2033.000000	0.002280  
2032.000000	0.002658  
2031.000000	0.002787  
2030.000000	0.002491  
2029.000000	0.001855  
2028.000000	0.001104  
2027.000000	0.000482  
2026.000000	0.000160  
2025.000000	0.000134  
2024.000000	0.000229  
2023.000000	0.000316  
2022.000000	0.000479  
2021.000000	0.000848  
2020.000000	0.001317  
2019.000000	0.001571  
2018.000000	0.001425  
2017.000000	0.001006  
2016.000000	0.000548  
2015.000000	0.000152  
2014.000000	-0.000091 
2013.000000	0.000010  
2012.000000	0.000492  
2011.000000	0.000939  
2010.000000	0.000789  
2009.000000	0.000006  
2008.000000	-0.000764 
2007.000000	-0.000906 
2006.000000	-0.000481 
2005.000000	-0.000012 
2004.000000	0.000192  
2003.000000	0.000290  
2002.000000	0.000582  
2001.000000	0.001160  
2000.000000	0.001819  
1999.000000	0.002187  
1998.000000	0.001986  
1997.000000	0.001306  
1996.000000	0.000620  
1995.000000	0.000389  
1994.000000	0.000686  
1993.000000	0.001214  
1992.000000	0.001645  
1991.000000	0.001837  
1990.000000	0.001773  
1989.000000	0.001537  
1988.000000	0.001370  
1987.000000	0.001528  
1986.000000	0.001978  
1985.000000	0.002415  
1984.000000	0.002650  
1983.000000	0.002789  
1982.000000	0.002920  
1981.000000	0.002876  
1980.000000	0.002497  
1979.000000	0.001970  
1978.000000	0.001615  
1977.000000	0.001412  
1976.000000	0.001083  
1975.000000	0.000609  
1974.000000	0.000277  
1973.000000	0.000233  
1972.000000	0.000310  
1971.000000	0.000344  
1970.000000	0.000399  
1969.000000	0.000564  
1968.000000	0.000748  
1967.000000	0.000832  
1966.000000	0.000867  
1965.000000	0.000976  
1964.000000	0.001164  
1963.000000	0.001353  
1962.000000	0.001513  
1961.000000	0.001653  
1960.000000	0.001765  
1959.000000	0.001856  
1958.000000	0.001957  
1957.000000	0.002015  
1956.000000	0.001878  
1955.000000	0.001463  
1954.000000	0.000915  
1953.000000	0.000524  
1952.000000	0.000485  
1951.000000	0.000784  
1950.000000	0.001247  
1949.000000	0.001638  
1948.000000	0.001763  
1947.000000	0.001614  
1946.000000	0.001392  
1945.000000	0.001331  
1944.000000	0.001467  
1943.000000	0.001630  
1942.000000	0.001664  
1941.000000	0.001590  
1940.000000	0.001514  
1939.000000	0.001496  
1938.000000	0.001565  
1937.000000	0.001763  
1936.000000	0.002099  
1935.000000	0.002492  
1934.000000	0.002804  
1933.000000	0.002949  
1932.000000	0.002920  
1931.000000	0.002757  
1930.000000	0.002504  
1929.000000	0.002235  
1928.000000	0.002047  
1927.000000	0.001983  
1926.000000	0.001979  
1925.000000	0.001923  
1924.000000	0.001768  
1923.000000	0.001601  
1922.000000	0.001559  
1921.000000	0.001701  
1920.000000	0.001962  
1919.000000	0.002215  
1918.000000	0.002359  
1917.000000	0.002397  
1916.000000	0.002401  
1915.000000	0.002381  
1914.000000	0.002268  
1913.000000	0.002033  
1912.000000	0.001766  
1911.000000	0.001611  
1910.000000	0.001602  
1909.000000	0.001644  
1908.000000	0.001647  
1907.000000	0.001623  
1906.000000	0.001608  
1905.000000	0.001588  
1904.000000	0.001532  
1903.000000	0.001476  
1902.000000	0.001496  
1901.000000	0.001624  
1900.000000	0.001803  
1899.000000	0.001949  
1898.000000	0.002012  
1897.000000	0.002002  
1896.000000	0.001981  
1895.000000	0.002017  
1894.000000	0.002126  
1893.000000	0.002256  
1892.000000	0.002351  
1891.000000	0.002399  
1890.000000	0.002421  
1889.000000	0.002403  
1888.000000	0.002303  
1887.000000	0.002104  
1886.000000	0.001866  
1885.000000	0.001708  
1884.000000	0.001702  
1883.000000	0.001787  
1882.000000	0.001830  
1881.000000	0.001773  
1880.000000	0.001693  
1879.000000	0.001688  
1878.000000	0.001759  
1877.000000	0.001845  
1876.000000	0.001951  
1875.000000	0.002132  
1874.000000	0.002366  
1873.000000	0.002526  
1872.000000	0.002515  
1871.000000	0.002363  
1870.000000	0.002168  
1869.000000	0.001978  
1868.000000	0.001815  
1867.000000	0.001737  
1866.000000	0.001780  
1865.000000	0.001893  
1864.000000	0.001989  
1863.000000	0.002028  
1862.000000	0.002032  
1861.000000	0.002015  
1860.000000	0.001978  
1859.000000	0.001950  
1858.000000	0.001995  
1857.000000	0.002123  
1856.000000	0.002238  
1855.000000	0.002202  
1854.000000	0.001979  
1853.000000	0.001707  
1852.000000	0.001597  
1851.000000	0.001719  
1850.000000	0.001918  
1849.000000	0.001958  
1848.000000	0.001778  
1847.000000	0.001552  
1846.000000	0.001501  
1845.000000	0.001670  
1844.000000	0.001892  
1843.000000	0.001986  
1842.000000	0.001931  
1841.000000	0.001801  
1840.000000	0.001680  
1839.000000	0.001643  
1838.000000	0.001709  
1837.000000	0.001809  
1836.000000	0.001858  
1835.000000	0.001846  
1834.000000	0.001813  
1833.000000	0.001748  
1832.000000	0.001609  
1831.000000	0.001429  
1830.000000	0.001344  
1829.000000	0.001427  
1828.000000	0.001600  
1827.000000	0.001750  
1826.000000	0.001837  
1825.000000	0.001869  
1824.000000	0.001889  
1823.000000	0.001956  
1822.000000	0.002068  
1821.000000	0.002117  
1820.000000	0.001992  
1819.000000	0.001739  
1818.000000	0.001559  
1817.000000	0.001578  
1816.000000	0.001719  
1815.000000	0.001829  
1814.000000	0.001858  
1813.000000	0.001836  
1812.000000	0.001792  
1811.000000	0.001758  
1810.000000	0.001794  
1809.000000	0.001929  
1808.000000	0.002096  
1807.000000	0.002195  
1806.000000	0.002185  
1805.000000	0.002108  
1804.000000	0.002040  
1803.000000	0.002040  
1802.000000	0.002121  
1801.000000	0.002226  
1800.000000	0.002286  
1799.000000	0.002288  
1798.000000	0.002272  
1797.000000	0.002264  
1796.000000	0.002253  
1795.000000	0.002221  
1794.000000	0.002168  
1793.000000	0.002100  
1792.000000	0.002013  
1791.000000	0.001926  
1790.000000	0.001886  
1789.000000	0.001901  
1788.000000	0.001934  
1787.000000	0.001958  
1786.000000	0.001979  
1785.000000	0.002014  
1784.000000	0.002036  
1783.000000	0.002003  
1782.000000	0.001922  
1781.000000	0.001870  
1780.000000	0.001924  
1779.000000	0.002079  
1778.000000	0.002243  
1777.000000	0.002332  
1776.000000	0.002317  
1775.000000	0.002227  
1774.000000	0.002109  
1773.000000	0.001996  
1772.000000	0.001883  
1771.000000	0.001761  
1770.000000	0.001660  
1769.000000	0.001611  
1768.000000	0.001623  
1767.000000	0.001689  
1766.000000	0.001791  
1765.000000	0.001907  
1764.000000	0.002020  
1763.000000	0.002125  
1762.000000	0.002227  
1761.000000	0.002315  
1760.000000	0.002355  
1759.000000	0.002321  
1758.000000	0.002233  
1757.000000	0.002141  
1756.000000	0.002083  
1755.000000	0.002063  
1754.000000	0.002073  
1753.000000	0.002119  
1752.000000	0.002205  
1751.000000	0.002305  
1750.000000	0.002391  
1749.000000	0.002472  
1748.000000	0.002565  
1747.000000	0.002678  
1746.000000	0.002818  
1745.000000	0.002978  
1744.000000	0.003121  
1743.000000	0.003200  
1742.000000	0.003199  
1741.000000	0.003121  
1740.000000	0.002969  
1739.000000	0.002772  
1738.000000	0.002591  
1737.000000	0.002438  
1736.000000	0.002267  
1735.000000	0.002056  
1734.000000	0.001887  
1733.000000	0.001826  
1732.000000	0.001825  
1731.000000	0.001855  
1730.000000	0.001951  
1729.000000	0.002122  
1728.000000	0.002296  
1727.000000	0.002391  
1726.000000	0.002391  
1725.000000	0.002341  
1724.000000	0.002285  
1723.000000	0.002244  
1722.000000	0.002223  
1721.000000	0.002227  
1720.000000	0.002246  
1719.000000	0.002253  
1718.000000	0.002219  
1717.000000	0.002129  
1716.000000	0.002040  
1715.000000	0.002030  
1714.000000	0.002109  
1713.000000	0.002213  
1712.000000	0.002255  
1711.000000	0.002207  
1710.000000	0.002120  
1709.000000	0.002066  
1708.000000	0.002070  
1707.000000	0.002113  
1706.000000	0.002176  
1705.000000	0.002254  
1704.000000	0.002368  
1703.000000	0.002518  
1702.000000	0.002649  
1701.000000	0.002664  
1700.000000	0.002559  
1699.000000	0.002467  
1698.000000	0.002451  
1697.000000	0.002449  
1696.000000	0.002416  
1695.000000	0.002388  
1694.000000	0.002371  
1693.000000	0.002322  
1692.000000	0.002238  
1691.000000	0.002157  
1690.000000	0.002147  
1689.000000	0.002236  
1688.000000	0.002387  
1687.000000	0.002523  
1686.000000	0.002577  
1685.000000	0.002548  
1684.000000	0.002490  
1683.000000	0.002464  
1682.000000	0.002484  
1681.000000	0.002512  
1680.000000	0.002511  
1679.000000	0.002473  
1678.000000	0.002387  
1677.000000	0.002242  
1676.000000	0.002079  
1675.000000	0.002026  
1674.000000	0.002144  
1673.000000	0.002336  
1672.000000	0.002479  
1671.000000	0.002533  
1670.000000	0.002532  
1669.000000	0.002530  
1668.000000	0.002534  
1667.000000	0.002525  
1666.000000	0.002513  
1665.000000	0.002524  
1664.000000	0.002564  
1663.000000	0.002616  
1662.000000	0.002657  
1661.000000	0.002679  
1660.000000	0.002678  
1659.000000	0.002652  
1658.000000	0.002608  
1657.000000	0.002575  
1656.000000	0.002556  
1655.000000	0.002521  
1654.000000	0.002464  
1653.000000	0.002481  
1652.000000	0.002581  
1651.000000	0.002618  
1650.000000	0.002604  
1649.000000	0.002654  
1648.000000	0.002774  
1647.000000	0.002809  
1646.000000	0.002678  
1645.000000	0.002489  
1644.000000	0.002331  
1643.000000	0.002232  
1642.000000	0.002224  
1641.000000	0.002276  
1640.000000	0.002320  
1639.000000	0.002319  
1638.000000	0.002302  
1637.000000	0.002334  
1636.000000	0.002400  
1635.000000	0.002411  
1634.000000	0.002371  
1633.000000	0.002345  
1632.000000	0.002357  
1631.000000	0.002391  
1630.000000	0.002421  
1629.000000	0.002437  
1628.000000	0.002439  
1627.000000	0.002435  
1626.000000	0.002450  
1625.000000	0.002511  
1624.000000	0.002610  
1623.000000	0.002712  
1622.000000	0.002808  
1621.000000	0.002932  
1620.000000	0.003087  
1619.000000	0.003232  
1618.000000	0.003319  
1617.000000	0.003371  
1616.000000	0.003465  
1615.000000	0.003598  
1614.000000	0.003724  
1613.000000	0.003835  
1612.000000	0.003937  
1611.000000	0.004035  
1610.000000	0.004126  
1609.000000	0.004198  
1608.000000	0.004226  
1607.000000	0.004190  
1606.000000	0.004103  
1605.000000	0.003996  
1604.000000	0.003886  
1603.000000	0.003780  
1602.000000	0.003698  
1601.000000	0.003653  
1600.000000	0.003615  
1599.000000	0.003535  
1598.000000	0.003410  
1597.000000	0.003294  
1596.000000	0.003240  
1595.000000	0.003251  
1594.000000	0.003293  
1593.000000	0.003337  
1592.000000	0.003371  
1591.000000	0.003399  
1590.000000	0.003424  
1589.000000	0.003441  
1588.000000	0.003431  
1587.000000	0.003384  
1586.000000	0.003318  
1585.000000	0.003256  
1584.000000	0.003205  
1583.000000	0.003161  
1582.000000	0.003136  
1581.000000	0.003151  
1580.000000	0.003217  
1579.000000	0.003316  
1578.000000	0.003391  
1577.000000	0.003351  
1576.000000	0.003180  
1575.000000	0.003019  
1574.000000	0.003002  
1573.000000	0.003129  
1572.000000	0.003295  
1571.000000	0.003367  
1570.000000	0.003293  
1569.000000	0.003172  
1568.000000	0.003112  
1567.000000	0.003087  
1566.000000	0.003024  
1565.000000	0.002911  
1564.000000	0.002777  
1563.000000	0.002667  
1562.000000	0.002595  
1561.000000	0.002535  
1560.000000	0.002529  
1559.000000	0.002541  
1558.000000	0.002540  
1557.000000	0.002686  
1556.000000	0.002940  
1555.000000	0.003178  
1554.000000	0.003355  
1553.000000	0.003399  
1552.000000	0.003299  
1551.000000	0.003092  
1550.000000	0.002900  
1549.000000	0.002827  
1548.000000	0.002866  
1547.000000	0.002945  
1546.000000	0.003040  
1545.000000	0.003142  
1544.000000	0.003200  
1543.000000	0.003194  
1542.000000	0.003222  
1541.000000	0.003356  
1540.000000	0.003482  
1539.000000	0.003525  
1538.000000	0.003578  
1537.000000	0.003662  
1536.000000	0.003730  
1535.000000	0.003734  
1534.000000	0.003660  
1533.000000	0.003571  
1532.000000	0.003523  
1531.000000	0.003507  
1530.000000	0.003479  
1529.000000	0.003435  
1528.000000	0.003410  
1527.000000	0.003467  
1526.000000	0.003663  
1525.000000	0.003951  
1524.000000	0.004194  
1523.000000	0.004313  
1522.000000	0.004365  
1521.000000	0.004449  
1520.000000	0.004543  
1519.000000	0.004577  
1518.000000	0.004576  
1517.000000	0.004608  
1516.000000	0.004687  
1515.000000	0.004816  
1514.000000	0.005023  
1513.000000	0.005302  
1512.000000	0.005563  
1511.000000	0.005717  
1510.000000	0.005798  
1509.000000	0.005941  
1508.000000	0.006260  
1507.000000	0.006714  
1506.000000	0.007165  
1505.000000	0.007492  
1504.000000	0.007603  
1503.000000	0.007562  
1502.000000	0.007530  
1501.000000	0.007565  
1500.000000	0.007619  
1499.000000	0.007677  
1498.000000	0.007912  
1497.000000	0.008441  
1496.000000	0.008997  
1495.000000	0.009281  
1494.000000	0.009374  
1493.000000	0.009458  
1492.000000	0.009525  
1491.000000	0.009518  
1490.000000	0.009569  
1489.000000	0.009827  
1488.000000	0.010197  
1487.000000	0.010547  
1486.000000	0.010927  
1485.000000	0.011413  
1484.000000	0.011975  
1483.000000	0.012593  
1482.000000	0.013361  
1481.000000	0.014323  
1480.000000	0.015362  
1479.000000	0.016435  
1478.000000	0.017741  
1477.000000	0.019459  
1476.000000	0.021490  
1475.000000	0.023855  
1474.000000	0.027282  
1473.000000	0.032659  
1472.000000	0.039514  
1471.000000	0.046449  
1470.000000	0.052913  
1469.000000	0.058931  
1468.000000	0.064297  
1467.000000	0.068815  
1466.000000	0.072629  
1465.000000	0.075919  
1464.000000	0.078504  
1463.000000	0.080307  
1462.000000	0.081642  
1461.000000	0.082812  
1460.000000	0.083923  
1459.000000	0.085030  
1458.000000	0.086057  
1457.000000	0.086274  
1456.000000	0.085066  
1455.000000	0.082972  
1454.000000	0.080602  
1453.000000	0.077995  
1452.000000	0.075162  
1451.000000	0.072343  
1450.000000	0.069724  
1449.000000	0.067109  
1448.000000	0.064239  
1447.000000	0.061183  
1446.000000	0.058098  
1445.000000	0.054891  
1444.000000	0.051423  
1443.000000	0.047775  
1442.000000	0.044187  
1441.000000	0.040885  
1440.000000	0.037945  
1439.000000	0.035217  
1438.000000	0.032355  
1437.000000	0.029225  
1436.000000	0.026352  
1435.000000	0.024217  
1434.000000	0.022546  
1433.000000	0.020869  
1432.000000	0.019069  
1431.000000	0.017306  
1430.000000	0.015740  
1429.000000	0.014433  
1428.000000	0.013452  
1427.000000	0.012781  
1426.000000	0.012243  
1425.000000	0.011661  
1424.000000	0.011061  
1423.000000	0.010580  
1422.000000	0.010208  
1421.000000	0.009809  
1420.000000	0.009347  
1419.000000	0.008944  
1418.000000	0.008677  
1417.000000	0.008514  
1416.000000	0.008438  
1415.000000	0.008436  
1414.000000	0.008435  
1413.000000	0.008354  
1412.000000	0.008193  
1411.000000	0.008003  
1410.000000	0.007810  
1409.000000	0.007641  
1408.000000	0.007543  
1407.000000	0.007530  
1406.000000	0.007531  
1405.000000	0.007491  
1404.000000	0.007474  
1403.000000	0.007545  
1402.000000	0.007637  
1401.000000	0.007658  
1400.000000	0.007644  
1399.000000	0.007692  
1398.000000	0.007811  
1397.000000	0.007958  
1396.000000	0.008155  
1395.000000	0.008442  
1394.000000	0.008800  
1393.000000	0.009215  
1392.000000	0.009743  
1391.000000	0.010459  
1390.000000	0.011426  
1389.000000	0.012803  
1388.000000	0.014842  
1387.000000	0.017566  
1386.000000	0.020603  
1385.000000	0.023627  
1384.000000	0.026696  
1383.000000	0.030077  
1382.000000	0.033970  
1381.000000	0.038365  
1380.000000	0.042889  
1379.000000	0.046720  
1378.000000	0.048953  
1377.000000	0.049172  
1376.000000	0.047473  
1375.000000	0.044179  
1374.000000	0.039924  
1373.000000	0.035662  
1372.000000	0.032118  
1371.000000	0.029482  
1370.000000	0.027700  
1369.000000	0.026683  
1368.000000	0.026211  
1367.000000	0.025862  
1366.000000	0.025194  
1365.000000	0.023943  
1364.000000	0.022101  
1363.000000	0.019939  
1362.000000	0.017925  
1361.000000	0.016410  
1360.000000	0.015418  
1359.000000	0.014772  
1358.000000	0.014298  
1357.000000	0.013913  
1356.000000	0.013623  
1355.000000	0.013443  
1354.000000	0.013349  
1353.000000	0.013286  
1352.000000	0.013222  
1351.000000	0.013152  
1350.000000	0.013070  
1349.000000	0.012962  
1348.000000	0.012821  
1347.000000	0.012650  
1346.000000	0.012469  
1345.000000	0.012334  
1344.000000	0.012296  
1343.000000	0.012333  
1342.000000	0.012361  
1341.000000	0.012306  
1340.000000	0.012164  
1339.000000	0.011969  
1338.000000	0.011734  
1337.000000	0.011471  
1336.000000	0.011201  
1335.000000	0.010943  
1334.000000	0.010686  
1333.000000	0.010419  
1332.000000	0.010168  
1331.000000	0.009964  
1330.000000	0.009792  
1329.000000	0.009618  
1328.000000	0.009439  
1327.000000	0.009280  
1326.000000	0.009148  
1325.000000	0.009040  
1324.000000	0.008967  
1323.000000	0.008942  
1322.000000	0.008940  
1321.000000	0.008931  
1320.000000	0.008918  
1319.000000	0.008923  
1318.000000	0.008948  
1317.000000	0.008970  
1316.000000	0.008992  
1315.000000	0.009049  
1314.000000	0.009159  
1313.000000	0.009306  
1312.000000	0.009462  
1311.000000	0.009608  
1310.000000	0.009738  
1309.000000	0.009857  
1308.000000	0.009979  
1307.000000	0.010111  
1306.000000	0.010232  
1305.000000	0.010301  
1304.000000	0.010292  
1303.000000	0.010208  
1302.000000	0.010083  
1301.000000	0.009966  
1300.000000	0.009895  
1299.000000	0.009857  
1298.000000	0.009804  
1297.000000	0.009703  
1296.000000	0.009571  
1295.000000	0.009433  
1294.000000	0.009277  
1293.000000	0.009084  
1292.000000	0.008882  
1291.000000	0.008726  
1290.000000	0.008643  
1289.000000	0.008611  
1288.000000	0.008591  
1287.000000	0.008566  
1286.000000	0.008534  
1285.000000	0.008490  
1284.000000	0.008428  
1283.000000	0.008351  
1282.000000	0.008272  
1281.000000	0.008215  
1280.000000	0.008191  
1279.000000	0.008192  
1278.000000	0.008191  
1277.000000	0.008179  
1276.000000	0.008166  
1275.000000	0.008159  
1274.000000	0.008150  
1273.000000	0.008137  
1272.000000	0.008137  
1271.000000	0.008164  
1270.000000	0.008202  
1269.000000	0.008227  
1268.000000	0.008222  
1267.000000	0.008176  
1266.000000	0.008071  
1265.000000	0.007909  
1264.000000	0.007733  
1263.000000	0.007602  
1262.000000	0.007550  
1261.000000	0.007568  
1260.000000	0.007614  
1259.000000	0.007640  
1258.000000	0.007618  
1257.000000	0.007554  
1256.000000	0.007472  
1255.000000	0.007387  
1254.000000	0.007309  
1253.000000	0.007271  
1252.000000	0.007300  
1251.000000	0.007358  
1250.000000	0.007354  
1249.000000	0.007250  
1248.000000	0.007123  
1247.000000	0.007077  
1246.000000	0.007125  
1245.000000	0.007189  
1244.000000	0.007195  
1243.000000	0.007128  
1242.000000	0.007013  
1241.000000	0.006893  
1240.000000	0.006809  
1239.000000	0.006774  
1238.000000	0.006753  
1237.000000	0.006705  
1236.000000	0.006638  
1235.000000	0.006589  
1234.000000	0.006562  
1233.000000	0.006521  
1232.000000	0.006440  
1231.000000	0.006333  
1230.000000	0.006228  
1229.000000	0.006137  
1228.000000	0.006079  
1227.000000	0.006076  
1226.000000	0.006116  
1225.000000	0.006150  
1224.000000	0.006144  
1223.000000	0.006115  
1222.000000	0.006098  
1221.000000	0.006084  
1220.000000	0.006036  
1219.000000	0.005957  
1218.000000	0.005911  
1217.000000	0.005957  
1216.000000	0.006082  
1215.000000	0.006200  
1214.000000	0.006224  
1213.000000	0.006140  
1212.000000	0.006017  
1211.000000	0.005948  
1210.000000	0.005975  
1209.000000	0.006048  
1208.000000	0.006079  
1207.000000	0.006035  
1206.000000	0.005970  
1205.000000	0.005951  
1204.000000	0.005966  
1203.000000	0.005942  
1202.000000	0.005856  
1201.000000	0.005772  
1200.000000	0.005761  
1199.000000	0.005822  
1198.000000	0.005904  
1197.000000	0.005977  
1196.000000	0.006047  
1195.000000	0.006119  
1194.000000	0.006198  
1193.000000	0.006291  
1192.000000	0.006381  
1191.000000	0.006412  
1190.000000	0.006339  
1189.000000	0.006206  
1188.000000	0.006105  
1187.000000	0.006086  
1186.000000	0.006121  
1185.000000	0.006183  
1184.000000	0.006284  
1183.000000	0.006430  
1182.000000	0.006586  
1181.000000	0.006708  
1180.000000	0.006775  
1179.000000	0.006790  
1178.000000	0.006781  
1177.000000	0.006811  
1176.000000	0.006946  
1175.000000	0.007178  
1174.000000	0.007430  
1173.000000	0.007646  
1172.000000	0.007840  
1171.000000	0.008025  
1170.000000	0.008168  
1169.000000	0.008229  
1168.000000	0.008212  
1167.000000	0.008146  
1166.000000	0.008055  
1165.000000	0.007961  
1164.000000	0.007884  
1163.000000	0.007828  
1162.000000	0.007783  
1161.000000	0.007776  
1160.000000	0.007860  
1159.000000	0.008038  
1158.000000	0.008220  
1157.000000	0.008312  
1156.000000	0.008281  
1155.000000	0.008142  
1154.000000	0.007909  
1153.000000	0.007629  
1152.000000	0.007397  
1151.000000	0.007294  
1150.000000	0.007314  
1149.000000	0.007395  
1148.000000	0.007492  
1147.000000	0.007574  
1146.000000	0.007587  
1145.000000	0.007482  
1144.000000	0.007277  
1143.000000	0.007050  
1142.000000	0.006870  
1141.000000	0.006755  
1140.000000	0.006675  
1139.000000	0.006598  
1138.000000	0.006522  
1137.000000	0.006498  
1136.000000	0.006566  
1135.000000	0.006671  
1134.000000	0.006686  
1133.000000	0.006551  
1132.000000	0.006348  
1131.000000	0.006191  
1130.000000	0.006107  
1129.000000	0.006067  
1128.000000	0.006081  
1127.000000	0.006173  
1126.000000	0.006298  
1125.000000	0.006365  
1124.000000	0.006341  
1123.000000	0.006270  
1122.000000	0.006199  
1121.000000	0.006139  
1120.000000	0.006102  
1119.000000	0.006105  
1118.000000	0.006135  
1117.000000	0.006160  
1116.000000	0.006183  
1115.000000	0.006226  
1114.000000	0.006272  
1113.000000	0.006273  
1112.000000	0.006223  
1111.000000	0.006154  
1110.000000	0.006072  
1109.000000	0.005949  
1108.000000	0.005815  
1107.000000	0.005769  
1106.000000	0.005863  
1105.000000	0.006017  
1104.000000	0.006086  
1103.000000	0.006011  
1102.000000	0.005871  
1101.000000	0.005800  
1100.000000	0.005875  
1099.000000	0.006058  
1098.000000	0.006239  
1097.000000	0.006346  
1096.000000	0.006406  
1095.000000	0.006483  
1094.000000	0.006581  
1093.000000	0.006644  
1092.000000	0.006643  
1091.000000	0.006602  
1090.000000	0.006534  
1089.000000	0.006411  
1088.000000	0.006223  
1087.000000	0.006032  
1086.000000	0.005924  
1085.000000	0.005927  
1084.000000	0.005987  
1083.000000	0.006027  
1082.000000	0.006007  
1081.000000	0.005954  
1080.000000	0.005947  
1079.000000	0.006052  
1078.000000	0.006265  
1077.000000	0.006517  
1076.000000	0.006747  
1075.000000	0.006932  
1074.000000	0.007068  
1073.000000	0.007136  
1072.000000	0.007121  
1071.000000	0.007045  
1070.000000	0.006958  
1069.000000	0.006902  
1068.000000	0.006872  
1067.000000	0.006832  
1066.000000	0.006761  
1065.000000	0.006697  
1064.000000	0.006701  
1063.000000	0.006777  
1062.000000	0.006842  
1061.000000	0.006819  
1060.000000	0.006730  
1059.000000	0.006675  
1058.000000	0.006711  
1057.000000	0.006805  
1056.000000	0.006916  
1055.000000	0.007049  
1054.000000	0.007192  
1053.000000	0.007244  
1052.000000	0.007089  
1051.000000	0.006752  
1050.000000	0.006433  
1049.000000	0.006322  
1048.000000	0.006424  
1047.000000	0.006592  
1046.000000	0.006690  
1045.000000	0.006706  
1044.000000	0.006714  
1043.000000	0.006792  
1042.000000	0.006954  
1041.000000	0.007143  
1040.000000	0.007275  
1039.000000	0.007288  
1038.000000	0.007188  
1037.000000	0.007046  
1036.000000	0.006958  
1035.000000	0.006986  
1034.000000	0.007138  
1033.000000	0.007366  
1032.000000	0.007585  
1031.000000	0.007710  
1030.000000	0.007710  
1029.000000	0.007629  
1028.000000	0.007548  
1027.000000	0.007507  
1026.000000	0.007492  
1025.000000	0.007469  
1024.000000	0.007421  
1023.000000	0.007352  
1022.000000	0.007287  
1021.000000	0.007256  
1020.000000	0.007264  
1019.000000	0.007267  
1018.000000	0.007222  
1017.000000	0.007153  
1016.000000	0.007140  
1015.000000	0.007222  
1014.000000	0.007344  
1013.000000	0.007418  
1012.000000	0.007413  
1011.000000	0.007360  
1010.000000	0.007304  
1009.000000	0.007284  
1008.000000	0.007325  
1007.000000	0.007413  
1006.000000	0.007487  
1005.000000	0.007493  
1004.000000	0.007441  
1003.000000	0.007397  
1002.000000	0.007409  
1001.000000	0.007455  
1000.000000	0.007452  
999.000000	 0.007319  
998.000000	 0.007058  
997.000000	 0.006785  
996.000000	 0.006658  
995.000000	 0.006741  
994.000000	 0.006948  
993.000000	 0.007125  
992.000000	 0.007182  
991.000000	 0.007143  
990.000000	 0.007095  
989.000000	 0.007120  
988.000000	 0.007240  
987.000000	 0.007395  
986.000000	 0.007486  
985.000000	 0.007480  
984.000000	 0.007452  
983.000000	 0.007504  
982.000000	 0.007650  
981.000000	 0.007813  
980.000000	 0.007930  
979.000000	 0.008006  
978.000000	 0.008081  
977.000000	 0.008178  
976.000000	 0.008294  
975.000000	 0.008408  
974.000000	 0.008492  
973.000000	 0.008547  
972.000000	 0.008607  
971.000000	 0.008715  
970.000000	 0.008860  
969.000000	 0.008991  
968.000000	 0.009063  
967.000000	 0.009068  
966.000000	 0.009013  
965.000000	 0.008906  
964.000000	 0.008780  
963.000000	 0.008683  
962.000000	 0.008653  
961.000000	 0.008681  
960.000000	 0.008722  
959.000000	 0.008721  
958.000000	 0.008654  
957.000000	 0.008549  
956.000000	 0.008473  
955.000000	 0.008462  
954.000000	 0.008487  
953.000000	 0.008492  
952.000000	 0.008465  
951.000000	 0.008443  
950.000000	 0.008446  
949.000000	 0.008450  
948.000000	 0.008441  
947.000000	 0.008451  
946.000000	 0.008529  
945.000000	 0.008679  
944.000000	 0.008851  
943.000000	 0.008983  
942.000000	 0.009043  
941.000000	 0.009032  
940.000000	 0.008965  
939.000000	 0.008842  
938.000000	 0.008655  
937.000000	 0.008423  
936.000000	 0.008203  
935.000000	 0.008045  
934.000000	 0.007967  
933.000000	 0.007965  
932.000000	 0.008040  
931.000000	 0.008159  
930.000000	 0.008235  
929.000000	 0.008195  
928.000000	 0.008079  
927.000000	 0.008024  
926.000000	 0.008109  
925.000000	 0.008273  
924.000000	 0.008394  
923.000000	 0.008433  
922.000000	 0.008430  
921.000000	 0.008413  
920.000000	 0.008353  
919.000000	 0.008231  
918.000000	 0.008103  
917.000000	 0.008065  
916.000000	 0.008151  
915.000000	 0.008283  
914.000000	 0.008330  
913.000000	 0.008225  
912.000000	 0.008014  
911.000000	 0.007815  
910.000000	 0.007737  
909.000000	 0.007815  
908.000000	 0.007989  
907.000000	 0.008137  
906.000000	 0.008154  
905.000000	 0.008044  
904.000000	 0.007929  
903.000000	 0.007938  
902.000000	 0.008081  
901.000000	 0.008270  
900.000000	 0.008427  
899.000000	 0.008546  
898.000000	 0.008656  
897.000000	 0.008762  
896.000000	 0.008850  
895.000000	 0.008908  
894.000000	 0.008920  
893.000000	 0.008881  
892.000000	 0.008825  
891.000000	 0.008819  
890.000000	 0.008886  
889.000000	 0.008966  
888.000000	 0.008979  
887.000000	 0.008908  
886.000000	 0.008805  
885.000000	 0.008708  
884.000000	 0.008600  
883.000000	 0.008458  
882.000000	 0.008318  
881.000000	 0.008258  
880.000000	 0.008322  
879.000000	 0.008471  
878.000000	 0.008608  
877.000000	 0.008648  
876.000000	 0.008582  
875.000000	 0.008464  
874.000000	 0.008344  
873.000000	 0.008209  
872.000000	 0.008005  
871.000000	 0.007750  
870.000000	 0.007585  
869.000000	 0.007677  
868.000000	 0.008031  
867.000000	 0.008438  
866.000000	 0.008640  
865.000000	 0.008552  
864.000000	 0.008291  
863.000000	 0.008022  
862.000000	 0.007829  
861.000000	 0.007743  
860.000000	 0.007806  
859.000000	 0.008014  
858.000000	 0.008248  
857.000000	 0.008350  
856.000000	 0.008305  
855.000000	 0.008277  
854.000000	 0.008426  
853.000000	 0.008748  
852.000000	 0.009120  
851.000000	 0.009444  
850.000000	 0.009696  
849.000000	 0.009843  
848.000000	 0.009830  
847.000000	 0.009668  
846.000000	 0.009469  
845.000000	 0.009342  
844.000000	 0.009276  
843.000000	 0.009172  
842.000000	 0.008980  
841.000000	 0.008753  
840.000000	 0.008587  
839.000000	 0.008532  
838.000000	 0.008581  
837.000000	 0.008674  
836.000000	 0.008695  
835.000000	 0.008524  
834.000000	 0.008146  
833.000000	 0.007714  
832.000000	 0.007435  
831.000000	 0.007398  
830.000000	 0.007522  
829.000000	 0.007689  
828.000000	 0.007878  
827.000000	 0.008125  
826.000000	 0.008419  
825.000000	 0.008664  
824.000000	 0.008769  
823.000000	 0.008732  
822.000000	 0.008648  
821.000000	 0.008661  
820.000000	 0.008870  
819.000000	 0.009270  
818.000000	 0.009772  
817.000000	 0.010264  
816.000000	 0.010650  
815.000000	 0.010846  
814.000000	 0.010803  
813.000000	 0.010562  
812.000000	 0.010271  
811.000000	 0.010102  
810.000000	 0.010160  
809.000000	 0.010460  
808.000000	 0.010937  
807.000000	 0.011451  
806.000000	 0.011817  
805.000000	 0.011896  
804.000000	 0.011668  
803.000000	 0.011231  
802.000000	 0.010719  
801.000000	 0.010238  
800.000000	 0.009830  
799.000000	 0.009476  
798.000000	 0.009152  
797.000000	 0.008884  
796.000000	 0.008723  
795.000000	 0.008655  
794.000000	 0.008586  
793.000000	 0.008451  
792.000000	 0.008316  
791.000000	 0.008296  
790.000000	 0.008400  
789.000000	 0.008527  
788.000000	 0.008599  
787.000000	 0.008646  
786.000000	 0.008753  
785.000000	 0.008967  
784.000000	 0.009274  
783.000000	 0.009634  
782.000000	 0.010027  
781.000000	 0.010449  
780.000000	 0.010882  
779.000000	 0.011272  
778.000000	 0.011559  
777.000000	 0.011753  
776.000000	 0.011951  
775.000000	 0.012240  
774.000000	 0.012595  
773.000000	 0.012923  
772.000000	 0.013177  
771.000000	 0.013397  
770.000000	 0.013626  
769.000000	 0.013855  
768.000000	 0.014036  
767.000000	 0.014114  
766.000000	 0.014019  
765.000000	 0.013686  
764.000000	 0.013154  
763.000000	 0.012602  
762.000000	 0.012236  
761.000000	 0.012115  
760.000000	 0.012128  
759.000000	 0.012139  
758.000000	 0.012142  
757.000000	 0.012246  
756.000000	 0.012512  
755.000000	 0.012857  
754.000000	 0.013112  
753.000000	 0.013189  
752.000000	 0.013141  
751.000000	 0.013080  
750.000000	 0.013071  
749.000000	 0.013132  
748.000000	 0.013318  
747.000000	 0.013753  
746.000000	 0.014580  
745.000000	 0.015864  
744.000000	 0.017502  
743.000000	 0.019203  
742.000000	 0.020561  
741.000000	 0.021255  
740.000000	 0.021232  
739.000000	 0.020714  
738.000000	 0.020005  
737.000000	 0.019304  
736.000000	 0.018675  
735.000000	 0.018132  
734.000000	 0.017708  
733.000000	 0.017458  
732.000000	 0.017408  
731.000000	 0.017533  
730.000000	 0.017798  
729.000000	 0.018234  
728.000000	 0.018926  
727.000000	 0.019901  
726.000000	 0.021043  
725.000000	 0.022147  
724.000000	 0.023067  
723.000000	 0.023752  
722.000000	 0.024116  
721.000000	 0.023921  
720.000000	 0.022909  
719.000000	 0.021109  
718.000000	 0.018919  
717.000000	 0.016861  
716.000000	 0.015295  
715.000000	 0.014263  
714.000000	 0.013528  
713.000000	 0.012805  
712.000000	 0.012011  
711.000000	 0.011287  
710.000000	 0.010797  
709.000000	 0.010551  
708.000000	 0.010440  
707.000000	 0.010397  
706.000000	 0.010482  
705.000000	 0.010786  
704.000000	 0.011265  
703.000000	 0.011720  
702.000000	 0.011980  
701.000000	 0.012080  
700.000000	 0.012199  
699.000000	 0.012374  
698.000000	 0.012355  
697.000000	 0.011835  
696.000000	 0.010850  
695.000000	 0.009846  
694.000000	 0.009260  
693.000000	 0.009065  
692.000000	 0.008826  
691.000000	 0.008193  
690.000000	 0.007269  
689.000000	 0.006432  
688.000000	 0.005871  
687.000000	 0.005426  
686.000000	 0.004919  
685.000000	 0.004426  
684.000000	 0.004138  
683.000000	 0.004114  
682.000000	 0.004291  
681.000000	 0.004590  
680.000000	 0.004889  
679.000000	 0.004994  
678.000000	 0.004834  
677.000000	 0.004624  
676.000000	 0.004593  
675.000000	 0.004664  
674.000000	 0.004637  
673.000000	 0.004501  
672.000000	 0.004216  
671.000000	 0.003313  
670.000000	 0.001206  
669.000000	 -0.002131 
668.000000	 -0.005017 
667.000000	 -0.004623 
666.000000	 -0.001703 
665.000000	 0.000993  
664.000000	 0.002718  
663.000000	 0.003931  
662.000000	 0.004840  
661.000000	 0.005230  
660.000000	 0.005169  
659.000000	 0.005138  
658.000000	 0.005288  
657.000000	 0.005143  
656.000000	 0.004256  
655.000000	 0.002917  
654.000000	 0.001928  
653.000000	 0.001769  
652.000000	 0.002242  
651.000000	 0.002854  
650.000000	 0.003319  

