PE IR                   SPECTRUM    ASCII       PEDS        1.60        
  -1
NB4-10~1.ASC
17/04/10
13:23:58.00
17/04/10
13:23:58.00
Admin

650.000000
6









SPECTRUM ONE,CPU32 MAIN 00.02.5000 17-APRIL-2002 13:00:00
MIR TGS
MIR
OPTKBR
68128
0.200000

4.000000
STRONG
RATIO
SPECTRUM
MAGNITUDE

DOUBLE

COMBINED


0


#HDR
-1
-1
#GR
CM-1
A
0.00000011920928955078
0.0
4000.000000
-1.000000
3351
8
0.213240
-0.007712
#DATA
4000.000000	0.000883  
3999.000000	0.000938  
3998.000000	0.001064  
3997.000000	0.001245  
3996.000000	0.001435  
3995.000000	0.001579  
3994.000000	0.001636  
3993.000000	0.001599  
3992.000000	0.001494  
3991.000000	0.001360  
3990.000000	0.001231  
3989.000000	0.001112  
3988.000000	0.000995  
3987.000000	0.000886  
3986.000000	0.000823  
3985.000000	0.000849  
3984.000000	0.000947  
3983.000000	0.001034  
3982.000000	0.001030  
3981.000000	0.000939  
3980.000000	0.000845  
3979.000000	0.000833  
3978.000000	0.000911  
3977.000000	0.001025  
3976.000000	0.001126  
3975.000000	0.001199  
3974.000000	0.001243  
3973.000000	0.001239  
3972.000000	0.001178  
3971.000000	0.001091  
3970.000000	0.001036  
3969.000000	0.001042  
3968.000000	0.001070  
3967.000000	0.001062  
3966.000000	0.001010  
3965.000000	0.000981  
3964.000000	0.001047  
3963.000000	0.001212  
3962.000000	0.001402  
3961.000000	0.001530  
3960.000000	0.001556  
3959.000000	0.001490  
3958.000000	0.001362  
3957.000000	0.001208  
3956.000000	0.001063  
3955.000000	0.000952  
3954.000000	0.000888  
3953.000000	0.000868  
3952.000000	0.000882  
3951.000000	0.000911  
3950.000000	0.000942  
3949.000000	0.000976  
3948.000000	0.001030  
3947.000000	0.001107  
3946.000000	0.001177  
3945.000000	0.001184  
3944.000000	0.001091  
3943.000000	0.000931  
3942.000000	0.000788  
3941.000000	0.000733  
3940.000000	0.000784  
3939.000000	0.000919  
3938.000000	0.001091  
3937.000000	0.001245  
3936.000000	0.001324  
3935.000000	0.001304  
3934.000000	0.001209  
3933.000000	0.001108  
3932.000000	0.001059  
3931.000000	0.001063  
3930.000000	0.001076  
3929.000000	0.001070  
3928.000000	0.001060  
3927.000000	0.001080  
3926.000000	0.001138  
3925.000000	0.001210  
3924.000000	0.001276  
3923.000000	0.001340  
3922.000000	0.001414  
3921.000000	0.001497  
3920.000000	0.001564  
3919.000000	0.001589  
3918.000000	0.001564  
3917.000000	0.001502  
3916.000000	0.001437  
3915.000000	0.001393  
3914.000000	0.001366  
3913.000000	0.001325  
3912.000000	0.001242  
3911.000000	0.001125  
3910.000000	0.001023  
3909.000000	0.000993  
3908.000000	0.001052  
3907.000000	0.001167  
3906.000000	0.001274  
3905.000000	0.001323  
3904.000000	0.001313  
3903.000000	0.001258  
3902.000000	0.001171  
3901.000000	0.001095  
3900.000000	0.001099  
3899.000000	0.001209  
3898.000000	0.001353  
3897.000000	0.001416  
3896.000000	0.001341  
3895.000000	0.001166  
3894.000000	0.000992  
3893.000000	0.000913  
3892.000000	0.000957  
3891.000000	0.001066  
3890.000000	0.001159  
3889.000000	0.001235  
3888.000000	0.001333  
3887.000000	0.001433  
3886.000000	0.001462  
3885.000000	0.001388  
3884.000000	0.001256  
3883.000000	0.001117  
3882.000000	0.000988  
3881.000000	0.000869  
3880.000000	0.000785  
3879.000000	0.000765  
3878.000000	0.000826  
3877.000000	0.000975  
3876.000000	0.001170  
3875.000000	0.001333  
3874.000000	0.001444  
3873.000000	0.001555  
3872.000000	0.001694  
3871.000000	0.001807  
3870.000000	0.001830  
3869.000000	0.001773  
3868.000000	0.001708  
3867.000000	0.001687  
3866.000000	0.001675  
3865.000000	0.001589  
3864.000000	0.001426  
3863.000000	0.001272  
3862.000000	0.001182  
3861.000000	0.001117  
3860.000000	0.001012  
3859.000000	0.000858  
3858.000000	0.000714  
3857.000000	0.000660  
3856.000000	0.000708  
3855.000000	0.000746  
3854.000000	0.000720  
3853.000000	0.000768  
3852.000000	0.000917  
3851.000000	0.001068  
3850.000000	0.001208  
3849.000000	0.001358  
3848.000000	0.001525  
3847.000000	0.001690  
3846.000000	0.001830  
3845.000000	0.001938  
3844.000000	0.002015  
3843.000000	0.002051  
3842.000000	0.002034  
3841.000000	0.001971  
3840.000000	0.001874  
3839.000000	0.001743  
3838.000000	0.001570  
3837.000000	0.001382  
3836.000000	0.001268  
3835.000000	0.001321  
3834.000000	0.001548  
3833.000000	0.001829  
3832.000000	0.002006  
3831.000000	0.002008  
3830.000000	0.001889  
3829.000000	0.001741  
3828.000000	0.001601  
3827.000000	0.001456  
3826.000000	0.001331  
3825.000000	0.001332  
3824.000000	0.001565  
3823.000000	0.001981  
3822.000000	0.002339  
3821.000000	0.002422  
3820.000000	0.002229  
3819.000000	0.001905  
3818.000000	0.001620  
3817.000000	0.001463  
3816.000000	0.001416  
3815.000000	0.001414  
3814.000000	0.001405  
3813.000000	0.001375  
3812.000000	0.001313  
3811.000000	0.001210  
3810.000000	0.001078  
3809.000000	0.000955  
3808.000000	0.000891  
3807.000000	0.000933  
3806.000000	0.001090  
3805.000000	0.001332  
3804.000000	0.001584  
3803.000000	0.001701  
3802.000000	0.001577  
3801.000000	0.001303  
3800.000000	0.001055  
3799.000000	0.000936  
3798.000000	0.000975  
3797.000000	0.001139  
3796.000000	0.001352  
3795.000000	0.001539  
3794.000000	0.001647  
3793.000000	0.001664  
3792.000000	0.001600  
3791.000000	0.001480  
3790.000000	0.001343  
3789.000000	0.001232  
3788.000000	0.001177  
3787.000000	0.001178  
3786.000000	0.001201  
3785.000000	0.001203  
3784.000000	0.001164  
3783.000000	0.001099  
3782.000000	0.001037  
3781.000000	0.000996  
3780.000000	0.000994  
3779.000000	0.001057  
3778.000000	0.001185  
3777.000000	0.001337  
3776.000000	0.001456  
3775.000000	0.001494  
3774.000000	0.001438  
3773.000000	0.001325  
3772.000000	0.001223  
3771.000000	0.001198  
3770.000000	0.001290  
3769.000000	0.001462  
3768.000000	0.001597  
3767.000000	0.001587  
3766.000000	0.001416  
3765.000000	0.001183  
3764.000000	0.001031  
3763.000000	0.001035  
3762.000000	0.001155  
3761.000000	0.001273  
3760.000000	0.001319  
3759.000000	0.001335  
3758.000000	0.001376  
3757.000000	0.001406  
3756.000000	0.001375  
3755.000000	0.001336  
3754.000000	0.001462  
3753.000000	0.001909  
3752.000000	0.002577  
3751.000000	0.003054  
3750.000000	0.002979  
3749.000000	0.002428  
3748.000000	0.001808  
3747.000000	0.001510  
3746.000000	0.001659  
3745.000000	0.002043  
3744.000000	0.002308  
3743.000000	0.002302  
3742.000000	0.002160  
3741.000000	0.002077  
3740.000000	0.002162  
3739.000000	0.002420  
3738.000000	0.002733  
3737.000000	0.002883  
3736.000000	0.002744  
3735.000000	0.002468  
3734.000000	0.002314  
3733.000000	0.002339  
3732.000000	0.002393  
3731.000000	0.002344  
3730.000000	0.002222  
3729.000000	0.002136  
3728.000000	0.002136  
3727.000000	0.002181  
3726.000000	0.002208  
3725.000000	0.002188  
3724.000000	0.002104  
3723.000000	0.001935  
3722.000000	0.001676  
3721.000000	0.001370  
3720.000000	0.001101  
3719.000000	0.000947  
3718.000000	0.000920  
3717.000000	0.000956  
3716.000000	0.000967  
3715.000000	0.000900  
3714.000000	0.000762  
3713.000000	0.000642  
3712.000000	0.000672  
3711.000000	0.000897  
3710.000000	0.001185  
3709.000000	0.001388  
3708.000000	0.001501  
3707.000000	0.001615  
3706.000000	0.001783  
3705.000000	0.001931  
3704.000000	0.001909  
3703.000000	0.001635  
3702.000000	0.001226  
3701.000000	0.000917  
3700.000000	0.000832  
3699.000000	0.000922  
3698.000000	0.001058  
3697.000000	0.001132  
3696.000000	0.001140  
3695.000000	0.001151  
3694.000000	0.001213  
3693.000000	0.001280  
3692.000000	0.001247  
3691.000000	0.001085  
3690.000000	0.000921  
3689.000000	0.000911  
3688.000000	0.001012  
3687.000000	0.001068  
3686.000000	0.001049  
3685.000000	0.001047  
3684.000000	0.001158  
3683.000000	0.001369  
3682.000000	0.001538  
3681.000000	0.001491  
3680.000000	0.001194  
3679.000000	0.000832  
3678.000000	0.000675  
3677.000000	0.000836  
3676.000000	0.001167  
3675.000000	0.001431  
3674.000000	0.001531  
3673.000000	0.001580  
3672.000000	0.001743  
3671.000000	0.001997  
3670.000000	0.002182  
3669.000000	0.002212  
3668.000000	0.002107  
3667.000000	0.001949  
3666.000000	0.001800  
3665.000000	0.001637  
3664.000000	0.001386  
3663.000000	0.001009  
3662.000000	0.000556  
3661.000000	0.000140  
3660.000000	-0.000125 
3659.000000	-0.000161 
3658.000000	0.000053  
3657.000000	0.000462  
3656.000000	0.000924  
3655.000000	0.001298  
3654.000000	0.001535  
3653.000000	0.001660  
3652.000000	0.001670  
3651.000000	0.001530  
3650.000000	0.001286  
3649.000000	0.001099  
3648.000000	0.001071  
3647.000000	0.001168  
3646.000000	0.001313  
3645.000000	0.001453  
3644.000000	0.001580  
3643.000000	0.001711  
3642.000000	0.001867  
3641.000000	0.002034  
3640.000000	0.002141  
3639.000000	0.002109  
3638.000000	0.001937  
3637.000000	0.001727  
3636.000000	0.001618  
3635.000000	0.001659  
3634.000000	0.001773  
3633.000000	0.001836  
3632.000000	0.001786  
3631.000000	0.001649  
3630.000000	0.001515  
3629.000000	0.001512  
3628.000000	0.001632  
3627.000000	0.001705  
3626.000000	0.001667  
3625.000000	0.001599  
3624.000000	0.001583  
3623.000000	0.001627  
3622.000000	0.001672  
3621.000000	0.001624  
3620.000000	0.001447  
3619.000000	0.001226  
3618.000000	0.001055  
3617.000000	0.000947  
3616.000000	0.000879  
3615.000000	0.000854  
3614.000000	0.000906  
3613.000000	0.001066  
3612.000000	0.001309  
3611.000000	0.001563  
3610.000000	0.001751  
3609.000000	0.001814  
3608.000000	0.001736  
3607.000000	0.001547  
3606.000000	0.001295  
3605.000000	0.001046  
3604.000000	0.000877  
3603.000000	0.000849  
3602.000000	0.000994  
3601.000000	0.001287  
3600.000000	0.001662  
3599.000000	0.002011  
3598.000000	0.002211  
3597.000000	0.002174  
3596.000000	0.001933  
3595.000000	0.001651  
3594.000000	0.001503  
3593.000000	0.001517  
3592.000000	0.001578  
3591.000000	0.001574  
3590.000000	0.001500  
3589.000000	0.001455  
3588.000000	0.001550  
3587.000000	0.001781  
3586.000000	0.002000  
3585.000000	0.002071  
3584.000000	0.001974  
3583.000000	0.001768  
3582.000000	0.001549  
3581.000000	0.001418  
3580.000000	0.001431  
3579.000000	0.001528  
3578.000000	0.001571  
3577.000000	0.001479  
3576.000000	0.001313  
3575.000000	0.001204  
3574.000000	0.001191  
3573.000000	0.001190  
3572.000000	0.001117  
3571.000000	0.001007  
3570.000000	0.000971  
3569.000000	0.001057  
3568.000000	0.001173  
3567.000000	0.001206  
3566.000000	0.001165  
3565.000000	0.001138  
3564.000000	0.001177  
3563.000000	0.001258  
3562.000000	0.001330  
3561.000000	0.001379  
3560.000000	0.001448  
3559.000000	0.001564  
3558.000000	0.001680  
3557.000000	0.001691  
3556.000000	0.001529  
3555.000000	0.001227  
3554.000000	0.000907  
3553.000000	0.000707  
3552.000000	0.000700  
3551.000000	0.000854  
3550.000000	0.001069  
3549.000000	0.001238  
3548.000000	0.001297  
3547.000000	0.001261  
3546.000000	0.001217  
3545.000000	0.001241  
3544.000000	0.001329  
3543.000000	0.001420  
3542.000000	0.001477  
3541.000000	0.001510  
3540.000000	0.001525  
3539.000000	0.001492  
3538.000000	0.001360  
3537.000000	0.001136  
3536.000000	0.000917  
3535.000000	0.000826  
3534.000000	0.000908  
3533.000000	0.001109  
3532.000000	0.001326  
3531.000000	0.001485  
3530.000000	0.001570  
3529.000000	0.001606  
3528.000000	0.001619  
3527.000000	0.001616  
3526.000000	0.001574  
3525.000000	0.001461  
3524.000000	0.001283  
3523.000000	0.001116  
3522.000000	0.001058  
3521.000000	0.001138  
3520.000000	0.001297  
3519.000000	0.001455  
3518.000000	0.001575  
3517.000000	0.001667  
3516.000000	0.001743  
3515.000000	0.001801  
3514.000000	0.001854  
3513.000000	0.001915  
3512.000000	0.001975  
3511.000000	0.001998  
3510.000000	0.001955  
3509.000000	0.001859  
3508.000000	0.001745  
3507.000000	0.001636  
3506.000000	0.001549  
3505.000000	0.001497  
3504.000000	0.001488  
3503.000000	0.001520  
3502.000000	0.001576  
3501.000000	0.001639  
3500.000000	0.001701  
3499.000000	0.001768  
3498.000000	0.001846  
3497.000000	0.001921  
3496.000000	0.001954  
3495.000000	0.001926  
3494.000000	0.001862  
3493.000000	0.001793  
3492.000000	0.001710  
3491.000000	0.001578  
3490.000000	0.001412  
3489.000000	0.001297  
3488.000000	0.001316  
3487.000000	0.001473  
3486.000000	0.001699  
3485.000000	0.001904  
3484.000000	0.002005  
3483.000000	0.001951  
3482.000000	0.001775  
3481.000000	0.001586  
3480.000000	0.001502  
3479.000000	0.001552  
3478.000000	0.001670  
3477.000000	0.001768  
3476.000000	0.001795  
3475.000000	0.001767  
3474.000000	0.001740  
3473.000000	0.001754  
3472.000000	0.001786  
3471.000000	0.001764  
3470.000000	0.001643  
3469.000000	0.001458  
3468.000000	0.001295  
3467.000000	0.001226  
3466.000000	0.001266  
3465.000000	0.001372  
3464.000000	0.001462  
3463.000000	0.001457  
3462.000000	0.001355  
3461.000000	0.001241  
3460.000000	0.001208  
3459.000000	0.001263  
3458.000000	0.001342  
3457.000000	0.001405  
3456.000000	0.001462  
3455.000000	0.001522  
3454.000000	0.001568  
3453.000000	0.001586  
3452.000000	0.001592  
3451.000000	0.001598  
3450.000000	0.001595  
3449.000000	0.001577  
3448.000000	0.001569  
3447.000000	0.001600  
3446.000000	0.001665  
3445.000000	0.001737  
3444.000000	0.001799  
3443.000000	0.001839  
3442.000000	0.001852  
3441.000000	0.001858  
3440.000000	0.001917  
3439.000000	0.002067  
3438.000000	0.002248  
3437.000000	0.002319  
3436.000000	0.002176  
3435.000000	0.001860  
3434.000000	0.001543  
3433.000000	0.001391  
3432.000000	0.001446  
3431.000000	0.001612  
3430.000000	0.001751  
3429.000000	0.001780  
3428.000000	0.001686  
3427.000000	0.001505  
3426.000000	0.001299  
3425.000000	0.001148  
3424.000000	0.001117  
3423.000000	0.001200  
3422.000000	0.001337  
3421.000000	0.001476  
3420.000000	0.001599  
3419.000000	0.001701  
3418.000000	0.001770  
3417.000000	0.001812  
3416.000000	0.001852  
3415.000000	0.001893  
3414.000000	0.001901  
3413.000000	0.001865  
3412.000000	0.001842  
3411.000000	0.001897  
3410.000000	0.002008  
3409.000000	0.002061  
3408.000000	0.001959  
3407.000000	0.001719  
3406.000000	0.001468  
3405.000000	0.001338  
3404.000000	0.001382  
3403.000000	0.001551  
3402.000000	0.001754  
3401.000000	0.001923  
3400.000000	0.002024  
3399.000000	0.002041  
3398.000000	0.001978  
3397.000000	0.001897  
3396.000000	0.001905  
3395.000000	0.002077  
3394.000000	0.002370  
3393.000000	0.002642  
3392.000000	0.002764  
3391.000000	0.002707  
3390.000000	0.002552  
3389.000000	0.002399  
3388.000000	0.002291  
3387.000000	0.002185  
3386.000000	0.002033  
3385.000000	0.001868  
3384.000000	0.001802  
3383.000000	0.001906  
3382.000000	0.002122  
3381.000000	0.002323  
3380.000000	0.002436  
3379.000000	0.002455  
3378.000000	0.002377  
3377.000000	0.002173  
3376.000000	0.001872  
3375.000000	0.001602  
3374.000000	0.001504  
3373.000000	0.001600  
3372.000000	0.001784  
3371.000000	0.001940  
3370.000000	0.002056  
3369.000000	0.002188  
3368.000000	0.002353  
3367.000000	0.002481  
3366.000000	0.002491  
3365.000000	0.002382  
3364.000000	0.002228  
3363.000000	0.002092  
3362.000000	0.001987  
3361.000000	0.001919  
3360.000000	0.001916  
3359.000000	0.001990  
3358.000000	0.002096  
3357.000000	0.002168  
3356.000000	0.002181  
3355.000000	0.002164  
3354.000000	0.002140  
3353.000000	0.002111  
3352.000000	0.002077  
3351.000000	0.002048  
3350.000000	0.002027  
3349.000000	0.002000  
3348.000000	0.001974  
3347.000000	0.001988  
3346.000000	0.002066  
3345.000000	0.002171  
3344.000000	0.002240  
3343.000000	0.002247  
3342.000000	0.002231  
3341.000000	0.002237  
3340.000000	0.002250  
3339.000000	0.002212  
3338.000000	0.002101  
3337.000000	0.001986  
3336.000000	0.001972  
3335.000000	0.002084  
3334.000000	0.002237  
3333.000000	0.002325  
3332.000000	0.002319  
3331.000000	0.002265  
3330.000000	0.002217  
3329.000000	0.002199  
3328.000000	0.002215  
3327.000000	0.002252  
3326.000000	0.002269  
3325.000000	0.002230  
3324.000000	0.002154  
3323.000000	0.002107  
3322.000000	0.002127  
3321.000000	0.002180  
3320.000000	0.002210  
3319.000000	0.002213  
3318.000000	0.002233  
3317.000000	0.002285  
3316.000000	0.002315  
3315.000000	0.002257  
3314.000000	0.002104  
3313.000000	0.001931  
3312.000000	0.001841  
3311.000000	0.001881  
3310.000000	0.002015  
3309.000000	0.002144  
3308.000000	0.002167  
3307.000000	0.002058  
3306.000000	0.001895  
3305.000000	0.001812  
3304.000000	0.001887  
3303.000000	0.002067  
3302.000000	0.002224  
3301.000000	0.002295  
3300.000000	0.002314  
3299.000000	0.002325  
3298.000000	0.002298  
3297.000000	0.002193  
3296.000000	0.002050  
3295.000000	0.001961  
3294.000000	0.001968  
3293.000000	0.002041  
3292.000000	0.002142  
3291.000000	0.002266  
3290.000000	0.002384  
3289.000000	0.002426  
3288.000000	0.002356  
3287.000000	0.002222  
3286.000000	0.002100  
3285.000000	0.002010  
3284.000000	0.001930  
3283.000000	0.001854  
3282.000000	0.001816  
3281.000000	0.001834  
3280.000000	0.001879  
3279.000000	0.001913  
3278.000000	0.001935  
3277.000000	0.001979  
3276.000000	0.002078  
3275.000000	0.002236  
3274.000000	0.002429  
3273.000000	0.002611  
3272.000000	0.002715  
3271.000000	0.002686  
3270.000000	0.002520  
3269.000000	0.002279  
3268.000000	0.002054  
3267.000000	0.001881  
3266.000000	0.001753  
3265.000000	0.001684  
3264.000000	0.001734  
3263.000000	0.001930  
3262.000000	0.002197  
3261.000000	0.002416  
3260.000000	0.002546  
3259.000000	0.002631  
3258.000000	0.002700  
3257.000000	0.002715  
3256.000000	0.002637  
3255.000000	0.002501  
3254.000000	0.002394  
3253.000000	0.002380  
3252.000000	0.002453  
3251.000000	0.002547  
3250.000000	0.002584  
3249.000000	0.002547  
3248.000000	0.002493  
3247.000000	0.002485  
3246.000000	0.002504  
3245.000000	0.002493  
3244.000000	0.002455  
3243.000000	0.002462  
3242.000000	0.002533  
3241.000000	0.002582  
3240.000000	0.002516  
3239.000000	0.002340  
3238.000000	0.002122  
3237.000000	0.001922  
3236.000000	0.001779  
3235.000000	0.001733  
3234.000000	0.001794  
3233.000000	0.001913  
3232.000000	0.002029  
3231.000000	0.002127  
3230.000000	0.002209  
3229.000000	0.002244  
3228.000000	0.002210  
3227.000000	0.002163  
3226.000000	0.002192  
3225.000000	0.002310  
3224.000000	0.002441  
3223.000000	0.002500  
3222.000000	0.002457  
3221.000000	0.002325  
3220.000000	0.002153  
3219.000000	0.002024  
3218.000000	0.002011  
3217.000000	0.002116  
3216.000000	0.002269  
3215.000000	0.002404  
3214.000000	0.002508  
3213.000000	0.002584  
3212.000000	0.002624  
3211.000000	0.002627  
3210.000000	0.002615  
3209.000000	0.002604  
3208.000000	0.002602  
3207.000000	0.002614  
3206.000000	0.002649  
3205.000000	0.002712  
3204.000000	0.002809  
3203.000000	0.002947  
3202.000000	0.003104  
3201.000000	0.003179  
3200.000000	0.003055  
3199.000000	0.002721  
3198.000000	0.002307  
3197.000000	0.001966  
3196.000000	0.001752  
3195.000000	0.001631  
3194.000000	0.001574  
3193.000000	0.001594  
3192.000000	0.001717  
3191.000000	0.001950  
3190.000000	0.002262  
3189.000000	0.002585  
3188.000000	0.002824  
3187.000000	0.002928  
3186.000000	0.002930  
3185.000000	0.002906  
3184.000000	0.002877  
3183.000000	0.002797  
3182.000000	0.002629  
3181.000000	0.002412  
3180.000000	0.002232  
3179.000000	0.002140  
3178.000000	0.002125  
3177.000000	0.002163  
3176.000000	0.002253  
3175.000000	0.002393  
3174.000000	0.002532  
3173.000000	0.002593  
3172.000000	0.002539  
3171.000000	0.002410  
3170.000000	0.002301  
3169.000000	0.002292  
3168.000000	0.002403  
3167.000000	0.002580  
3166.000000	0.002731  
3165.000000	0.002784  
3164.000000	0.002743  
3163.000000	0.002671  
3162.000000	0.002620  
3161.000000	0.002595  
3160.000000	0.002580  
3159.000000	0.002574  
3158.000000	0.002587  
3157.000000	0.002616  
3156.000000	0.002649  
3155.000000	0.002690  
3154.000000	0.002753  
3153.000000	0.002836  
3152.000000	0.002898  
3151.000000	0.002874  
3150.000000	0.002721  
3149.000000	0.002469  
3148.000000	0.002226  
3147.000000	0.002097  
3146.000000	0.002094  
3145.000000	0.002152  
3144.000000	0.002221  
3143.000000	0.002295  
3142.000000	0.002364  
3141.000000	0.002377  
3140.000000	0.002322  
3139.000000	0.002276  
3138.000000	0.002335  
3137.000000	0.002493  
3136.000000	0.002642  
3135.000000	0.002681  
3134.000000	0.002596  
3133.000000	0.002449  
3132.000000	0.002342  
3131.000000	0.002365  
3130.000000	0.002527  
3129.000000	0.002728  
3128.000000	0.002833  
3127.000000	0.002787  
3126.000000	0.002639  
3125.000000	0.002479  
3124.000000	0.002380  
3123.000000	0.002393  
3122.000000	0.002520  
3121.000000	0.002674  
3120.000000	0.002733  
3119.000000	0.002651  
3118.000000	0.002495  
3117.000000	0.002366  
3116.000000	0.002301  
3115.000000	0.002291  
3114.000000	0.002325  
3113.000000	0.002394  
3112.000000	0.002476  
3111.000000	0.002550  
3110.000000	0.002614  
3109.000000	0.002654  
3108.000000	0.002632  
3107.000000	0.002521  
3106.000000	0.002352  
3105.000000	0.002202  
3104.000000	0.002142  
3103.000000	0.002207  
3102.000000	0.002372  
3101.000000	0.002549  
3100.000000	0.002626  
3099.000000	0.002554  
3098.000000	0.002400  
3097.000000	0.002298  
3096.000000	0.002337  
3095.000000	0.002502  
3094.000000	0.002690  
3093.000000	0.002801  
3092.000000	0.002799  
3091.000000	0.002733  
3090.000000	0.002675  
3089.000000	0.002662  
3088.000000	0.002687  
3087.000000	0.002741  
3086.000000	0.002829  
3085.000000	0.002927  
3084.000000	0.002972  
3083.000000	0.002922  
3082.000000	0.002820  
3081.000000	0.002768  
3080.000000	0.002843  
3079.000000	0.003040  
3078.000000	0.003285  
3077.000000	0.003489  
3076.000000	0.003588  
3075.000000	0.003573  
3074.000000	0.003484  
3073.000000	0.003376  
3072.000000	0.003296  
3071.000000	0.003278  
3070.000000	0.003333  
3069.000000	0.003431  
3068.000000	0.003509  
3067.000000	0.003537  
3066.000000	0.003555  
3065.000000	0.003630  
3064.000000	0.003783  
3063.000000	0.003961  
3062.000000	0.004081  
3061.000000	0.004087  
3060.000000	0.003986  
3059.000000	0.003846  
3058.000000	0.003742  
3057.000000	0.003695  
3056.000000	0.003686  
3055.000000	0.003707  
3054.000000	0.003780  
3053.000000	0.003881  
3052.000000	0.003925  
3051.000000	0.003857  
3050.000000	0.003748  
3049.000000	0.003738  
3048.000000	0.003886  
3047.000000	0.004114  
3046.000000	0.004311  
3045.000000	0.004421  
3044.000000	0.004451  
3043.000000	0.004414  
3042.000000	0.004333  
3041.000000	0.004253  
3040.000000	0.004229  
3039.000000	0.004284  
3038.000000	0.004397  
3037.000000	0.004532  
3036.000000	0.004655  
3035.000000	0.004732  
3034.000000	0.004741  
3033.000000	0.004696  
3032.000000	0.004664  
3031.000000	0.004732  
3030.000000	0.004927  
3029.000000	0.005174  
3028.000000	0.005355  
3027.000000	0.005418  
3026.000000	0.005425  
3025.000000	0.005496  
3024.000000	0.005705  
3023.000000	0.006034  
3022.000000	0.006392  
3021.000000	0.006672  
3020.000000	0.006811  
3019.000000	0.006857  
3018.000000	0.006944  
3017.000000	0.007181  
3016.000000	0.007545  
3015.000000	0.007927  
3014.000000	0.008247  
3013.000000	0.008504  
3012.000000	0.008720  
3011.000000	0.008889  
3010.000000	0.009004  
3009.000000	0.009092  
3008.000000	0.009191  
3007.000000	0.009309  
3006.000000	0.009418  
3005.000000	0.009466  
3004.000000	0.009406  
3003.000000	0.009230  
3002.000000	0.009020  
3001.000000	0.008924  
3000.000000	0.009041  
2999.000000	0.009328  
2998.000000	0.009630  
2997.000000	0.009817  
2996.000000	0.009883  
2995.000000	0.009922  
2994.000000	0.010042  
2993.000000	0.010314  
2992.000000	0.010743  
2991.000000	0.011287  
2990.000000	0.011874  
2989.000000	0.012456  
2988.000000	0.013039  
2987.000000	0.013683  
2986.000000	0.014454  
2985.000000	0.015377  
2984.000000	0.016421  
2983.000000	0.017537  
2982.000000	0.018705  
2981.000000	0.019957  
2980.000000	0.021357  
2979.000000	0.022963  
2978.000000	0.024816  
2977.000000	0.026943  
2976.000000	0.029383  
2975.000000	0.032178  
2974.000000	0.035350  
2973.000000	0.038877  
2972.000000	0.042701  
2971.000000	0.046787  
2970.000000	0.051174  
2969.000000	0.055954  
2968.000000	0.061170  
2967.000000	0.066712  
2966.000000	0.072349  
2965.000000	0.077877  
2964.000000	0.083228  
2963.000000	0.088414  
2962.000000	0.093411  
2961.000000	0.098134  
2960.000000	0.102506  
2959.000000	0.106465  
2958.000000	0.109894  
2957.000000	0.112615  
2956.000000	0.114483  
2955.000000	0.115460  
2954.000000	0.115578  
2953.000000	0.114876  
2952.000000	0.113426  
2951.000000	0.111397  
2950.000000	0.109041  
2949.000000	0.106629  
2948.000000	0.104383  
2947.000000	0.102463  
2946.000000	0.100990  
2945.000000	0.100096  
2944.000000	0.099956  
2943.000000	0.100753  
2942.000000	0.102596  
2941.000000	0.105457  
2940.000000	0.109208  
2939.000000	0.113716  
2938.000000	0.118894  
2937.000000	0.124672  
2936.000000	0.130941  
2935.000000	0.137533  
2934.000000	0.144307  
2933.000000	0.151244  
2932.000000	0.158450  
2931.000000	0.165995  
2930.000000	0.173745  
2929.000000	0.181395  
2928.000000	0.188648  
2927.000000	0.195310  
2926.000000	0.201220  
2925.000000	0.206183  
2924.000000	0.209983  
2923.000000	0.212404  
2922.000000	0.213240  
2921.000000	0.212402  
2920.000000	0.210070  
2919.000000	0.206636  
2918.000000	0.202453  
2917.000000	0.197695  
2916.000000	0.192479  
2915.000000	0.186989  
2914.000000	0.181432  
2913.000000	0.175925  
2912.000000	0.170527  
2911.000000	0.165347  
2910.000000	0.160512  
2909.000000	0.156029  
2908.000000	0.151737  
2907.000000	0.147444  
2906.000000	0.143095  
2905.000000	0.138784  
2904.000000	0.134640  
2903.000000	0.130720  
2902.000000	0.126988  
2901.000000	0.123364  
2900.000000	0.119774  
2899.000000	0.116173  
2898.000000	0.112568  
2897.000000	0.109011  
2896.000000	0.105575  
2895.000000	0.102299  
2894.000000	0.099152  
2893.000000	0.096042  
2892.000000	0.092877  
2891.000000	0.089653  
2890.000000	0.086476  
2889.000000	0.083517  
2888.000000	0.080900  
2887.000000	0.078644  
2886.000000	0.076709  
2885.000000	0.075091  
2884.000000	0.073862  
2883.000000	0.073127  
2882.000000	0.072956  
2881.000000	0.073364  
2880.000000	0.074366  
2879.000000	0.076011  
2878.000000	0.078344  
2877.000000	0.081309  
2876.000000	0.084685  
2875.000000	0.088128  
2874.000000	0.091272  
2873.000000	0.093824  
2872.000000	0.095617  
2871.000000	0.096641  
2870.000000	0.097052  
2869.000000	0.097139  
2868.000000	0.097214  
2867.000000	0.097515  
2866.000000	0.098200  
2865.000000	0.099417  
2864.000000	0.101319  
2863.000000	0.103983  
2862.000000	0.107334  
2861.000000	0.111218  
2860.000000	0.115516  
2859.000000	0.120141  
2858.000000	0.124903  
2857.000000	0.129427  
2856.000000	0.133228  
2855.000000	0.135830  
2854.000000	0.136840  
2853.000000	0.136016  
2852.000000	0.133364  
2851.000000	0.129147  
2850.000000	0.123754  
2849.000000	0.117534  
2848.000000	0.110761  
2847.000000	0.103698  
2846.000000	0.096634  
2845.000000	0.089795  
2844.000000	0.083250  
2843.000000	0.076920  
2842.000000	0.070724  
2841.000000	0.064695  
2840.000000	0.058971  
2839.000000	0.053694  
2838.000000	0.048932  
2837.000000	0.044679  
2836.000000	0.040887  
2835.000000	0.037491  
2834.000000	0.034434  
2833.000000	0.031686  
2832.000000	0.029245  
2831.000000	0.027118  
2830.000000	0.025294  
2829.000000	0.023729  
2828.000000	0.022359  
2827.000000	0.021123  
2826.000000	0.019988  
2825.000000	0.018947  
2824.000000	0.018002  
2823.000000	0.017158  
2822.000000	0.016423  
2821.000000	0.015801  
2820.000000	0.015265  
2819.000000	0.014756  
2818.000000	0.014229  
2817.000000	0.013687  
2816.000000	0.013174  
2815.000000	0.012717  
2814.000000	0.012296  
2813.000000	0.011874  
2812.000000	0.011439  
2811.000000	0.011019  
2810.000000	0.010655  
2809.000000	0.010368  
2808.000000	0.010160  
2807.000000	0.010016  
2806.000000	0.009901  
2805.000000	0.009766  
2804.000000	0.009562  
2803.000000	0.009272  
2802.000000	0.008923  
2801.000000	0.008578  
2800.000000	0.008310  
2799.000000	0.008166  
2798.000000	0.008135  
2797.000000	0.008162  
2796.000000	0.008187  
2795.000000	0.008167  
2794.000000	0.008065  
2793.000000	0.007833  
2792.000000	0.007462  
2791.000000	0.007041  
2790.000000	0.006718  
2789.000000	0.006579  
2788.000000	0.006578  
2787.000000	0.006602  
2786.000000	0.006584  
2785.000000	0.006520  
2784.000000	0.006425  
2783.000000	0.006307  
2782.000000	0.006189  
2781.000000	0.006120  
2780.000000	0.006125  
2779.000000	0.006164  
2778.000000	0.006152  
2777.000000	0.006013  
2776.000000	0.005736  
2775.000000	0.005401  
2774.000000	0.005146  
2773.000000	0.005071  
2772.000000	0.005159  
2771.000000	0.005289  
2770.000000	0.005342  
2769.000000	0.005275  
2768.000000	0.005117  
2767.000000	0.004922  
2766.000000	0.004748  
2765.000000	0.004651  
2764.000000	0.004660  
2763.000000	0.004744  
2762.000000	0.004831  
2761.000000	0.004862  
2760.000000	0.004831  
2759.000000	0.004770  
2758.000000	0.004708  
2757.000000	0.004652  
2756.000000	0.004603  
2755.000000	0.004565  
2754.000000	0.004541  
2753.000000	0.004522  
2752.000000	0.004491  
2751.000000	0.004445  
2750.000000	0.004416  
2749.000000	0.004433  
2748.000000	0.004482  
2747.000000	0.004503  
2746.000000	0.004451  
2745.000000	0.004347  
2744.000000	0.004262  
2743.000000	0.004249  
2742.000000	0.004307  
2741.000000	0.004414  
2740.000000	0.004550  
2739.000000	0.004694  
2738.000000	0.004813  
2737.000000	0.004882  
2736.000000	0.004923  
2735.000000	0.004989  
2734.000000	0.005105  
2733.000000	0.005228  
2732.000000	0.005282  
2731.000000	0.005228  
2730.000000	0.005112  
2729.000000	0.005027  
2728.000000	0.005034  
2727.000000	0.005108  
2726.000000	0.005155  
2725.000000	0.005109  
2724.000000	0.004988  
2723.000000	0.004866  
2722.000000	0.004793  
2721.000000	0.004762  
2720.000000	0.004753  
2719.000000	0.004766  
2718.000000	0.004796  
2717.000000	0.004811  
2716.000000	0.004788  
2715.000000	0.004742  
2714.000000	0.004687  
2713.000000	0.004596  
2712.000000	0.004437  
2711.000000	0.004246  
2710.000000	0.004113  
2709.000000	0.004079  
2708.000000	0.004100  
2707.000000	0.004111  
2706.000000	0.004092  
2705.000000	0.004049  
2704.000000	0.003975  
2703.000000	0.003871  
2702.000000	0.003774  
2701.000000	0.003711  
2700.000000	0.003656  
2699.000000	0.003574  
2698.000000	0.003498  
2697.000000	0.003509  
2696.000000	0.003642  
2695.000000	0.003837  
2694.000000	0.003998  
2693.000000	0.004068  
2692.000000	0.004049  
2691.000000	0.003988  
2690.000000	0.003960  
2689.000000	0.004039  
2688.000000	0.004228  
2687.000000	0.004437  
2686.000000	0.004552  
2685.000000	0.004537  
2684.000000	0.004458  
2683.000000	0.004403  
2682.000000	0.004410  
2681.000000	0.004451  
2680.000000	0.004479  
2679.000000	0.004474  
2678.000000	0.004455  
2677.000000	0.004464  
2676.000000	0.004528  
2675.000000	0.004634  
2674.000000	0.004730  
2673.000000	0.004759  
2672.000000	0.004711  
2671.000000	0.004627  
2670.000000	0.004559  
2669.000000	0.004530  
2668.000000	0.004534  
2667.000000	0.004564  
2666.000000	0.004622  
2665.000000	0.004691  
2664.000000	0.004724  
2663.000000	0.004668  
2662.000000	0.004516  
2661.000000	0.004314  
2660.000000	0.004138  
2659.000000	0.004034  
2658.000000	0.003993  
2657.000000	0.003970  
2656.000000	0.003943  
2655.000000	0.003929  
2654.000000	0.003942  
2653.000000	0.003944  
2652.000000	0.003887  
2651.000000	0.003792  
2650.000000	0.003745  
2649.000000	0.003797  
2648.000000	0.003913  
2647.000000	0.004011  
2646.000000	0.004040  
2645.000000	0.003997  
2644.000000	0.003912  
2643.000000	0.003848  
2642.000000	0.003867  
2641.000000	0.003973  
2640.000000	0.004080  
2639.000000	0.004086  
2638.000000	0.003962  
2637.000000	0.003763  
2636.000000	0.003576  
2635.000000	0.003493  
2634.000000	0.003576  
2633.000000	0.003810  
2632.000000	0.004069  
2631.000000	0.004197  
2630.000000	0.004127  
2629.000000	0.003921  
2628.000000	0.003701  
2627.000000	0.003574  
2626.000000	0.003585  
2625.000000	0.003682  
2624.000000	0.003735  
2623.000000	0.003635  
2622.000000	0.003411  
2621.000000	0.003193  
2620.000000	0.003071  
2619.000000	0.003023  
2618.000000	0.002995  
2617.000000	0.002996  
2616.000000	0.003061  
2615.000000	0.003187  
2614.000000	0.003327  
2613.000000	0.003446  
2612.000000	0.003538  
2611.000000	0.003613  
2610.000000	0.003685  
2609.000000	0.003761  
2608.000000	0.003815  
2607.000000	0.003810  
2606.000000	0.003747  
2605.000000	0.003677  
2604.000000	0.003626  
2603.000000	0.003568  
2602.000000	0.003495  
2601.000000	0.003466  
2600.000000	0.003541  
2599.000000	0.003663  
2598.000000	0.003688  
2597.000000	0.003549  
2596.000000	0.003340  
2595.000000	0.003203  
2594.000000	0.003158  
2593.000000	0.003091  
2592.000000	0.002900  
2591.000000	0.002615  
2590.000000	0.002375  
2589.000000	0.002291  
2588.000000	0.002370  
2587.000000	0.002542  
2586.000000	0.002733  
2585.000000	0.002875  
2584.000000	0.002901  
2583.000000	0.002779  
2582.000000	0.002565  
2581.000000	0.002385  
2580.000000	0.002339  
2579.000000	0.002431  
2578.000000	0.002608  
2577.000000	0.002805  
2576.000000	0.002959  
2575.000000	0.003005  
2574.000000	0.002919  
2573.000000	0.002770  
2572.000000	0.002669  
2571.000000	0.002665  
2570.000000	0.002700  
2569.000000	0.002674  
2568.000000	0.002547  
2567.000000	0.002362  
2566.000000	0.002204  
2565.000000	0.002127  
2564.000000	0.002116  
2563.000000	0.002121  
2562.000000	0.002120  
2561.000000	0.002143  
2560.000000	0.002233  
2559.000000	0.002377  
2558.000000	0.002520  
2557.000000	0.002621  
2556.000000	0.002670  
2555.000000	0.002658  
2554.000000	0.002565  
2553.000000	0.002416  
2552.000000	0.002311  
2551.000000	0.002359  
2550.000000	0.002559  
2549.000000	0.002792  
2548.000000	0.002926  
2547.000000	0.002903  
2546.000000	0.002734  
2545.000000	0.002463  
2544.000000	0.002179  
2543.000000	0.002009  
2542.000000	0.002020  
2541.000000	0.002132  
2540.000000	0.002191  
2539.000000	0.002137  
2538.000000	0.002059  
2537.000000	0.002060  
2536.000000	0.002120  
2535.000000	0.002116  
2534.000000	0.001982  
2533.000000	0.001781  
2532.000000	0.001632  
2531.000000	0.001587  
2530.000000	0.001595  
2529.000000	0.001573  
2528.000000	0.001510  
2527.000000	0.001484  
2526.000000	0.001583  
2525.000000	0.001814  
2524.000000	0.002096  
2523.000000	0.002332  
2522.000000	0.002461  
2521.000000	0.002443  
2520.000000	0.002273  
2519.000000	0.002029  
2518.000000	0.001860  
2517.000000	0.001874  
2516.000000	0.002040  
2515.000000	0.002225  
2514.000000	0.002316  
2513.000000	0.002287  
2512.000000	0.002186  
2511.000000	0.002094  
2510.000000	0.002069  
2509.000000	0.002108  
2508.000000	0.002162  
2507.000000	0.002208  
2506.000000	0.002288  
2505.000000	0.002423  
2504.000000	0.002541  
2503.000000	0.002540  
2502.000000	0.002417  
2501.000000	0.002287  
2500.000000	0.002249  
2499.000000	0.002268  
2498.000000	0.002217  
2497.000000	0.001990  
2496.000000	0.001601  
2495.000000	0.001187  
2494.000000	0.000945  
2493.000000	0.000992  
2492.000000	0.001292  
2491.000000	0.001697  
2490.000000	0.002069  
2489.000000	0.002341  
2488.000000	0.002482  
2487.000000	0.002461  
2486.000000	0.002261  
2485.000000	0.001914  
2484.000000	0.001523  
2483.000000	0.001251  
2482.000000	0.001251  
2481.000000	0.001557  
2480.000000	0.002022  
2479.000000	0.002406  
2478.000000	0.002548  
2477.000000	0.002455  
2476.000000	0.002251  
2475.000000	0.002062  
2474.000000	0.001955  
2473.000000	0.001922  
2472.000000	0.001906  
2471.000000	0.001850  
2470.000000	0.001736  
2469.000000	0.001598  
2468.000000	0.001500  
2467.000000	0.001518  
2466.000000	0.001680  
2465.000000	0.001915  
2464.000000	0.002080  
2463.000000	0.002085  
2462.000000	0.001973  
2461.000000	0.001854  
2460.000000	0.001790  
2459.000000	0.001794  
2458.000000	0.001885  
2457.000000	0.002040  
2456.000000	0.002127  
2455.000000	0.002005  
2454.000000	0.001709  
2453.000000	0.001446  
2452.000000	0.001365  
2451.000000	0.001408  
2450.000000	0.001444  
2449.000000	0.001462  
2448.000000	0.001554  
2447.000000	0.001749  
2446.000000	0.001959  
2445.000000	0.002069  
2444.000000	0.002045  
2443.000000	0.001957  
2442.000000	0.001916  
2441.000000	0.001984  
2440.000000	0.002095  
2439.000000	0.002113  
2438.000000	0.001975  
2437.000000	0.001766  
2436.000000	0.001610  
2435.000000	0.001529  
2434.000000	0.001452  
2433.000000	0.001349  
2432.000000	0.001282  
2431.000000	0.001323  
2430.000000	0.001449  
2429.000000	0.001568  
2428.000000	0.001610  
2427.000000	0.001595  
2426.000000	0.001600  
2425.000000	0.001665  
2424.000000	0.001744  
2423.000000	0.001756  
2422.000000	0.001681  
2421.000000	0.001583  
2420.000000	0.001538  
2419.000000	0.001566  
2418.000000	0.001638  
2417.000000	0.001720  
2416.000000	0.001790  
2415.000000	0.001850  
2414.000000	0.001919  
2413.000000	0.002014  
2412.000000	0.002105  
2411.000000	0.002141  
2410.000000	0.002117  
2409.000000	0.002101  
2408.000000	0.002152  
2407.000000	0.002239  
2406.000000	0.002262  
2405.000000	0.002152  
2404.000000	0.001928  
2403.000000	0.001675  
2402.000000	0.001482  
2401.000000	0.001396  
2400.000000	0.001410  
2399.000000	0.001502  
2398.000000	0.001657  
2397.000000	0.001849  
2396.000000	0.002015  
2395.000000	0.002101  
2394.000000	0.002126  
2393.000000	0.002178  
2392.000000	0.002298  
2391.000000	0.002423  
2390.000000	0.002463  
2389.000000	0.002414  
2388.000000	0.002369  
2387.000000	0.002448  
2386.000000	0.002723  
2385.000000	0.003165  
2384.000000	0.003625  
2383.000000	0.003882  
2382.000000	0.003783  
2381.000000	0.003361  
2380.000000	0.002815  
2379.000000	0.002326  
2378.000000	0.001919  
2377.000000	0.001504  
2376.000000	0.001055  
2375.000000	0.000712  
2374.000000	0.000679  
2373.000000	0.001020  
2372.000000	0.001575  
2371.000000	0.002090  
2370.000000	0.002418  
2369.000000	0.002555  
2368.000000	0.002564  
2367.000000	0.002536  
2366.000000	0.002574  
2365.000000	0.002652  
2364.000000	0.002569  
2363.000000	0.002247  
2362.000000	0.001898  
2361.000000	0.001874  
2360.000000	0.002353  
2359.000000	0.003006  
2358.000000	0.003296  
2357.000000	0.002972  
2356.000000	0.002214  
2355.000000	0.001469  
2354.000000	0.000997  
2353.000000	0.000967  
2352.000000	0.001303  
2351.000000	0.001701  
2350.000000	0.001914  
2349.000000	0.001801  
2348.000000	0.001495  
2347.000000	0.001248  
2346.000000	0.001433  
2345.000000	0.002189  
2344.000000	0.003032  
2343.000000	0.003459  
2342.000000	0.003122  
2341.000000	0.002329  
2340.000000	0.001695  
2339.000000	0.001517  
2338.000000	0.001569  
2337.000000	0.001482  
2336.000000	0.001252  
2335.000000	0.001012  
2334.000000	0.000840  
2333.000000	0.000733  
2332.000000	0.000902  
2331.000000	0.001422  
2330.000000	0.002263  
2329.000000	0.002991  
2328.000000	0.003547  
2327.000000	0.003891  
2326.000000	0.004114  
2325.000000	0.004140  
2324.000000	0.003899  
2323.000000	0.003510  
2322.000000	0.003152  
2321.000000	0.003050  
2320.000000	0.003285  
2319.000000	0.003749  
2318.000000	0.004230  
2317.000000	0.004413  
2316.000000	0.004205  
2315.000000	0.003649  
2314.000000	0.003122  
2313.000000	0.002890  
2312.000000	0.003102  
2311.000000	0.003517  
2310.000000	0.003946  
2309.000000	0.004218  
2308.000000	0.004357  
2307.000000	0.004302  
2306.000000	0.004088  
2305.000000	0.003784  
2304.000000	0.003564  
2303.000000	0.003474  
2302.000000	0.003482  
2301.000000	0.003452  
2300.000000	0.003352  
2299.000000	0.003196  
2298.000000	0.003114  
2297.000000	0.003155  
2296.000000	0.003287  
2295.000000	0.003354  
2294.000000	0.003297  
2293.000000	0.003171  
2292.000000	0.003083  
2291.000000	0.003025  
2290.000000	0.002943  
2289.000000	0.002827  
2288.000000	0.002684  
2287.000000	0.002440  
2286.000000	0.002011  
2285.000000	0.001499  
2284.000000	0.001149  
2283.000000	0.001101  
2282.000000	0.001234  
2281.000000	0.001368  
2280.000000	0.001490  
2279.000000	0.001698  
2278.000000	0.001955  
2277.000000	0.002086  
2276.000000	0.002023  
2275.000000	0.001967  
2274.000000	0.002200  
2273.000000	0.002754  
2272.000000	0.003338  
2271.000000	0.003607  
2270.000000	0.003488  
2269.000000	0.003172  
2268.000000	0.002827  
2267.000000	0.002421  
2266.000000	0.001909  
2265.000000	0.001458  
2264.000000	0.001344  
2263.000000	0.001627  
2262.000000	0.002083  
2261.000000	0.002470  
2260.000000	0.002715  
2259.000000	0.002849  
2258.000000	0.002902  
2257.000000	0.002941  
2256.000000	0.003057  
2255.000000	0.003211  
2254.000000	0.003199  
2253.000000	0.002907  
2252.000000	0.002511  
2251.000000	0.002283  
2250.000000	0.002269  
2249.000000	0.002273  
2248.000000	0.002119  
2247.000000	0.001789  
2246.000000	0.001373  
2245.000000	0.001004  
2244.000000	0.000837  
2243.000000	0.000962  
2242.000000	0.001289  
2241.000000	0.001631  
2240.000000	0.001892  
2239.000000	0.002096  
2238.000000	0.002227  
2237.000000	0.002192  
2236.000000	0.001977  
2235.000000	0.001726  
2234.000000	0.001600  
2233.000000	0.001621  
2232.000000	0.001701  
2231.000000	0.001761  
2230.000000	0.001773  
2229.000000	0.001734  
2228.000000	0.001668  
2227.000000	0.001619  
2226.000000	0.001599  
2225.000000	0.001544  
2224.000000	0.001356  
2223.000000	0.001007  
2222.000000	0.000632  
2221.000000	0.000501  
2220.000000	0.000809  
2219.000000	0.001429  
2218.000000	0.001942  
2217.000000	0.002040  
2216.000000	0.001874  
2215.000000	0.001837  
2214.000000	0.002047  
2213.000000	0.002225  
2212.000000	0.002145  
2211.000000	0.001967  
2210.000000	0.001957  
2209.000000	0.002056  
2208.000000	0.001974  
2207.000000	0.001649  
2206.000000	0.001373  
2205.000000	0.001421  
2204.000000	0.001748  
2203.000000	0.002129  
2202.000000	0.002437  
2201.000000	0.002685  
2200.000000	0.002902  
2199.000000	0.003111  
2198.000000	0.003354  
2197.000000	0.003629  
2196.000000	0.003818  
2195.000000	0.003763  
2194.000000	0.003425  
2193.000000	0.002924  
2192.000000	0.002403  
2191.000000	0.001941  
2190.000000	0.001577  
2189.000000	0.001368  
2188.000000	0.001329  
2187.000000	0.001376  
2186.000000	0.001374  
2185.000000	0.001267  
2184.000000	0.001128  
2183.000000	0.001096  
2182.000000	0.001279  
2181.000000	0.001694  
2180.000000	0.002261  
2179.000000	0.002804  
2178.000000	0.003127  
2177.000000	0.003132  
2176.000000	0.002880  
2175.000000	0.002471  
2174.000000	0.001930  
2173.000000	0.001300  
2172.000000	0.000807  
2171.000000	0.000752  
2170.000000	0.001151  
2169.000000	0.001586  
2168.000000	0.001594  
2167.000000	0.001209  
2166.000000	0.000953  
2165.000000	0.001238  
2164.000000	0.001879  
2163.000000	0.002319  
2162.000000	0.002239  
2161.000000	0.001835  
2160.000000	0.001543  
2159.000000	0.001595  
2158.000000	0.001881  
2157.000000	0.002142  
2156.000000	0.002197  
2155.000000	0.002031  
2154.000000	0.001784  
2153.000000	0.001672  
2152.000000	0.001825  
2151.000000	0.002146  
2150.000000	0.002349  
2149.000000	0.002212  
2148.000000	0.001802  
2147.000000	0.001431  
2146.000000	0.001377  
2145.000000	0.001655  
2144.000000	0.002052  
2143.000000	0.002314  
2142.000000	0.002276  
2141.000000	0.001890  
2140.000000	0.001263  
2139.000000	0.000676  
2138.000000	0.000455  
2137.000000	0.000730  
2136.000000	0.001288  
2135.000000	0.001730  
2134.000000	0.001804  
2133.000000	0.001588  
2132.000000	0.001368  
2131.000000	0.001365  
2130.000000	0.001571  
2129.000000	0.001824  
2128.000000	0.001980  
2127.000000	0.002002  
2126.000000	0.001903  
2125.000000	0.001682  
2124.000000	0.001396  
2123.000000	0.001215  
2122.000000	0.001330  
2121.000000	0.001750  
2120.000000	0.002236  
2119.000000	0.002497  
2118.000000	0.002427  
2117.000000	0.002175  
2116.000000	0.001993  
2115.000000	0.002014  
2114.000000	0.002138  
2113.000000	0.002137  
2112.000000	0.001899  
2111.000000	0.001577  
2110.000000	0.001445  
2109.000000	0.001586  
2108.000000	0.001803  
2107.000000	0.001870  
2106.000000	0.001762  
2105.000000	0.001598  
2104.000000	0.001427  
2103.000000	0.001220  
2102.000000	0.001007  
2101.000000	0.000899  
2100.000000	0.000906  
2099.000000	0.000886  
2098.000000	0.000723  
2097.000000	0.000494  
2096.000000	0.000365  
2095.000000	0.000391  
2094.000000	0.000493  
2093.000000	0.000602  
2092.000000	0.000742  
2091.000000	0.000951  
2090.000000	0.001178  
2089.000000	0.001331  
2088.000000	0.001407  
2087.000000	0.001537  
2086.000000	0.001828  
2085.000000	0.002193  
2084.000000	0.002368  
2083.000000	0.002163  
2082.000000	0.001682  
2081.000000	0.001265  
2080.000000	0.001204  
2079.000000	0.001500  
2078.000000	0.001869  
2077.000000	0.001967  
2076.000000	0.001668  
2075.000000	0.001188  
2074.000000	0.000927  
2073.000000	0.001100  
2072.000000	0.001538  
2071.000000	0.001895  
2070.000000	0.002015  
2069.000000	0.001999  
2068.000000	0.001971  
2067.000000	0.001924  
2066.000000	0.001847  
2065.000000	0.001820  
2064.000000	0.001905  
2063.000000	0.002031  
2062.000000	0.002096  
2061.000000	0.002089  
2060.000000	0.002018  
2059.000000	0.001840  
2058.000000	0.001552  
2057.000000	0.001294  
2056.000000	0.001179  
2055.000000	0.001100  
2054.000000	0.000870  
2053.000000	0.000533  
2052.000000	0.000351  
2051.000000	0.000474  
2050.000000	0.000823  
2049.000000	0.001299  
2048.000000	0.001912  
2047.000000	0.002543  
2046.000000	0.002813  
2045.000000	0.002428  
2044.000000	0.001591  
2043.000000	0.000835  
2042.000000	0.000492  
2041.000000	0.000511  
2040.000000	0.000748  
2039.000000	0.001174  
2038.000000	0.001703  
2037.000000	0.002058  
2036.000000	0.002022  
2035.000000	0.001743  
2034.000000	0.001595  
2033.000000	0.001755  
2032.000000	0.002058  
2031.000000	0.002234  
2030.000000	0.002108  
2029.000000	0.001627  
2028.000000	0.000862  
2027.000000	0.000060  
2026.000000	-0.000478 
2025.000000	-0.000651 
2024.000000	-0.000606 
2023.000000	-0.000458 
2022.000000	-0.000106 
2021.000000	0.000523  
2020.000000	0.001184  
2019.000000	0.001483  
2018.000000	0.001303  
2017.000000	0.000891  
2016.000000	0.000511  
2015.000000	0.000231  
2014.000000	0.000121  
2013.000000	0.000353  
2012.000000	0.000875  
2011.000000	0.001202  
2010.000000	0.000824  
2009.000000	-0.000169 
2008.000000	-0.001112 
2007.000000	-0.001469 
2006.000000	-0.001295 
2005.000000	-0.000935 
2004.000000	-0.000520 
2003.000000	0.000080  
2002.000000	0.000951  
2001.000000	0.001939  
2000.000000	0.002693  
1999.000000	0.002860  
1998.000000	0.002321  
1997.000000	0.001375  
1996.000000	0.000608  
1995.000000	0.000435  
1994.000000	0.000767  
1993.000000	0.001179  
1992.000000	0.001356  
1991.000000	0.001320  
1990.000000	0.001233  
1989.000000	0.001195  
1988.000000	0.001276  
1987.000000	0.001541  
1986.000000	0.001948  
1985.000000	0.002325  
1984.000000	0.002564  
1983.000000	0.002733  
1982.000000	0.002919  
1981.000000	0.003053  
1980.000000	0.003007  
1979.000000	0.002771  
1978.000000	0.002407  
1977.000000	0.001901  
1976.000000	0.001234  
1975.000000	0.000553  
1974.000000	0.000048  
1973.000000	-0.000290 
1972.000000	-0.000582 
1971.000000	-0.000738 
1970.000000	-0.000508 
1969.000000	0.000100  
1968.000000	0.000673  
1967.000000	0.000864  
1966.000000	0.000834  
1965.000000	0.000966  
1964.000000	0.001343  
1963.000000	0.001741  
1962.000000	0.001979  
1961.000000	0.002060  
1960.000000	0.002040  
1959.000000	0.001943  
1958.000000	0.001807  
1957.000000	0.001642  
1956.000000	0.001346  
1955.000000	0.000838  
1954.000000	0.000267  
1953.000000	-0.000052 
1952.000000	0.000057  
1951.000000	0.000498  
1950.000000	0.001052  
1949.000000	0.001532  
1948.000000	0.001775  
1947.000000	0.001693  
1946.000000	0.001402  
1945.000000	0.001185  
1944.000000	0.001219  
1943.000000	0.001397  
1942.000000	0.001503  
1941.000000	0.001483  
1940.000000	0.001415  
1939.000000	0.001352  
1938.000000	0.001331  
1937.000000	0.001446  
1936.000000	0.001750  
1935.000000	0.002140  
1934.000000	0.002443  
1933.000000	0.002590  
1932.000000	0.002617  
1931.000000	0.002538  
1930.000000	0.002321  
1929.000000	0.002019  
1928.000000	0.001781  
1927.000000	0.001693  
1926.000000	0.001690  
1925.000000	0.001670  
1924.000000	0.001614  
1923.000000	0.001574  
1922.000000	0.001597  
1921.000000	0.001692  
1920.000000	0.001841  
1919.000000	0.001986  
1918.000000	0.002062  
1917.000000	0.002088  
1916.000000	0.002143  
1915.000000	0.002204  
1914.000000	0.002128  
1913.000000	0.001845  
1912.000000	0.001484  
1911.000000	0.001257  
1910.000000	0.001239  
1909.000000	0.001327  
1908.000000	0.001408  
1907.000000	0.001456  
1906.000000	0.001472  
1905.000000	0.001442  
1904.000000	0.001385  
1903.000000	0.001374  
1902.000000	0.001464  
1901.000000	0.001632  
1900.000000	0.001794  
1899.000000	0.001869  
1898.000000	0.001843  
1897.000000	0.001782  
1896.000000	0.001783  
1895.000000	0.001909  
1894.000000	0.002131  
1893.000000	0.002373  
1892.000000	0.002569  
1891.000000	0.002666  
1890.000000	0.002623  
1889.000000	0.002468  
1888.000000	0.002297  
1887.000000	0.002161  
1886.000000	0.002036  
1885.000000	0.001906  
1884.000000	0.001799  
1883.000000	0.001715  
1882.000000	0.001612  
1881.000000	0.001485  
1880.000000	0.001411  
1879.000000	0.001438  
1878.000000	0.001499  
1877.000000	0.001517  
1876.000000	0.001548  
1875.000000	0.001712  
1874.000000	0.001983  
1873.000000	0.002192  
1872.000000	0.002217  
1871.000000	0.002097  
1870.000000	0.001929  
1869.000000	0.001760  
1868.000000	0.001638  
1867.000000	0.001628  
1866.000000	0.001716  
1865.000000	0.001808  
1864.000000	0.001852  
1863.000000	0.001881  
1862.000000	0.001940  
1861.000000	0.001995  
1860.000000	0.001989  
1859.000000	0.001943  
1858.000000	0.001928  
1857.000000	0.001966  
1856.000000	0.001998  
1855.000000	0.001945  
1854.000000	0.001797  
1853.000000	0.001628  
1852.000000	0.001556  
1851.000000	0.001632  
1850.000000	0.001763  
1849.000000	0.001783  
1848.000000	0.001636  
1847.000000	0.001464  
1846.000000	0.001469  
1845.000000	0.001695  
1844.000000	0.001961  
1843.000000	0.002071  
1842.000000	0.002004  
1841.000000	0.001854  
1840.000000	0.001718  
1839.000000	0.001669  
1838.000000	0.001729  
1837.000000	0.001842  
1836.000000	0.001917  
1835.000000	0.001917  
1834.000000	0.001867  
1833.000000	0.001781  
1832.000000	0.001638  
1831.000000	0.001470  
1830.000000	0.001393  
1829.000000	0.001481  
1828.000000	0.001649  
1827.000000	0.001784  
1826.000000	0.001862  
1825.000000	0.001912  
1824.000000	0.001968  
1823.000000	0.002056  
1822.000000	0.002167  
1821.000000	0.002211  
1820.000000	0.002078  
1819.000000	0.001790  
1818.000000	0.001545  
1817.000000	0.001534  
1816.000000	0.001738  
1815.000000	0.001971  
1814.000000	0.002081  
1813.000000	0.002039  
1812.000000	0.001907  
1811.000000	0.001789  
1810.000000	0.001778  
1809.000000	0.001881  
1808.000000	0.002032  
1807.000000	0.002155  
1806.000000	0.002216  
1805.000000	0.002224  
1804.000000	0.002207  
1803.000000	0.002204  
1802.000000	0.002253  
1801.000000	0.002354  
1800.000000	0.002472  
1799.000000	0.002558  
1798.000000	0.002578  
1797.000000	0.002534  
1796.000000	0.002459  
1795.000000	0.002384  
1794.000000	0.002319  
1793.000000	0.002262  
1792.000000	0.002218  
1791.000000	0.002206  
1790.000000	0.002223  
1789.000000	0.002253  
1788.000000	0.002295  
1787.000000	0.002359  
1786.000000	0.002434  
1785.000000	0.002478  
1784.000000	0.002449  
1783.000000	0.002348  
1782.000000	0.002241  
1781.000000	0.002230  
1780.000000	0.002363  
1779.000000	0.002573  
1778.000000	0.002739  
1777.000000	0.002806  
1776.000000	0.002802  
1775.000000	0.002779  
1774.000000	0.002759  
1773.000000	0.002726  
1772.000000	0.002654  
1771.000000	0.002567  
1770.000000	0.002524  
1769.000000	0.002570  
1768.000000	0.002702  
1767.000000	0.002861  
1766.000000	0.002995  
1765.000000	0.003111  
1764.000000	0.003252  
1763.000000	0.003446  
1762.000000	0.003690  
1761.000000	0.003955  
1760.000000	0.004201  
1759.000000	0.004404  
1758.000000	0.004615  
1757.000000	0.004910  
1756.000000	0.005304  
1755.000000	0.005739  
1754.000000	0.006236  
1753.000000	0.006960  
1752.000000	0.008084  
1751.000000	0.009620  
1750.000000	0.011493  
1749.000000	0.013766  
1748.000000	0.016495  
1747.000000	0.019544  
1746.000000	0.022722  
1745.000000	0.025856  
1744.000000	0.028618  
1743.000000	0.030550  
1742.000000	0.031392  
1741.000000	0.031088  
1740.000000	0.029623  
1739.000000	0.027321  
1738.000000	0.024849  
1737.000000	0.022540  
1736.000000	0.020155  
1735.000000	0.017297  
1734.000000	0.014256  
1733.000000	0.011950  
1732.000000	0.010482  
1731.000000	0.009411  
1730.000000	0.008539  
1729.000000	0.007870  
1728.000000	0.007385  
1727.000000	0.007002  
1726.000000	0.006658  
1725.000000	0.006313  
1724.000000	0.005953  
1723.000000	0.005601  
1722.000000	0.005300  
1721.000000	0.005056  
1720.000000	0.004837  
1719.000000	0.004615  
1718.000000	0.004376  
1717.000000	0.004111  
1716.000000	0.003878  
1715.000000	0.003765  
1714.000000	0.003769  
1713.000000	0.003796  
1712.000000	0.003754  
1711.000000	0.003632  
1710.000000	0.003491  
1709.000000	0.003376  
1708.000000	0.003287  
1707.000000	0.003233  
1706.000000	0.003241  
1705.000000	0.003319  
1704.000000	0.003465  
1703.000000	0.003697  
1702.000000	0.003978  
1701.000000	0.004092  
1700.000000	0.003848  
1699.000000	0.003543  
1698.000000	0.003420  
1697.000000	0.003423  
1696.000000	0.003418  
1695.000000	0.003394  
1694.000000	0.003366  
1693.000000	0.003305  
1692.000000	0.003229  
1691.000000	0.003168  
1690.000000	0.003146  
1689.000000	0.003153  
1688.000000	0.003155  
1687.000000	0.003143  
1686.000000	0.003121  
1685.000000	0.003084  
1684.000000	0.003021  
1683.000000	0.003038  
1682.000000	0.003108  
1681.000000	0.003157  
1680.000000	0.003151  
1679.000000	0.003089  
1678.000000	0.002981  
1677.000000	0.002840  
1676.000000	0.002708  
1675.000000	0.002685  
1674.000000	0.002830  
1673.000000	0.003049  
1672.000000	0.003232  
1671.000000	0.003331  
1670.000000	0.003351  
1669.000000	0.003347  
1668.000000	0.003355  
1667.000000	0.003355  
1666.000000	0.003360  
1665.000000	0.003406  
1664.000000	0.003500  
1663.000000	0.003609  
1662.000000	0.003702  
1661.000000	0.003776  
1660.000000	0.003826  
1659.000000	0.003834  
1658.000000	0.003791  
1657.000000	0.003707  
1656.000000	0.003637  
1655.000000	0.003622  
1654.000000	0.003693  
1653.000000	0.003820  
1652.000000	0.004048  
1651.000000	0.004127  
1650.000000	0.004099  
1649.000000	0.004094  
1648.000000	0.004129  
1647.000000	0.004080  
1646.000000	0.003938  
1645.000000	0.003792  
1644.000000	0.003634  
1643.000000	0.003493  
1642.000000	0.003434  
1641.000000	0.003458  
1640.000000	0.003499  
1639.000000	0.003515  
1638.000000	0.003535  
1637.000000	0.003593  
1636.000000	0.003644  
1635.000000	0.003644  
1634.000000	0.003641  
1633.000000	0.003642  
1632.000000	0.003644  
1631.000000	0.003628  
1630.000000	0.003584  
1629.000000	0.003546  
1628.000000	0.003554  
1627.000000	0.003593  
1626.000000	0.003626  
1625.000000	0.003640  
1624.000000	0.003640  
1623.000000	0.003634  
1622.000000	0.003644  
1621.000000	0.003687  
1620.000000	0.003748  
1619.000000	0.003812  
1618.000000	0.003865  
1617.000000	0.003921  
1616.000000	0.004026  
1615.000000	0.004153  
1614.000000	0.004248  
1613.000000	0.004319  
1612.000000	0.004388  
1611.000000	0.004463  
1610.000000	0.004546  
1609.000000	0.004635  
1608.000000	0.004698  
1607.000000	0.004683  
1606.000000	0.004590  
1605.000000	0.004458  
1604.000000	0.004321  
1603.000000	0.004189  
1602.000000	0.004079  
1601.000000	0.004011  
1600.000000	0.003961  
1599.000000	0.003876  
1598.000000	0.003754  
1597.000000	0.003653  
1596.000000	0.003624  
1595.000000	0.003656  
1594.000000	0.003710  
1593.000000	0.003767  
1592.000000	0.003840  
1591.000000	0.003926  
1590.000000	0.004002  
1589.000000	0.004037  
1588.000000	0.004013  
1587.000000	0.003936  
1586.000000	0.003851  
1585.000000	0.003813  
1584.000000	0.003836  
1583.000000	0.003886  
1582.000000	0.003923  
1581.000000	0.003944  
1580.000000	0.003978  
1579.000000	0.004046  
1578.000000	0.004114  
1577.000000	0.004090  
1576.000000	0.003942  
1575.000000	0.003817  
1574.000000	0.003836  
1573.000000	0.003989  
1572.000000	0.004186  
1571.000000	0.004293  
1570.000000	0.004227  
1569.000000	0.004090  
1568.000000	0.004015  
1567.000000	0.003968  
1566.000000	0.003888  
1565.000000	0.003760  
1564.000000	0.003602  
1563.000000	0.003453  
1562.000000	0.003366  
1561.000000	0.003407  
1560.000000	0.003587  
1559.000000	0.003599  
1558.000000	0.003440  
1557.000000	0.003504  
1556.000000	0.003693  
1555.000000	0.003902  
1554.000000	0.004070  
1553.000000	0.004126  
1552.000000	0.004023  
1551.000000	0.003806  
1550.000000	0.003593  
1549.000000	0.003502  
1548.000000	0.003521  
1547.000000	0.003571  
1546.000000	0.003628  
1545.000000	0.003688  
1544.000000	0.003702  
1543.000000	0.003666  
1542.000000	0.003660  
1541.000000	0.003702  
1540.000000	0.003683  
1539.000000	0.003681  
1538.000000	0.003787  
1537.000000	0.003922  
1536.000000	0.004044  
1535.000000	0.004127  
1534.000000	0.004146  
1533.000000	0.004109  
1532.000000	0.004076  
1531.000000	0.004048  
1530.000000	0.003997  
1529.000000	0.003929  
1528.000000	0.003890  
1527.000000	0.003951  
1526.000000	0.004160  
1525.000000	0.004442  
1524.000000	0.004655  
1523.000000	0.004734  
1522.000000	0.004740  
1521.000000	0.004775  
1520.000000	0.004852  
1519.000000	0.004885  
1518.000000	0.004878  
1517.000000	0.004895  
1516.000000	0.004983  
1515.000000	0.005162  
1514.000000	0.005423  
1513.000000	0.005714  
1512.000000	0.005922  
1511.000000	0.005985  
1510.000000	0.006001  
1509.000000	0.006142  
1508.000000	0.006449  
1507.000000	0.006751  
1506.000000	0.007062  
1505.000000	0.007405  
1504.000000	0.007564  
1503.000000	0.007581  
1502.000000	0.007596  
1501.000000	0.007650  
1500.000000	0.007669  
1499.000000	0.007651  
1498.000000	0.007797  
1497.000000	0.008249  
1496.000000	0.008768  
1495.000000	0.009086  
1494.000000	0.009270  
1493.000000	0.009449  
1492.000000	0.009578  
1491.000000	0.009588  
1490.000000	0.009628  
1489.000000	0.009892  
1488.000000	0.010300  
1487.000000	0.010713  
1486.000000	0.011148  
1485.000000	0.011664  
1484.000000	0.012245  
1483.000000	0.012905  
1482.000000	0.013745  
1481.000000	0.014783  
1480.000000	0.015873  
1479.000000	0.016985  
1478.000000	0.018342  
1477.000000	0.020117  
1476.000000	0.022185  
1475.000000	0.024565  
1474.000000	0.027996  
1473.000000	0.033352  
1472.000000	0.040160  
1471.000000	0.047045  
1470.000000	0.053467  
1469.000000	0.059427  
1468.000000	0.064718  
1467.000000	0.069139  
1466.000000	0.072818  
1465.000000	0.075902  
1464.000000	0.078226  
1463.000000	0.079761  
1462.000000	0.080829  
1461.000000	0.081715  
1460.000000	0.082531  
1459.000000	0.083385  
1458.000000	0.084254  
1457.000000	0.084406  
1456.000000	0.083178  
1455.000000	0.081098  
1454.000000	0.078741  
1453.000000	0.076137  
1452.000000	0.073271  
1451.000000	0.070406  
1450.000000	0.067758  
1449.000000	0.065156  
1448.000000	0.062341  
1447.000000	0.059409  
1446.000000	0.056533  
1445.000000	0.053597  
1444.000000	0.050433  
1443.000000	0.047099  
1442.000000	0.043820  
1441.000000	0.040796  
1440.000000	0.038106  
1439.000000	0.035651  
1438.000000	0.033140  
1437.000000	0.030397  
1436.000000	0.027821  
1435.000000	0.025872  
1434.000000	0.024335  
1433.000000	0.022783  
1432.000000	0.021079  
1431.000000	0.019360  
1430.000000	0.017796  
1429.000000	0.016481  
1428.000000	0.015481  
1427.000000	0.014793  
1426.000000	0.014272  
1425.000000	0.013758  
1424.000000	0.013238  
1423.000000	0.012805  
1422.000000	0.012465  
1421.000000	0.012122  
1420.000000	0.011728  
1419.000000	0.011342  
1418.000000	0.011037  
1417.000000	0.010796  
1416.000000	0.010589  
1415.000000	0.010419  
1414.000000	0.010262  
1413.000000	0.010071  
1412.000000	0.009841  
1411.000000	0.009596  
1410.000000	0.009358  
1409.000000	0.009168  
1408.000000	0.009090  
1407.000000	0.009155  
1406.000000	0.009303  
1405.000000	0.009450  
1404.000000	0.009590  
1403.000000	0.009748  
1402.000000	0.009898  
1401.000000	0.010014  
1400.000000	0.010144  
1399.000000	0.010331  
1398.000000	0.010534  
1397.000000	0.010707  
1396.000000	0.010897  
1395.000000	0.011183  
1394.000000	0.011580  
1393.000000	0.012063  
1392.000000	0.012635  
1391.000000	0.013337  
1390.000000	0.014228  
1389.000000	0.015448  
1388.000000	0.017215  
1387.000000	0.019567  
1386.000000	0.022222  
1385.000000	0.024924  
1384.000000	0.027731  
1383.000000	0.030858  
1382.000000	0.034430  
1381.000000	0.038376  
1380.000000	0.042336  
1379.000000	0.045611  
1378.000000	0.047444  
1377.000000	0.047490  
1376.000000	0.045840  
1375.000000	0.042804  
1374.000000	0.038984  
1373.000000	0.035230  
1372.000000	0.032119  
1371.000000	0.029771  
1370.000000	0.028151  
1369.000000	0.027229  
1368.000000	0.026835  
1367.000000	0.026580  
1366.000000	0.026048  
1365.000000	0.024997  
1364.000000	0.023419  
1363.000000	0.021569  
1362.000000	0.019869  
1361.000000	0.018611  
1360.000000	0.017784  
1359.000000	0.017229  
1358.000000	0.016823  
1357.000000	0.016527  
1356.000000	0.016344  
1355.000000	0.016266  
1354.000000	0.016250  
1353.000000	0.016231  
1352.000000	0.016163  
1351.000000	0.016040  
1350.000000	0.015873  
1349.000000	0.015687  
1348.000000	0.015488  
1347.000000	0.015261  
1346.000000	0.015003  
1345.000000	0.014765  
1344.000000	0.014611  
1343.000000	0.014543  
1342.000000	0.014503  
1341.000000	0.014428  
1340.000000	0.014287  
1339.000000	0.014065  
1338.000000	0.013755  
1337.000000	0.013384  
1336.000000	0.013007  
1335.000000	0.012671  
1334.000000	0.012389  
1333.000000	0.012160  
1332.000000	0.011988  
1331.000000	0.011868  
1330.000000	0.011760  
1329.000000	0.011636  
1328.000000	0.011519  
1327.000000	0.011450  
1326.000000	0.011428  
1325.000000	0.011422  
1324.000000	0.011415  
1323.000000	0.011414  
1322.000000	0.011421  
1321.000000	0.011431  
1320.000000	0.011452  
1319.000000	0.011498  
1318.000000	0.011573  
1317.000000	0.011673  
1316.000000	0.011790  
1315.000000	0.011917  
1314.000000	0.012045  
1313.000000	0.012169  
1312.000000	0.012300  
1311.000000	0.012452  
1310.000000	0.012628  
1309.000000	0.012809  
1308.000000	0.012971  
1307.000000	0.013093  
1306.000000	0.013168  
1305.000000	0.013205  
1304.000000	0.013208  
1303.000000	0.013170  
1302.000000	0.013083  
1301.000000	0.012969  
1300.000000	0.012861  
1299.000000	0.012775  
1298.000000	0.012692  
1297.000000	0.012585  
1296.000000	0.012444  
1295.000000	0.012265  
1294.000000	0.012050  
1293.000000	0.011810  
1292.000000	0.011587  
1291.000000	0.011429  
1290.000000	0.011364  
1289.000000	0.011381  
1288.000000	0.011439  
1287.000000	0.011504  
1286.000000	0.011574  
1285.000000	0.011663  
1284.000000	0.011770  
1283.000000	0.011857  
1282.000000	0.011900  
1281.000000	0.011927  
1280.000000	0.011988  
1279.000000	0.012090  
1278.000000	0.012195  
1277.000000	0.012284  
1276.000000	0.012382  
1275.000000	0.012507  
1274.000000	0.012641  
1273.000000	0.012760  
1272.000000	0.012856  
1271.000000	0.012915  
1270.000000	0.012917  
1269.000000	0.012874  
1268.000000	0.012837  
1267.000000	0.012834  
1266.000000	0.012827  
1265.000000	0.012765  
1264.000000	0.012657  
1263.000000	0.012576  
1262.000000	0.012576  
1261.000000	0.012643  
1260.000000	0.012719  
1259.000000	0.012763  
1258.000000	0.012782  
1257.000000	0.012800  
1256.000000	0.012822  
1255.000000	0.012831  
1254.000000	0.012844  
1253.000000	0.012932  
1252.000000	0.013135  
1251.000000	0.013390  
1250.000000	0.013577  
1249.000000	0.013661  
1248.000000	0.013726  
1247.000000	0.013862  
1246.000000	0.014055  
1245.000000	0.014217  
1244.000000	0.014290  
1243.000000	0.014277  
1242.000000	0.014208  
1241.000000	0.014111  
1240.000000	0.014003  
1239.000000	0.013875  
1238.000000	0.013702  
1237.000000	0.013491  
1236.000000	0.013301  
1235.000000	0.013177  
1234.000000	0.013087  
1233.000000	0.012954  
1232.000000	0.012751  
1231.000000	0.012517  
1230.000000	0.012289  
1229.000000	0.012072  
1228.000000	0.011872  
1227.000000	0.011723  
1226.000000	0.011635  
1225.000000	0.011577  
1224.000000	0.011519  
1223.000000	0.011474  
1222.000000	0.011461  
1221.000000	0.011456  
1220.000000	0.011410  
1219.000000	0.011325  
1218.000000	0.011263  
1217.000000	0.011289  
1216.000000	0.011396  
1215.000000	0.011515  
1214.000000	0.011582  
1213.000000	0.011586  
1212.000000	0.011583  
1211.000000	0.011640  
1210.000000	0.011771  
1209.000000	0.011915  
1208.000000	0.011995  
1207.000000	0.012004  
1206.000000	0.012022  
1205.000000	0.012121  
1204.000000	0.012288  
1203.000000	0.012445  
1202.000000	0.012558  
1201.000000	0.012676  
1200.000000	0.012862  
1199.000000	0.013127  
1198.000000	0.013440  
1197.000000	0.013781  
1196.000000	0.014138  
1195.000000	0.014501  
1194.000000	0.014863  
1193.000000	0.015237  
1192.000000	0.015620  
1191.000000	0.015966  
1190.000000	0.016231  
1189.000000	0.016430  
1188.000000	0.016634  
1187.000000	0.016901  
1186.000000	0.017243  
1185.000000	0.017642  
1184.000000	0.018076  
1183.000000	0.018528  
1182.000000	0.018991  
1181.000000	0.019464  
1180.000000	0.019918  
1179.000000	0.020299  
1178.000000	0.020578  
1177.000000	0.020797  
1176.000000	0.021013  
1175.000000	0.021223  
1174.000000	0.021370  
1173.000000	0.021435  
1172.000000	0.021450  
1171.000000	0.021435  
1170.000000	0.021367  
1169.000000	0.021224  
1168.000000	0.021021  
1167.000000	0.020777  
1166.000000	0.020490  
1165.000000	0.020142  
1164.000000	0.019716  
1163.000000	0.019213  
1162.000000	0.018673  
1161.000000	0.018182  
1160.000000	0.017809  
1159.000000	0.017530  
1158.000000	0.017241  
1157.000000	0.016881  
1156.000000	0.016476  
1155.000000	0.016066  
1154.000000	0.015647  
1153.000000	0.015217  
1152.000000	0.014826  
1151.000000	0.014530  
1150.000000	0.014322  
1149.000000	0.014148  
1148.000000	0.013980  
1147.000000	0.013819  
1146.000000	0.013658  
1145.000000	0.013470  
1144.000000	0.013237  
1143.000000	0.012954  
1142.000000	0.012615  
1141.000000	0.012231  
1140.000000	0.011843  
1139.000000	0.011504  
1138.000000	0.011257  
1137.000000	0.011117  
1136.000000	0.011061  
1135.000000	0.011005  
1134.000000	0.010855  
1133.000000	0.010602  
1132.000000	0.010348  
1131.000000	0.010195  
1130.000000	0.010152  
1129.000000	0.010176  
1128.000000	0.010254  
1127.000000	0.010394  
1126.000000	0.010555  
1125.000000	0.010677  
1124.000000	0.010752  
1123.000000	0.010821  
1122.000000	0.010899  
1121.000000	0.010961  
1120.000000	0.010999  
1119.000000	0.011022  
1118.000000	0.011017  
1117.000000	0.010973  
1116.000000	0.010919  
1115.000000	0.010894  
1114.000000	0.010869  
1113.000000	0.010767  
1112.000000	0.010574  
1111.000000	0.010353  
1110.000000	0.010160  
1109.000000	0.009994  
1108.000000	0.009863  
1107.000000	0.009833  
1106.000000	0.009947  
1105.000000	0.010129  
1104.000000	0.010241  
1103.000000	0.010210  
1102.000000	0.010097  
1101.000000	0.010032  
1100.000000	0.010091  
1099.000000	0.010252  
1098.000000	0.010427  
1097.000000	0.010556  
1096.000000	0.010650  
1095.000000	0.010732  
1094.000000	0.010775  
1093.000000	0.010736  
1092.000000	0.010631  
1091.000000	0.010534  
1090.000000	0.010476  
1089.000000	0.010404  
1088.000000	0.010260  
1087.000000	0.010069  
1086.000000	0.009910  
1085.000000	0.009830  
1084.000000	0.009809  
1083.000000	0.009791  
1082.000000	0.009738  
1081.000000	0.009673  
1080.000000	0.009673  
1079.000000	0.009804  
1078.000000	0.010046  
1077.000000	0.010322  
1076.000000	0.010591  
1075.000000	0.010880  
1074.000000	0.011198  
1073.000000	0.011469  
1072.000000	0.011603  
1071.000000	0.011607  
1070.000000	0.011578  
1069.000000	0.011604  
1068.000000	0.011680  
1067.000000	0.011746  
1066.000000	0.011758  
1065.000000	0.011740  
1064.000000	0.011746  
1063.000000	0.011786  
1062.000000	0.011780  
1061.000000	0.011619  
1060.000000	0.011292  
1059.000000	0.010921  
1058.000000	0.010661  
1057.000000	0.010569  
1056.000000	0.010604  
1055.000000	0.010699  
1054.000000	0.010778  
1053.000000	0.010725  
1052.000000	0.010439  
1051.000000	0.009984  
1050.000000	0.009606  
1049.000000	0.009522  
1048.000000	0.009697  
1047.000000	0.009913  
1046.000000	0.010011  
1045.000000	0.010000  
1044.000000	0.009979  
1043.000000	0.010037  
1042.000000	0.010212  
1041.000000	0.010476  
1040.000000	0.010729  
1039.000000	0.010840  
1038.000000	0.010762  
1037.000000	0.010594  
1036.000000	0.010494  
1035.000000	0.010550  
1034.000000	0.010729  
1033.000000	0.010945  
1032.000000	0.011122  
1031.000000	0.011210  
1030.000000	0.011201  
1029.000000	0.011133  
1028.000000	0.011065  
1027.000000	0.011025  
1026.000000	0.011010  
1025.000000	0.011014  
1024.000000	0.011031  
1023.000000	0.011032  
1022.000000	0.010971  
1021.000000	0.010835  
1020.000000	0.010650  
1019.000000	0.010444  
1018.000000	0.010239  
1017.000000	0.010084  
1016.000000	0.010052  
1015.000000	0.010156  
1014.000000	0.010310  
1013.000000	0.010384  
1012.000000	0.010317  
1011.000000	0.010144  
1010.000000	0.009957  
1009.000000	0.009840  
1008.000000	0.009826  
1007.000000	0.009871  
1006.000000	0.009902  
1005.000000	0.009894  
1004.000000	0.009881  
1003.000000	0.009892  
1002.000000	0.009911  
1001.000000	0.009898  
1000.000000	0.009822  
999.000000	 0.009666  
998.000000	 0.009426  
997.000000	 0.009167  
996.000000	 0.009010  
995.000000	 0.009024  
994.000000	 0.009145  
993.000000	 0.009250  
992.000000	 0.009284  
991.000000	 0.009279  
990.000000	 0.009280  
989.000000	 0.009311  
988.000000	 0.009384  
987.000000	 0.009490  
986.000000	 0.009583  
985.000000	 0.009617  
984.000000	 0.009616  
983.000000	 0.009646  
982.000000	 0.009727  
981.000000	 0.009817  
980.000000	 0.009891  
979.000000	 0.009981  
978.000000	 0.010123  
977.000000	 0.010305  
976.000000	 0.010486  
975.000000	 0.010635  
974.000000	 0.010742  
973.000000	 0.010812  
972.000000	 0.010888  
971.000000	 0.011026  
970.000000	 0.011237  
969.000000	 0.011466  
968.000000	 0.011639  
967.000000	 0.011718  
966.000000	 0.011699  
965.000000	 0.011587  
964.000000	 0.011407  
963.000000	 0.011213  
962.000000	 0.011057  
961.000000	 0.010960  
960.000000	 0.010906  
959.000000	 0.010865  
958.000000	 0.010812  
957.000000	 0.010746  
956.000000	 0.010702  
955.000000	 0.010716  
954.000000	 0.010774  
953.000000	 0.010810  
952.000000	 0.010788  
951.000000	 0.010744  
950.000000	 0.010738  
949.000000	 0.010769  
948.000000	 0.010779  
947.000000	 0.010739  
946.000000	 0.010690  
945.000000	 0.010689  
944.000000	 0.010750  
943.000000	 0.010828  
942.000000	 0.010858  
941.000000	 0.010785  
940.000000	 0.010585  
939.000000	 0.010278  
938.000000	 0.009932  
937.000000	 0.009633  
936.000000	 0.009424  
935.000000	 0.009293  
934.000000	 0.009209  
933.000000	 0.009171  
932.000000	 0.009199  
931.000000	 0.009272  
930.000000	 0.009316  
929.000000	 0.009276  
928.000000	 0.009193  
927.000000	 0.009168  
926.000000	 0.009260  
925.000000	 0.009428  
924.000000	 0.009588  
923.000000	 0.009692  
922.000000	 0.009747  
921.000000	 0.009764  
920.000000	 0.009735  
919.000000	 0.009650  
918.000000	 0.009549  
917.000000	 0.009513  
916.000000	 0.009594  
915.000000	 0.009745  
914.000000	 0.009844  
913.000000	 0.009790  
912.000000	 0.009580  
911.000000	 0.009307  
910.000000	 0.009106  
909.000000	 0.009076  
908.000000	 0.009210  
907.000000	 0.009378  
906.000000	 0.009411  
905.000000	 0.009261  
904.000000	 0.009068  
903.000000	 0.009022  
902.000000	 0.009161  
901.000000	 0.009346  
900.000000	 0.009429  
899.000000	 0.009404  
898.000000	 0.009385  
897.000000	 0.009453  
896.000000	 0.009574  
895.000000	 0.009662  
894.000000	 0.009681  
893.000000	 0.009686  
892.000000	 0.009750  
891.000000	 0.009884  
890.000000	 0.010029  
889.000000	 0.010112  
888.000000	 0.010105  
887.000000	 0.010019  
886.000000	 0.009888  
885.000000	 0.009751  
884.000000	 0.009645  
883.000000	 0.009577  
882.000000	 0.009528  
881.000000	 0.009508  
880.000000	 0.009564  
879.000000	 0.009710  
878.000000	 0.009863  
877.000000	 0.009914  
876.000000	 0.009843  
875.000000	 0.009726  
874.000000	 0.009616  
873.000000	 0.009477  
872.000000	 0.009250  
871.000000	 0.008977  
870.000000	 0.008799  
869.000000	 0.008843  
868.000000	 0.009087  
867.000000	 0.009353  
866.000000	 0.009448  
865.000000	 0.009320  
864.000000	 0.009078  
863.000000	 0.008870  
862.000000	 0.008762  
861.000000	 0.008755  
860.000000	 0.008841  
859.000000	 0.008989  
858.000000	 0.009119  
857.000000	 0.009164  
856.000000	 0.009171  
855.000000	 0.009280  
854.000000	 0.009568  
853.000000	 0.009960  
852.000000	 0.010319  
851.000000	 0.010587  
850.000000	 0.010802  
849.000000	 0.010984  
848.000000	 0.011079  
847.000000	 0.011021  
846.000000	 0.010828  
845.000000	 0.010609  
844.000000	 0.010463  
843.000000	 0.010392  
842.000000	 0.010325  
841.000000	 0.010208  
840.000000	 0.010071  
839.000000	 0.009994  
838.000000	 0.010023  
837.000000	 0.010110  
836.000000	 0.010114  
835.000000	 0.009886  
834.000000	 0.009415  
833.000000	 0.008888  
832.000000	 0.008568  
831.000000	 0.008565  
830.000000	 0.008747  
829.000000	 0.008916  
828.000000	 0.009030  
827.000000	 0.009209  
826.000000	 0.009514  
825.000000	 0.009831  
824.000000	 0.009990  
823.000000	 0.009954  
822.000000	 0.009834  
821.000000	 0.009782  
820.000000	 0.009884  
819.000000	 0.010136  
818.000000	 0.010461  
817.000000	 0.010775  
816.000000	 0.011025  
815.000000	 0.011167  
814.000000	 0.011157  
813.000000	 0.010986  
812.000000	 0.010752  
811.000000	 0.010621  
810.000000	 0.010716  
809.000000	 0.011045  
808.000000	 0.011507  
807.000000	 0.011941  
806.000000	 0.012173  
805.000000	 0.012097  
804.000000	 0.011748  
803.000000	 0.011287  
802.000000	 0.010882  
801.000000	 0.010595  
800.000000	 0.010374  
799.000000	 0.010136  
798.000000	 0.009848  
797.000000	 0.009557  
796.000000	 0.009344  
795.000000	 0.009236  
794.000000	 0.009182  
793.000000	 0.009140  
792.000000	 0.009158  
791.000000	 0.009309  
790.000000	 0.009545  
789.000000	 0.009686  
788.000000	 0.009610  
787.000000	 0.009423  
786.000000	 0.009380  
785.000000	 0.009638  
784.000000	 0.010112  
783.000000	 0.010588  
782.000000	 0.010933  
781.000000	 0.011183  
780.000000	 0.011434  
779.000000	 0.011723  
778.000000	 0.012022  
777.000000	 0.012326  
776.000000	 0.012678  
775.000000	 0.013096  
774.000000	 0.013525  
773.000000	 0.013892  
772.000000	 0.014190  
771.000000	 0.014471  
770.000000	 0.014767  
769.000000	 0.015038  
768.000000	 0.015201  
767.000000	 0.015183  
766.000000	 0.014960  
765.000000	 0.014569  
764.000000	 0.014112  
763.000000	 0.013743  
762.000000	 0.013602  
761.000000	 0.013720  
760.000000	 0.013979  
759.000000	 0.014186  
758.000000	 0.014237  
757.000000	 0.014208  
756.000000	 0.014253  
755.000000	 0.014439  
754.000000	 0.014697  
753.000000	 0.014932  
752.000000	 0.015112  
751.000000	 0.015250  
750.000000	 0.015370  
749.000000	 0.015529  
748.000000	 0.015835  
747.000000	 0.016396  
746.000000	 0.017274  
745.000000	 0.018478  
744.000000	 0.019938  
743.000000	 0.021445  
742.000000	 0.022677  
741.000000	 0.023394  
740.000000	 0.023621  
739.000000	 0.023588  
738.000000	 0.023494  
737.000000	 0.023381  
736.000000	 0.023206  
735.000000	 0.022960  
734.000000	 0.022714  
733.000000	 0.022588  
732.000000	 0.022672  
731.000000	 0.022956  
730.000000	 0.023361  
729.000000	 0.023890  
728.000000	 0.024670  
727.000000	 0.025778  
726.000000	 0.027083  
725.000000	 0.028319  
724.000000	 0.029303  
723.000000	 0.030000  
722.000000	 0.030333  
721.000000	 0.030035  
720.000000	 0.028841  
719.000000	 0.026872  
718.000000	 0.024652  
717.000000	 0.022733  
716.000000	 0.021375  
715.000000	 0.020477  
714.000000	 0.019712  
713.000000	 0.018820  
712.000000	 0.017803  
711.000000	 0.016867  
710.000000	 0.016185  
709.000000	 0.015792  
708.000000	 0.015639  
707.000000	 0.015671  
706.000000	 0.015875  
705.000000	 0.016255  
704.000000	 0.016745  
703.000000	 0.017172  
702.000000	 0.017353  
701.000000	 0.017265  
700.000000	 0.017103  
699.000000	 0.017024  
698.000000	 0.016900  
697.000000	 0.016424  
696.000000	 0.015524  
695.000000	 0.014581  
694.000000	 0.014055  
693.000000	 0.013948  
692.000000	 0.013794  
691.000000	 0.013162  
690.000000	 0.012118  
689.000000	 0.011084  
688.000000	 0.010311  
687.000000	 0.009689  
686.000000	 0.009072  
685.000000	 0.008555  
684.000000	 0.008305  
683.000000	 0.008279  
682.000000	 0.008308  
681.000000	 0.008325  
680.000000	 0.008346  
679.000000	 0.008295  
678.000000	 0.008097  
677.000000	 0.007931  
676.000000	 0.007922  
675.000000	 0.007968  
674.000000	 0.007866  
673.000000	 0.007548  
672.000000	 0.006811  
671.000000	 0.005065  
670.000000	 0.001606  
669.000000	 -0.003582 
668.000000	 -0.007712 
667.000000	 -0.005867 
666.000000	 -0.000776 
665.000000	 0.003082  
664.000000	 0.005282  
663.000000	 0.006630  
662.000000	 0.007478  
661.000000	 0.007752  
660.000000	 0.007619  
659.000000	 0.007557  
658.000000	 0.007686  
657.000000	 0.007577  
656.000000	 0.006778  
655.000000	 0.005560  
654.000000	 0.004729  
653.000000	 0.004740  
652.000000	 0.005262  
651.000000	 0.005625  
650.000000	 0.005514  

