PE IR                   SPECTRUM    ASCII       PEDS        1.60        
  -1
NB4-20~3.ASC
17/04/10
13:46:52.00
17/04/10
13:46:52.00
Admin

650.000000
6









SPECTRUM ONE,CPU32 MAIN 00.02.5000 17-APRIL-2002 13:00:00
MIR TGS
MIR
OPTKBR
68128
0.200000

4.000000
STRONG
RATIO
SPECTRUM
MAGNITUDE

DOUBLE

COMBINED


0


#HDR
-1
-1
#GR
CM-1
A
0.00000011920928955078
0.0
4000.000000
-1.000000
3351
8
0.209333
-0.019811
#DATA
4000.000000	0.002116  
3999.000000	0.001979  
3998.000000	0.001917  
3997.000000	0.001948  
3996.000000	0.002094  
3995.000000	0.002296  
3994.000000	0.002455  
3993.000000	0.002493  
3992.000000	0.002408  
3991.000000	0.002265  
3990.000000	0.002145  
3989.000000	0.002084  
3988.000000	0.002057  
3987.000000	0.002023  
3986.000000	0.001973  
3985.000000	0.001938  
3984.000000	0.001934  
3983.000000	0.001937  
3982.000000	0.001907  
3981.000000	0.001852  
3980.000000	0.001823  
3979.000000	0.001860  
3978.000000	0.001943  
3977.000000	0.002021  
3976.000000	0.002075  
3975.000000	0.002136  
3974.000000	0.002226  
3973.000000	0.002308  
3972.000000	0.002315  
3971.000000	0.002227  
3970.000000	0.002098  
3969.000000	0.001992  
3968.000000	0.001917  
3967.000000	0.001835  
3966.000000	0.001739  
3965.000000	0.001690  
3964.000000	0.001763  
3963.000000	0.001957  
3962.000000	0.002184  
3961.000000	0.002346  
3960.000000	0.002421  
3959.000000	0.002444  
3958.000000	0.002442  
3957.000000	0.002395  
3956.000000	0.002279  
3955.000000	0.002111  
3954.000000	0.001955  
3953.000000	0.001876  
3952.000000	0.001892  
3951.000000	0.001973  
3950.000000	0.002080  
3949.000000	0.002197  
3948.000000	0.002318  
3947.000000	0.002415  
3946.000000	0.002432  
3945.000000	0.002340  
3944.000000	0.002180  
3943.000000	0.002050  
3942.000000	0.002005  
3941.000000	0.002018  
3940.000000	0.002042  
3939.000000	0.002076  
3938.000000	0.002151  
3937.000000	0.002261  
3936.000000	0.002347  
3935.000000	0.002353  
3934.000000	0.002293  
3933.000000	0.002243  
3932.000000	0.002269  
3931.000000	0.002357  
3930.000000	0.002444  
3929.000000	0.002471  
3928.000000	0.002427  
3927.000000	0.002352  
3926.000000	0.002312  
3925.000000	0.002356  
3924.000000	0.002465  
3923.000000	0.002590  
3922.000000	0.002696  
3921.000000	0.002775  
3920.000000	0.002805  
3919.000000	0.002767  
3918.000000	0.002675  
3917.000000	0.002587  
3916.000000	0.002548  
3915.000000	0.002545  
3914.000000	0.002534  
3913.000000	0.002475  
3912.000000	0.002356  
3911.000000	0.002197  
3910.000000	0.002050  
3909.000000	0.001989  
3908.000000	0.002064  
3907.000000	0.002281  
3906.000000	0.002589  
3905.000000	0.002915  
3904.000000	0.003166  
3903.000000	0.003237  
3902.000000	0.003097  
3901.000000	0.002856  
3900.000000	0.002692  
3899.000000	0.002692  
3898.000000	0.002784  
3897.000000	0.002840  
3896.000000	0.002801  
3895.000000	0.002680  
3894.000000	0.002536  
3893.000000	0.002452  
3892.000000	0.002502  
3891.000000	0.002643  
3890.000000	0.002737  
3889.000000	0.002690  
3888.000000	0.002517  
3887.000000	0.002334  
3886.000000	0.002293  
3885.000000	0.002412  
3884.000000	0.002538  
3883.000000	0.002523  
3882.000000	0.002362  
3881.000000	0.002198  
3880.000000	0.002161  
3879.000000	0.002235  
3878.000000	0.002327  
3877.000000	0.002383  
3876.000000	0.002425  
3875.000000	0.002559  
3874.000000	0.002864  
3873.000000	0.003262  
3872.000000	0.003579  
3871.000000	0.003726  
3870.000000	0.003759  
3869.000000	0.003729  
3868.000000	0.003620  
3867.000000	0.003429  
3866.000000	0.003195  
3865.000000	0.002982  
3864.000000	0.002853  
3863.000000	0.002817  
3862.000000	0.002840  
3861.000000	0.002855  
3860.000000	0.002827  
3859.000000	0.002802  
3858.000000	0.002869  
3857.000000	0.003045  
3856.000000	0.003190  
3855.000000	0.003105  
3854.000000	0.002944  
3853.000000	0.002936  
3852.000000	0.002964  
3851.000000	0.002928  
3850.000000	0.002907  
3849.000000	0.002959  
3848.000000	0.003066  
3847.000000	0.003161  
3846.000000	0.003216  
3845.000000	0.003286  
3844.000000	0.003453  
3843.000000	0.003711  
3842.000000	0.003945  
3841.000000	0.004032  
3840.000000	0.003948  
3839.000000	0.003777  
3838.000000	0.003615  
3837.000000	0.003510  
3836.000000	0.003468  
3835.000000	0.003476  
3834.000000	0.003510  
3833.000000	0.003525  
3832.000000	0.003476  
3831.000000	0.003349  
3830.000000	0.003166  
3829.000000	0.002960  
3828.000000	0.002767  
3827.000000	0.002644  
3826.000000	0.002666  
3825.000000	0.002882  
3824.000000	0.003260  
3823.000000	0.003667  
3822.000000	0.003978  
3821.000000	0.004108  
3820.000000	0.003952  
3819.000000	0.003500  
3818.000000	0.002921  
3817.000000	0.002474  
3816.000000	0.002334  
3815.000000	0.002415  
3814.000000	0.002514  
3813.000000	0.002556  
3812.000000	0.002580  
3811.000000	0.002616  
3810.000000	0.002638  
3809.000000	0.002615  
3808.000000	0.002632  
3807.000000	0.002820  
3806.000000	0.003174  
3805.000000	0.003533  
3804.000000	0.003716  
3803.000000	0.003619  
3802.000000	0.003345  
3801.000000	0.003091  
3800.000000	0.002922  
3799.000000	0.002824  
3798.000000	0.002804  
3797.000000	0.002868  
3796.000000	0.002965  
3795.000000	0.002997  
3794.000000	0.002905  
3793.000000	0.002722  
3792.000000	0.002523  
3791.000000	0.002369  
3790.000000	0.002280  
3789.000000	0.002236  
3788.000000	0.002201  
3787.000000	0.002155  
3786.000000	0.002111  
3785.000000	0.002101  
3784.000000	0.002123  
3783.000000	0.002139  
3782.000000	0.002111  
3781.000000	0.002055  
3780.000000	0.002056  
3779.000000	0.002162  
3778.000000	0.002305  
3777.000000	0.002381  
3776.000000	0.002364  
3775.000000	0.002312  
3774.000000	0.002293  
3773.000000	0.002336  
3772.000000	0.002442  
3771.000000	0.002623  
3770.000000	0.002881  
3769.000000	0.003132  
3768.000000	0.003233  
3767.000000	0.003110  
3766.000000	0.002827  
3765.000000	0.002545  
3764.000000	0.002387  
3763.000000	0.002372  
3762.000000	0.002442  
3761.000000	0.002537  
3760.000000	0.002639  
3759.000000	0.002762  
3758.000000	0.002898  
3757.000000	0.003002  
3756.000000	0.003055  
3755.000000	0.003125  
3754.000000	0.003379  
3753.000000	0.003969  
3752.000000	0.004789  
3751.000000	0.005402  
3750.000000	0.005461  
3749.000000	0.005136  
3748.000000	0.004840  
3747.000000	0.004818  
3746.000000	0.005038  
3745.000000	0.005300  
3744.000000	0.005329  
3743.000000	0.005029  
3742.000000	0.004617  
3741.000000	0.004384  
3740.000000	0.004461  
3739.000000	0.004798  
3738.000000	0.005216  
3737.000000	0.005537  
3736.000000	0.005657  
3735.000000	0.005552  
3734.000000	0.005302  
3733.000000	0.005053  
3732.000000	0.004888  
3731.000000	0.004798  
3730.000000	0.004738  
3729.000000	0.004662  
3728.000000	0.004537  
3727.000000	0.004371  
3726.000000	0.004208  
3725.000000	0.004073  
3724.000000	0.003949  
3723.000000	0.003786  
3722.000000	0.003544  
3721.000000	0.003220  
3720.000000	0.002861  
3719.000000	0.002553  
3718.000000	0.002379  
3717.000000	0.002361  
3716.000000	0.002442  
3715.000000	0.002535  
3714.000000	0.002593  
3713.000000	0.002678  
3712.000000	0.002914  
3711.000000	0.003274  
3710.000000	0.003562  
3709.000000	0.003671  
3708.000000	0.003684  
3707.000000	0.003740  
3706.000000	0.003858  
3705.000000	0.003888  
3704.000000	0.003662  
3703.000000	0.003189  
3702.000000	0.002714  
3701.000000	0.002470  
3700.000000	0.002470  
3699.000000	0.002578  
3698.000000	0.002687  
3697.000000	0.002780  
3696.000000	0.002904  
3695.000000	0.003101  
3694.000000	0.003344  
3693.000000	0.003516  
3692.000000	0.003474  
3691.000000	0.003216  
3690.000000	0.002965  
3689.000000	0.002937  
3688.000000	0.003056  
3687.000000	0.003117  
3686.000000	0.003056  
3685.000000	0.002972  
3684.000000	0.002991  
3683.000000	0.003112  
3682.000000	0.003203  
3681.000000	0.003151  
3680.000000	0.003008  
3679.000000	0.002916  
3678.000000	0.002984  
3677.000000	0.003252  
3676.000000	0.003726  
3675.000000	0.004202  
3674.000000	0.004398  
3673.000000	0.004284  
3672.000000	0.004024  
3671.000000	0.003793  
3670.000000	0.003710  
3669.000000	0.003700  
3668.000000	0.003589  
3667.000000	0.003349  
3666.000000	0.003060  
3665.000000	0.002769  
3664.000000	0.002475  
3663.000000	0.002170  
3662.000000	0.001887  
3661.000000	0.001690  
3660.000000	0.001622  
3659.000000	0.001681  
3658.000000	0.001862  
3657.000000	0.002183  
3656.000000	0.002618  
3655.000000	0.003050  
3654.000000	0.003365  
3653.000000	0.003484  
3652.000000	0.003384  
3651.000000	0.003177  
3650.000000	0.003096  
3649.000000	0.003189  
3648.000000	0.003280  
3647.000000	0.003276  
3646.000000	0.003234  
3645.000000	0.003225  
3644.000000	0.003273  
3643.000000	0.003359  
3642.000000	0.003440  
3641.000000	0.003465  
3640.000000	0.003410  
3639.000000	0.003304  
3638.000000	0.003215  
3637.000000	0.003206  
3636.000000	0.003307  
3635.000000	0.003518  
3634.000000	0.003803  
3633.000000	0.004077  
3632.000000	0.004239  
3631.000000	0.004243  
3630.000000	0.004216  
3629.000000	0.004330  
3628.000000	0.004445  
3627.000000	0.004320  
3626.000000	0.003999  
3625.000000	0.003682  
3624.000000	0.003493  
3623.000000	0.003391  
3622.000000	0.003229  
3621.000000	0.002923  
3620.000000	0.002590  
3619.000000	0.002431  
3618.000000	0.002468  
3617.000000	0.002561  
3616.000000	0.002609  
3615.000000	0.002652  
3614.000000	0.002815  
3613.000000	0.003165  
3612.000000	0.003610  
3611.000000	0.004002  
3610.000000	0.004249  
3609.000000	0.004328  
3608.000000	0.004253  
3607.000000	0.004045  
3606.000000	0.003740  
3605.000000	0.003396  
3604.000000	0.003089  
3603.000000	0.002913  
3602.000000	0.002967  
3601.000000	0.003268  
3600.000000	0.003699  
3599.000000	0.004056  
3598.000000	0.004182  
3597.000000	0.004056  
3596.000000	0.003793  
3595.000000	0.003572  
3594.000000	0.003508  
3593.000000	0.003574  
3592.000000	0.003641  
3591.000000	0.003584  
3590.000000	0.003378  
3589.000000	0.003165  
3588.000000	0.003165  
3587.000000	0.003405  
3586.000000	0.003665  
3585.000000	0.003749  
3584.000000	0.003639  
3583.000000	0.003423  
3582.000000	0.003210  
3581.000000	0.003087  
3580.000000	0.003081  
3579.000000	0.003132  
3578.000000	0.003128  
3577.000000	0.003015  
3576.000000	0.002851  
3575.000000	0.002733  
3574.000000	0.002678  
3573.000000	0.002613  
3572.000000	0.002488  
3571.000000	0.002362  
3570.000000	0.002356  
3569.000000	0.002544  
3568.000000	0.002849  
3567.000000	0.003087  
3566.000000	0.003157  
3565.000000	0.003135  
3564.000000	0.003130  
3563.000000	0.003152  
3562.000000	0.003149  
3561.000000	0.003104  
3560.000000	0.003074  
3559.000000	0.003121  
3558.000000	0.003232  
3557.000000	0.003330  
3556.000000	0.003324  
3555.000000	0.003179  
3554.000000	0.002944  
3553.000000	0.002726  
3552.000000	0.002622  
3551.000000	0.002642  
3550.000000	0.002710  
3549.000000	0.002734  
3548.000000	0.002679  
3547.000000	0.002594  
3546.000000	0.002569  
3545.000000	0.002642  
3544.000000	0.002759  
3543.000000	0.002846  
3542.000000	0.002898  
3541.000000	0.002980  
3540.000000	0.003129  
3539.000000	0.003274  
3538.000000	0.003283  
3537.000000	0.003094  
3536.000000	0.002792  
3535.000000	0.002541  
3534.000000	0.002443  
3533.000000	0.002495  
3532.000000	0.002639  
3531.000000	0.002819  
3530.000000	0.002998  
3529.000000	0.003137  
3528.000000	0.003196  
3527.000000	0.003148  
3526.000000	0.003001  
3525.000000	0.002799  
3524.000000	0.002623  
3523.000000	0.002562  
3522.000000	0.002650  
3521.000000	0.002828  
3520.000000	0.002987  
3519.000000	0.003061  
3518.000000	0.003076  
3517.000000	0.003104  
3516.000000	0.003180  
3515.000000	0.003276  
3514.000000	0.003337  
3513.000000	0.003330  
3512.000000	0.003270  
3511.000000	0.003216  
3510.000000	0.003234  
3509.000000	0.003340  
3508.000000	0.003469  
3507.000000	0.003534  
3506.000000	0.003507  
3505.000000	0.003443  
3504.000000	0.003424  
3503.000000	0.003486  
3502.000000	0.003584  
3501.000000	0.003648  
3500.000000	0.003637  
3499.000000	0.003568  
3498.000000	0.003497  
3497.000000	0.003474  
3496.000000	0.003510  
3495.000000	0.003574  
3494.000000	0.003615  
3493.000000	0.003584  
3492.000000	0.003448  
3491.000000	0.003229  
3490.000000	0.003028  
3489.000000	0.002963  
3488.000000	0.003084  
3487.000000	0.003342  
3486.000000	0.003639  
3485.000000	0.003888  
3484.000000	0.004023  
3483.000000	0.004002  
3482.000000	0.003851  
3481.000000	0.003660  
3480.000000	0.003528  
3479.000000	0.003486  
3478.000000	0.003497  
3477.000000	0.003512  
3476.000000	0.003516  
3475.000000	0.003534  
3474.000000	0.003593  
3473.000000	0.003673  
3472.000000	0.003695  
3471.000000	0.003583  
3470.000000	0.003352  
3469.000000	0.003118  
3468.000000	0.003014  
3467.000000	0.003079  
3466.000000	0.003251  
3465.000000	0.003430  
3464.000000	0.003537  
3463.000000	0.003536  
3462.000000	0.003455  
3461.000000	0.003365  
3460.000000	0.003331  
3459.000000	0.003363  
3458.000000	0.003432  
3457.000000	0.003517  
3456.000000	0.003607  
3455.000000	0.003677  
3454.000000	0.003706  
3453.000000	0.003720  
3452.000000	0.003769  
3451.000000	0.003854  
3450.000000	0.003920  
3449.000000	0.003938  
3448.000000	0.003952  
3447.000000	0.004012  
3446.000000	0.004094  
3445.000000	0.004135  
3444.000000	0.004114  
3443.000000	0.004074  
3442.000000	0.004058  
3441.000000	0.004086  
3440.000000	0.004173  
3439.000000	0.004333  
3438.000000	0.004534  
3437.000000	0.004659  
3436.000000	0.004583  
3435.000000	0.004299  
3434.000000	0.003976  
3433.000000	0.003841  
3432.000000	0.003976  
3431.000000	0.004229  
3430.000000	0.004361  
3429.000000	0.004241  
3428.000000	0.003926  
3427.000000	0.003567  
3426.000000	0.003305  
3425.000000	0.003221  
3424.000000	0.003322  
3423.000000	0.003543  
3422.000000	0.003780  
3421.000000	0.003964  
3420.000000	0.004087  
3419.000000	0.004174  
3418.000000	0.004246  
3417.000000	0.004320  
3416.000000	0.004405  
3415.000000	0.004479  
3414.000000	0.004511  
3413.000000	0.004516  
3412.000000	0.004557  
3411.000000	0.004665  
3410.000000	0.004772  
3409.000000	0.004745  
3408.000000	0.004511  
3407.000000	0.004126  
3406.000000	0.003746  
3405.000000	0.003526  
3404.000000	0.003534  
3403.000000	0.003732  
3402.000000	0.004026  
3401.000000	0.004316  
3400.000000	0.004516  
3399.000000	0.004565  
3398.000000	0.004471  
3397.000000	0.004346  
3396.000000	0.004348  
3395.000000	0.004545  
3394.000000	0.004852  
3393.000000	0.005093  
3392.000000	0.005134  
3391.000000	0.004965  
3390.000000	0.004689  
3389.000000	0.004446  
3388.000000	0.004321  
3387.000000	0.004296  
3386.000000	0.004293  
3385.000000	0.004280  
3384.000000	0.004308  
3383.000000	0.004430  
3382.000000	0.004609  
3381.000000	0.004748  
3380.000000	0.004796  
3379.000000	0.004760  
3378.000000	0.004650  
3377.000000	0.004452  
3376.000000	0.004195  
3375.000000	0.003986  
3374.000000	0.003941  
3373.000000	0.004075  
3372.000000	0.004280  
3371.000000	0.004433  
3370.000000	0.004502  
3369.000000	0.004548  
3368.000000	0.004640  
3367.000000	0.004777  
3366.000000	0.004905  
3365.000000	0.004976  
3364.000000	0.004987  
3363.000000	0.004949  
3362.000000	0.004879  
3361.000000	0.004812  
3360.000000	0.004795  
3359.000000	0.004838  
3358.000000	0.004889  
3357.000000	0.004893  
3356.000000	0.004858  
3355.000000	0.004829  
3354.000000	0.004807  
3353.000000	0.004749  
3352.000000	0.004632  
3351.000000	0.004498  
3350.000000	0.004414  
3349.000000	0.004413  
3348.000000	0.004497  
3347.000000	0.004644  
3346.000000	0.004799  
3345.000000	0.004883  
3344.000000	0.004849  
3343.000000	0.004737  
3342.000000	0.004642  
3341.000000	0.004623  
3340.000000	0.004647  
3339.000000	0.004636  
3338.000000	0.004571  
3337.000000	0.004520  
3336.000000	0.004559  
3335.000000	0.004687  
3334.000000	0.004824  
3333.000000	0.004898  
3332.000000	0.004897  
3331.000000	0.004846  
3330.000000	0.004765  
3329.000000	0.004688  
3328.000000	0.004661  
3327.000000	0.004710  
3326.000000	0.004785  
3325.000000	0.004809  
3324.000000	0.004760  
3323.000000	0.004691  
3322.000000	0.004650  
3321.000000	0.004625  
3320.000000	0.004596  
3319.000000	0.004596  
3318.000000	0.004680  
3317.000000	0.004837  
3316.000000	0.004974  
3315.000000	0.004998  
3314.000000	0.004907  
3313.000000	0.004780  
3312.000000	0.004719  
3311.000000	0.004777  
3310.000000	0.004933  
3309.000000	0.005096  
3308.000000	0.005146  
3307.000000	0.005024  
3306.000000	0.004795  
3305.000000	0.004622  
3304.000000	0.004629  
3303.000000	0.004795  
3302.000000	0.004996  
3301.000000	0.005131  
3300.000000	0.005193  
3299.000000	0.005200  
3298.000000	0.005138  
3297.000000	0.005000  
3296.000000	0.004838  
3295.000000	0.004730  
3294.000000	0.004710  
3293.000000	0.004755  
3292.000000	0.004843  
3291.000000	0.004960  
3290.000000	0.005054  
3289.000000	0.005047  
3288.000000	0.004918  
3287.000000	0.004742  
3286.000000	0.004609  
3285.000000	0.004536  
3284.000000	0.004477  
3283.000000	0.004409  
3282.000000	0.004358  
3281.000000	0.004355  
3280.000000	0.004391  
3279.000000	0.004440  
3278.000000	0.004491  
3277.000000	0.004554  
3276.000000	0.004639  
3275.000000	0.004753  
3274.000000	0.004891  
3273.000000	0.005036  
3272.000000	0.005148  
3271.000000	0.005175  
3270.000000	0.005088  
3269.000000	0.004910  
3268.000000	0.004690  
3267.000000	0.004478  
3266.000000	0.004326  
3265.000000	0.004300  
3264.000000	0.004448  
3263.000000	0.004726  
3262.000000	0.004993  
3261.000000	0.005127  
3260.000000	0.005139  
3259.000000	0.005140  
3258.000000	0.005195  
3257.000000	0.005247  
3256.000000	0.005187  
3255.000000	0.004993  
3254.000000	0.004782  
3253.000000	0.004715  
3252.000000	0.004856  
3251.000000	0.005093  
3250.000000	0.005228  
3249.000000	0.005170  
3248.000000	0.005013  
3247.000000	0.004907  
3246.000000	0.004888  
3245.000000	0.004883  
3244.000000	0.004866  
3243.000000	0.004902  
3242.000000	0.005029  
3241.000000	0.005164  
3240.000000	0.005191  
3239.000000	0.005079  
3238.000000	0.004892  
3237.000000	0.004703  
3236.000000	0.004551  
3235.000000	0.004452  
3234.000000	0.004409  
3233.000000	0.004422  
3232.000000	0.004507  
3231.000000	0.004666  
3230.000000	0.004839  
3229.000000	0.004917  
3228.000000	0.004859  
3227.000000	0.004754  
3226.000000	0.004725  
3225.000000	0.004802  
3224.000000	0.004918  
3223.000000	0.004999  
3222.000000	0.005009  
3221.000000	0.004926  
3220.000000	0.004767  
3219.000000	0.004617  
3218.000000	0.004584  
3217.000000	0.004699  
3216.000000	0.004886  
3215.000000	0.005043  
3214.000000	0.005113  
3213.000000	0.005098  
3212.000000	0.005033  
3211.000000	0.004976  
3210.000000	0.004972  
3209.000000	0.005021  
3208.000000	0.005091  
3207.000000	0.005164  
3206.000000	0.005244  
3205.000000	0.005324  
3204.000000	0.005392  
3203.000000	0.005454  
3202.000000	0.005510  
3201.000000	0.005510  
3200.000000	0.005376  
3199.000000	0.005095  
3198.000000	0.004745  
3197.000000	0.004418  
3196.000000	0.004152  
3195.000000	0.003965  
3194.000000	0.003891  
3193.000000	0.003947  
3192.000000	0.004098  
3191.000000	0.004286  
3190.000000	0.004498  
3189.000000	0.004739  
3188.000000	0.004973  
3187.000000	0.005132  
3186.000000	0.005184  
3185.000000	0.005166  
3184.000000	0.005115  
3183.000000	0.005015  
3182.000000	0.004836  
3181.000000	0.004611  
3180.000000	0.004428  
3179.000000	0.004349  
3178.000000	0.004354  
3177.000000	0.004398  
3176.000000	0.004475  
3175.000000	0.004607  
3174.000000	0.004761  
3173.000000	0.004849  
3172.000000	0.004809  
3171.000000	0.004672  
3170.000000	0.004533  
3169.000000	0.004456  
3168.000000	0.004444  
3167.000000	0.004473  
3166.000000	0.004528  
3165.000000	0.004595  
3164.000000	0.004646  
3163.000000	0.004648  
3162.000000	0.004587  
3161.000000	0.004495  
3160.000000	0.004442  
3159.000000	0.004494  
3158.000000	0.004641  
3157.000000	0.004801  
3156.000000	0.004887  
3155.000000	0.004885  
3154.000000	0.004855  
3153.000000	0.004863  
3152.000000	0.004907  
3151.000000	0.004915  
3150.000000	0.004807  
3149.000000	0.004579  
3148.000000	0.004324  
3147.000000	0.004153  
3146.000000	0.004094  
3145.000000	0.004095  
3144.000000	0.004102  
3143.000000	0.004112  
3142.000000	0.004130  
3141.000000	0.004134  
3140.000000	0.004124  
3139.000000	0.004164  
3138.000000	0.004313  
3137.000000	0.004528  
3136.000000	0.004678  
3135.000000	0.004670  
3134.000000	0.004531  
3133.000000	0.004374  
3132.000000	0.004310  
3131.000000	0.004377  
3130.000000	0.004518  
3129.000000	0.004627  
3128.000000	0.004630  
3127.000000	0.004542  
3126.000000	0.004425  
3125.000000	0.004325  
3124.000000	0.004264  
3123.000000	0.004280  
3122.000000	0.004405  
3121.000000	0.004591  
3120.000000	0.004719  
3119.000000	0.004688  
3118.000000	0.004508  
3117.000000	0.004282  
3116.000000	0.004125  
3115.000000	0.004095  
3114.000000	0.004162  
3113.000000	0.004254  
3112.000000	0.004328  
3111.000000	0.004421  
3110.000000	0.004585  
3109.000000	0.004790  
3108.000000	0.004922  
3107.000000	0.004891  
3106.000000	0.004718  
3105.000000	0.004509  
3104.000000	0.004382  
3103.000000	0.004402  
3102.000000	0.004551  
3101.000000	0.004717  
3100.000000	0.004759  
3099.000000	0.004625  
3098.000000	0.004398  
3097.000000	0.004221  
3096.000000	0.004180  
3095.000000	0.004259  
3094.000000	0.004376  
3093.000000	0.004450  
3092.000000	0.004450  
3091.000000	0.004414  
3090.000000	0.004408  
3089.000000	0.004458  
3088.000000	0.004538  
3087.000000	0.004619  
3086.000000	0.004709  
3085.000000	0.004803  
3084.000000	0.004848  
3083.000000	0.004796  
3082.000000	0.004685  
3081.000000	0.004620  
3080.000000	0.004678  
3079.000000	0.004850  
3078.000000	0.005063  
3077.000000	0.005244  
3076.000000	0.005349  
3075.000000	0.005363  
3074.000000	0.005300  
3073.000000	0.005201  
3072.000000	0.005114  
3071.000000	0.005084  
3070.000000	0.005128  
3069.000000	0.005210  
3068.000000	0.005262  
3067.000000	0.005248  
3066.000000	0.005210  
3065.000000	0.005239  
3064.000000	0.005391  
3063.000000	0.005622  
3062.000000	0.005827  
3061.000000	0.005913  
3060.000000	0.005860  
3059.000000	0.005718  
3058.000000	0.005554  
3057.000000	0.005412  
3056.000000	0.005311  
3055.000000	0.005283  
3054.000000	0.005349  
3053.000000	0.005469  
3052.000000	0.005544  
3051.000000	0.005516  
3050.000000	0.005444  
3049.000000	0.005443  
3048.000000	0.005557  
3047.000000	0.005726  
3046.000000	0.005859  
3045.000000	0.005912  
3044.000000	0.005891  
3043.000000	0.005825  
3042.000000	0.005760  
3041.000000	0.005746  
3040.000000	0.005810  
3039.000000	0.005941  
3038.000000	0.006103  
3037.000000	0.006248  
3036.000000	0.006333  
3035.000000	0.006338  
3034.000000	0.006286  
3033.000000	0.006234  
3032.000000	0.006234  
3031.000000	0.006310  
3030.000000	0.006465  
3029.000000	0.006685  
3028.000000	0.006933  
3027.000000	0.007162  
3026.000000	0.007352  
3025.000000	0.007531  
3024.000000	0.007763  
3023.000000	0.008086  
3022.000000	0.008465  
3021.000000	0.008799  
3020.000000	0.009002  
3019.000000	0.009098  
3018.000000	0.009234  
3017.000000	0.009559  
3016.000000	0.010083  
3015.000000	0.010667  
3014.000000	0.011153  
3013.000000	0.011476  
3012.000000	0.011667  
3011.000000	0.011794  
3010.000000	0.011911  
3009.000000	0.012037  
3008.000000	0.012159  
3007.000000	0.012247  
3006.000000	0.012265  
3005.000000	0.012178  
3004.000000	0.011957  
3003.000000	0.011621  
3002.000000	0.011286  
3001.000000	0.011115  
3000.000000	0.011189  
2999.000000	0.011433  
2998.000000	0.011685  
2997.000000	0.011838  
2996.000000	0.011900  
2995.000000	0.011948  
2994.000000	0.012059  
2993.000000	0.012273  
2992.000000	0.012591  
2991.000000	0.012989  
2990.000000	0.013441  
2989.000000	0.013940  
2988.000000	0.014506  
2987.000000	0.015183  
2986.000000	0.016010  
2985.000000	0.016998  
2984.000000	0.018108  
2983.000000	0.019277  
2982.000000	0.020482  
2981.000000	0.021765  
2980.000000	0.023193  
2979.000000	0.024803  
2978.000000	0.026609  
2977.000000	0.028649  
2976.000000	0.031004  
2975.000000	0.033740  
2974.000000	0.036850  
2973.000000	0.040262  
2972.000000	0.043889  
2971.000000	0.047705  
2970.000000	0.051789  
2969.000000	0.056293  
2968.000000	0.061310  
2967.000000	0.066745  
2966.000000	0.072326  
2965.000000	0.077786  
2964.000000	0.083010  
2963.000000	0.088009  
2962.000000	0.092783  
2961.000000	0.097266  
2960.000000	0.101377  
2959.000000	0.105046  
2958.000000	0.108171  
2957.000000	0.110604  
2956.000000	0.112225  
2955.000000	0.113007  
2954.000000	0.112993  
2953.000000	0.112253  
2952.000000	0.110881  
2951.000000	0.109026  
2950.000000	0.106895  
2949.000000	0.104729  
2948.000000	0.102761  
2947.000000	0.101180  
2946.000000	0.100115  
2945.000000	0.099666  
2944.000000	0.099942  
2943.000000	0.101046  
2942.000000	0.103021  
2941.000000	0.105834  
2940.000000	0.109430  
2939.000000	0.113778  
2938.000000	0.118873  
2937.000000	0.124672  
2936.000000	0.131056  
2935.000000	0.137826  
2934.000000	0.144768  
2933.000000	0.151761  
2932.000000	0.158825  
2931.000000	0.166033  
2930.000000	0.173344  
2929.000000	0.180566  
2928.000000	0.187438  
2927.000000	0.193726  
2926.000000	0.199215  
2925.000000	0.203702  
2924.000000	0.207004  
2923.000000	0.208940  
2922.000000	0.209333  
2921.000000	0.208132  
2920.000000	0.205541  
2919.000000	0.201946  
2918.000000	0.197669  
2917.000000	0.192859  
2916.000000	0.187615  
2915.000000	0.182113  
2914.000000	0.176565  
2913.000000	0.171113  
2912.000000	0.165835  
2911.000000	0.160806  
2910.000000	0.156096  
2909.000000	0.151691  
2908.000000	0.147473  
2907.000000	0.143288  
2906.000000	0.139062  
2905.000000	0.134832  
2904.000000	0.130712  
2903.000000	0.126809  
2902.000000	0.123158  
2901.000000	0.119709  
2900.000000	0.116358  
2899.000000	0.113001  
2898.000000	0.109594  
2897.000000	0.106171  
2896.000000	0.102820  
2895.000000	0.099621  
2894.000000	0.096589  
2893.000000	0.093658  
2892.000000	0.090725  
2891.000000	0.087728  
2890.000000	0.084709  
2889.000000	0.081816  
2888.000000	0.079229  
2887.000000	0.077061  
2886.000000	0.075320  
2885.000000	0.073966  
2884.000000	0.072984  
2883.000000	0.072418  
2882.000000	0.072328  
2881.000000	0.072751  
2880.000000	0.073720  
2879.000000	0.075291  
2878.000000	0.077510  
2877.000000	0.080325  
2876.000000	0.083525  
2875.000000	0.086785  
2874.000000	0.089764  
2873.000000	0.092184  
2872.000000	0.093882  
2871.000000	0.094845  
2870.000000	0.095233  
2869.000000	0.095330  
2868.000000	0.095438  
2867.000000	0.095790  
2866.000000	0.096560  
2865.000000	0.097911  
2864.000000	0.099987  
2863.000000	0.102829  
2862.000000	0.106326  
2861.000000	0.110291  
2860.000000	0.114585  
2859.000000	0.119115  
2858.000000	0.123719  
2857.000000	0.128069  
2856.000000	0.131700  
2855.000000	0.134130  
2854.000000	0.134984  
2853.000000	0.134073  
2852.000000	0.131429  
2851.000000	0.127264  
2850.000000	0.121893  
2849.000000	0.115658  
2848.000000	0.108898  
2847.000000	0.101920  
2846.000000	0.094973  
2845.000000	0.088222  
2844.000000	0.081731  
2843.000000	0.075493  
2842.000000	0.069498  
2841.000000	0.063793  
2840.000000	0.058467  
2839.000000	0.053592  
2838.000000	0.049194  
2837.000000	0.045258  
2836.000000	0.041737  
2835.000000	0.038562  
2834.000000	0.035668  
2833.000000	0.033037  
2832.000000	0.030698  
2831.000000	0.028690  
2830.000000	0.027009  
2829.000000	0.025591  
2828.000000	0.024339  
2827.000000	0.023165  
2826.000000	0.022022  
2825.000000	0.020926  
2824.000000	0.019926  
2823.000000	0.019066  
2822.000000	0.018365  
2821.000000	0.017802  
2820.000000	0.017318  
2819.000000	0.016843  
2818.000000	0.016332  
2817.000000	0.015795  
2816.000000	0.015271  
2815.000000	0.014782  
2814.000000	0.014313  
2813.000000	0.013843  
2812.000000	0.013375  
2811.000000	0.012939  
2810.000000	0.012572  
2809.000000	0.012302  
2808.000000	0.012124  
2807.000000	0.012008  
2806.000000	0.011908  
2805.000000	0.011785  
2804.000000	0.011607  
2803.000000	0.011361  
2802.000000	0.011059  
2801.000000	0.010753  
2800.000000	0.010500  
2799.000000	0.010319  
2798.000000	0.010179  
2797.000000	0.010049  
2796.000000	0.009935  
2795.000000	0.009845  
2794.000000	0.009743  
2793.000000	0.009550  
2792.000000	0.009240  
2791.000000	0.008894  
2790.000000	0.008645  
2789.000000	0.008557  
2788.000000	0.008574  
2787.000000	0.008594  
2786.000000	0.008557  
2785.000000	0.008473  
2784.000000	0.008371  
2783.000000	0.008267  
2782.000000	0.008179  
2781.000000	0.008136  
2780.000000	0.008155  
2779.000000	0.008210  
2778.000000	0.008230  
2777.000000	0.008146  
2776.000000	0.007943  
2775.000000	0.007675  
2774.000000	0.007440  
2773.000000	0.007310  
2772.000000	0.007282  
2771.000000	0.007291  
2770.000000	0.007269  
2769.000000	0.007185  
2768.000000	0.007046  
2767.000000	0.006873  
2766.000000	0.006703  
2765.000000	0.006580  
2764.000000	0.006536  
2763.000000	0.006551  
2762.000000	0.006570  
2761.000000	0.006548  
2760.000000	0.006486  
2759.000000	0.006415  
2758.000000	0.006353  
2757.000000	0.006300  
2756.000000	0.006247  
2755.000000	0.006192  
2754.000000	0.006144  
2753.000000	0.006103  
2752.000000	0.006064  
2751.000000	0.006018  
2750.000000	0.005969  
2749.000000	0.005936  
2748.000000	0.005926  
2747.000000	0.005924  
2746.000000	0.005907  
2745.000000	0.005888  
2744.000000	0.005900  
2743.000000	0.005953  
2742.000000	0.006017  
2741.000000	0.006067  
2740.000000	0.006116  
2739.000000	0.006184  
2738.000000	0.006253  
2737.000000	0.006286  
2736.000000	0.006291  
2735.000000	0.006325  
2734.000000	0.006423  
2733.000000	0.006547  
2732.000000	0.006618  
2731.000000	0.006599  
2730.000000	0.006525  
2729.000000	0.006465  
2728.000000	0.006466  
2727.000000	0.006515  
2726.000000	0.006556  
2725.000000	0.006539  
2724.000000	0.006455  
2723.000000	0.006336  
2722.000000	0.006222  
2721.000000	0.006144  
2720.000000	0.006128  
2719.000000	0.006171  
2718.000000	0.006234  
2717.000000	0.006255  
2716.000000	0.006216  
2715.000000	0.006145  
2714.000000	0.006065  
2713.000000	0.005953  
2712.000000	0.005785  
2711.000000	0.005605  
2710.000000	0.005491  
2709.000000	0.005480  
2708.000000	0.005528  
2707.000000	0.005573  
2706.000000	0.005574  
2705.000000	0.005517  
2704.000000	0.005400  
2703.000000	0.005245  
2702.000000	0.005101  
2701.000000	0.005001  
2700.000000	0.004938  
2699.000000	0.004896  
2698.000000	0.004885  
2697.000000	0.004933  
2696.000000	0.005042  
2695.000000	0.005172  
2694.000000	0.005266  
2693.000000	0.005291  
2692.000000	0.005248  
2691.000000	0.005183  
2690.000000	0.005164  
2689.000000	0.005239  
2688.000000	0.005397  
2687.000000	0.005561  
2686.000000	0.005644  
2685.000000	0.005615  
2684.000000	0.005531  
2683.000000	0.005485  
2682.000000	0.005523  
2681.000000	0.005607  
2680.000000	0.005661  
2679.000000	0.005657  
2678.000000	0.005640  
2677.000000	0.005680  
2676.000000	0.005794  
2675.000000	0.005941  
2674.000000	0.006053  
2673.000000	0.006085  
2672.000000	0.006024  
2671.000000	0.005893  
2670.000000	0.005743  
2669.000000	0.005640  
2668.000000	0.005630  
2667.000000	0.005711  
2666.000000	0.005839  
2665.000000	0.005951  
2664.000000	0.006004  
2663.000000	0.005974  
2662.000000	0.005851  
2661.000000	0.005646  
2660.000000	0.005412  
2659.000000	0.005215  
2658.000000	0.005091  
2657.000000	0.005026  
2656.000000	0.005001  
2655.000000	0.005013  
2654.000000	0.005046  
2653.000000	0.005052  
2652.000000	0.005009  
2651.000000	0.004967  
2650.000000	0.005001  
2649.000000	0.005100  
2648.000000	0.005174  
2647.000000	0.005153  
2646.000000	0.005058  
2645.000000	0.004941  
2644.000000	0.004835  
2643.000000	0.004768  
2642.000000	0.004788  
2641.000000	0.004903  
2640.000000	0.005038  
2639.000000	0.005091  
2638.000000	0.005020  
2637.000000	0.004861  
2636.000000	0.004694  
2635.000000	0.004598  
2634.000000	0.004632  
2633.000000	0.004775  
2632.000000	0.004925  
2631.000000	0.004971  
2630.000000	0.004894  
2629.000000	0.004753  
2628.000000	0.004622  
2627.000000	0.004555  
2626.000000	0.004575  
2625.000000	0.004648  
2624.000000	0.004680  
2623.000000	0.004599  
2622.000000	0.004437  
2621.000000	0.004298  
2620.000000	0.004235  
2619.000000	0.004220  
2618.000000	0.004225  
2617.000000	0.004263  
2616.000000	0.004348  
2615.000000	0.004448  
2614.000000	0.004524  
2613.000000	0.004571  
2612.000000	0.004601  
2611.000000	0.004621  
2610.000000	0.004638  
2609.000000	0.004661  
2608.000000	0.004692  
2607.000000	0.004723  
2606.000000	0.004756  
2605.000000	0.004784  
2604.000000	0.004762  
2603.000000	0.004657  
2602.000000	0.004520  
2601.000000	0.004461  
2600.000000	0.004507  
2599.000000	0.004544  
2598.000000	0.004444  
2597.000000	0.004228  
2596.000000	0.004040  
2595.000000	0.003980  
2594.000000	0.004006  
2593.000000	0.004004  
2592.000000	0.003927  
2591.000000	0.003835  
2590.000000	0.003815  
2589.000000	0.003867  
2588.000000	0.003909  
2587.000000	0.003887  
2586.000000	0.003854  
2585.000000	0.003891  
2584.000000	0.003987  
2583.000000	0.004038  
2582.000000	0.003982  
2581.000000	0.003879  
2580.000000	0.003826  
2579.000000	0.003851  
2578.000000	0.003907  
2577.000000	0.003938  
2576.000000	0.003905  
2575.000000	0.003783  
2574.000000	0.003601  
2573.000000	0.003453  
2572.000000	0.003426  
2571.000000	0.003505  
2570.000000	0.003589  
2569.000000	0.003594  
2568.000000	0.003523  
2567.000000	0.003429  
2566.000000	0.003350  
2565.000000	0.003290  
2564.000000	0.003236  
2563.000000	0.003182  
2562.000000	0.003133  
2561.000000	0.003108  
2560.000000	0.003112  
2559.000000	0.003134  
2558.000000	0.003175  
2557.000000	0.003266  
2556.000000	0.003426  
2555.000000	0.003599  
2554.000000	0.003688  
2553.000000	0.003661  
2552.000000	0.003604  
2551.000000	0.003636  
2550.000000	0.003771  
2549.000000	0.003898  
2548.000000	0.003892  
2547.000000	0.003714  
2546.000000	0.003419  
2545.000000	0.003110  
2544.000000	0.002898  
2543.000000	0.002858  
2542.000000	0.002972  
2541.000000	0.003123  
2540.000000	0.003197  
2539.000000	0.003211  
2538.000000	0.003281  
2537.000000	0.003450  
2536.000000	0.003600  
2535.000000	0.003582  
2534.000000	0.003389  
2533.000000	0.003157  
2532.000000	0.003020  
2531.000000	0.002986  
2530.000000	0.002972  
2529.000000	0.002900  
2528.000000	0.002775  
2527.000000	0.002685  
2526.000000	0.002717  
2525.000000	0.002870  
2524.000000	0.003046  
2523.000000	0.003161  
2522.000000	0.003207  
2521.000000	0.003197  
2520.000000	0.003103  
2519.000000	0.002924  
2518.000000	0.002779  
2517.000000	0.002819  
2516.000000	0.003052  
2515.000000	0.003323  
2514.000000	0.003486  
2513.000000	0.003525  
2512.000000	0.003486  
2511.000000	0.003379  
2510.000000	0.003204  
2509.000000	0.003025  
2508.000000	0.002940  
2507.000000	0.002994  
2506.000000	0.003150  
2505.000000	0.003311  
2504.000000	0.003353  
2503.000000	0.003203  
2502.000000	0.002925  
2501.000000	0.002712  
2500.000000	0.002720  
2499.000000	0.002897  
2498.000000	0.003029  
2497.000000	0.002932  
2496.000000	0.002604  
2495.000000	0.002206  
2494.000000	0.001942  
2493.000000	0.001949  
2492.000000	0.002220  
2491.000000	0.002625  
2490.000000	0.002998  
2489.000000	0.003236  
2488.000000	0.003315  
2487.000000	0.003259  
2486.000000	0.003089  
2485.000000	0.002833  
2484.000000	0.002549  
2483.000000	0.002337  
2482.000000	0.002308  
2481.000000	0.002510  
2480.000000	0.002879  
2479.000000	0.003260  
2478.000000	0.003513  
2477.000000	0.003587  
2476.000000	0.003521  
2475.000000	0.003383  
2474.000000	0.003233  
2473.000000	0.003100  
2472.000000	0.002993  
2471.000000	0.002894  
2470.000000	0.002777  
2469.000000	0.002634  
2468.000000	0.002510  
2467.000000	0.002502  
2466.000000	0.002678  
2465.000000	0.002971  
2464.000000	0.003204  
2463.000000	0.003251  
2462.000000	0.003147  
2461.000000	0.003015  
2460.000000	0.002909  
2459.000000	0.002823  
2458.000000	0.002789  
2457.000000	0.002858  
2456.000000	0.002979  
2455.000000	0.003000  
2454.000000	0.002851  
2453.000000	0.002638  
2452.000000	0.002487  
2451.000000	0.002387  
2450.000000	0.002269  
2449.000000	0.002163  
2448.000000	0.002183  
2447.000000	0.002368  
2446.000000	0.002626  
2445.000000	0.002833  
2444.000000	0.002938  
2443.000000	0.002960  
2442.000000	0.002950  
2441.000000	0.002949  
2440.000000	0.002956  
2439.000000	0.002931  
2438.000000	0.002855  
2437.000000	0.002775  
2436.000000	0.002736  
2435.000000	0.002702  
2434.000000	0.002603  
2433.000000	0.002446  
2432.000000	0.002322  
2431.000000	0.002303  
2430.000000	0.002365  
2429.000000	0.002454  
2428.000000	0.002548  
2427.000000	0.002653  
2426.000000	0.002762  
2425.000000	0.002847  
2424.000000	0.002882  
2423.000000	0.002859  
2422.000000	0.002793  
2421.000000	0.002719  
2420.000000	0.002674  
2419.000000	0.002661  
2418.000000	0.002663  
2417.000000	0.002670  
2416.000000	0.002699  
2415.000000	0.002775  
2414.000000	0.002901  
2413.000000	0.003051  
2412.000000	0.003164  
2411.000000	0.003187  
2410.000000	0.003134  
2409.000000	0.003094  
2408.000000	0.003135  
2407.000000	0.003204  
2406.000000	0.003164  
2405.000000	0.002940  
2404.000000	0.002608  
2403.000000	0.002326  
2402.000000	0.002193  
2401.000000	0.002198  
2400.000000	0.002277  
2399.000000	0.002398  
2398.000000	0.002571  
2397.000000	0.002784  
2396.000000	0.002971  
2395.000000	0.003059  
2394.000000	0.003062  
2393.000000	0.003085  
2392.000000	0.003217  
2391.000000	0.003438  
2390.000000	0.003657  
2389.000000	0.003841  
2388.000000	0.004082  
2387.000000	0.004540  
2386.000000	0.005301  
2385.000000	0.006252  
2384.000000	0.007083  
2383.000000	0.007439  
2382.000000	0.007128  
2381.000000	0.006216  
2380.000000	0.004961  
2379.000000	0.003657  
2378.000000	0.002538  
2377.000000	0.001742  
2376.000000	0.001344  
2375.000000	0.001366  
2374.000000	0.001767  
2373.000000	0.002467  
2372.000000	0.003360  
2371.000000	0.004309  
2370.000000	0.005134  
2369.000000	0.005613  
2368.000000	0.005612  
2367.000000	0.005220  
2366.000000	0.004704  
2365.000000	0.004229  
2364.000000	0.003771  
2363.000000	0.003405  
2362.000000	0.003260  
2361.000000	0.003410  
2360.000000	0.004018  
2359.000000	0.004852  
2358.000000	0.005321  
2357.000000	0.005019  
2356.000000	0.004192  
2355.000000	0.003476  
2354.000000	0.002913  
2353.000000	0.002428  
2352.000000	0.002164  
2351.000000	0.002260  
2350.000000	0.002714  
2349.000000	0.003134  
2348.000000	0.003342  
2347.000000	0.003274  
2346.000000	0.003343  
2345.000000	0.004001  
2344.000000	0.004912  
2343.000000	0.005477  
2342.000000	0.005010  
2341.000000	0.003819  
2340.000000	0.002837  
2339.000000	0.002494  
2338.000000	0.002338  
2337.000000	0.001906  
2336.000000	0.001388  
2335.000000	0.001217  
2334.000000	0.001304  
2333.000000	0.001462  
2332.000000	0.001806  
2331.000000	0.002598  
2330.000000	0.003899  
2329.000000	0.005181  
2328.000000	0.006269  
2327.000000	0.007006  
2326.000000	0.007308  
2325.000000	0.007109  
2324.000000	0.006392  
2323.000000	0.005555  
2322.000000	0.004839  
2321.000000	0.004595  
2320.000000	0.004949  
2319.000000	0.005823  
2318.000000	0.006793  
2317.000000	0.007343  
2316.000000	0.007289  
2315.000000	0.006843  
2314.000000	0.006519  
2313.000000	0.006668  
2312.000000	0.007310  
2311.000000	0.008091  
2310.000000	0.008682  
2309.000000	0.008976  
2308.000000	0.009051  
2307.000000	0.008937  
2306.000000	0.008596  
2305.000000	0.008131  
2304.000000	0.007775  
2303.000000	0.007703  
2302.000000	0.007819  
2301.000000	0.007855  
2300.000000	0.007668  
2299.000000	0.007351  
2298.000000	0.007152  
2297.000000	0.007174  
2296.000000	0.007296  
2295.000000	0.007251  
2294.000000	0.006919  
2293.000000	0.006421  
2292.000000	0.005978  
2291.000000	0.005674  
2290.000000	0.005427  
2289.000000	0.005158  
2288.000000	0.004846  
2287.000000	0.004466  
2286.000000	0.003971  
2285.000000	0.003428  
2284.000000	0.003023  
2283.000000	0.002879  
2282.000000	0.002906  
2281.000000	0.002938  
2280.000000	0.002950  
2279.000000	0.003043  
2278.000000	0.003230  
2277.000000	0.003381  
2276.000000	0.003428  
2275.000000	0.003493  
2274.000000	0.003752  
2273.000000	0.004186  
2272.000000	0.004569  
2271.000000	0.004699  
2270.000000	0.004574  
2269.000000	0.004345  
2268.000000	0.004118  
2267.000000	0.003864  
2266.000000	0.003537  
2265.000000	0.003201  
2264.000000	0.002993  
2263.000000	0.002976  
2262.000000	0.003118  
2261.000000	0.003369  
2260.000000	0.003650  
2259.000000	0.003829  
2258.000000	0.003802  
2257.000000	0.003661  
2256.000000	0.003625  
2255.000000	0.003767  
2254.000000	0.003911  
2253.000000	0.003877  
2252.000000	0.003718  
2251.000000	0.003591  
2250.000000	0.003513  
2249.000000	0.003352  
2248.000000	0.003036  
2247.000000	0.002632  
2246.000000	0.002254  
2245.000000	0.001983  
2244.000000	0.001866  
2243.000000	0.001902  
2242.000000	0.002036  
2241.000000	0.002220  
2240.000000	0.002479  
2239.000000	0.002810  
2238.000000	0.003070  
2237.000000	0.003061  
2236.000000	0.002753  
2235.000000	0.002332  
2234.000000	0.002013  
2233.000000	0.001880  
2232.000000	0.001890  
2231.000000	0.001959  
2230.000000	0.002012  
2229.000000	0.002034  
2228.000000	0.002098  
2227.000000	0.002274  
2226.000000	0.002494  
2225.000000	0.002559  
2224.000000	0.002315  
2223.000000	0.001813  
2222.000000	0.001291  
2221.000000	0.001029  
2220.000000	0.001166  
2219.000000	0.001572  
2218.000000	0.001945  
2217.000000	0.002111  
2216.000000	0.002205  
2215.000000	0.002456  
2214.000000	0.002833  
2213.000000	0.003068  
2212.000000	0.003049  
2211.000000	0.002970  
2210.000000	0.003000  
2209.000000	0.002993  
2208.000000	0.002710  
2207.000000	0.002245  
2206.000000	0.002003  
2205.000000	0.002239  
2204.000000	0.002762  
2203.000000	0.003191  
2202.000000	0.003380  
2201.000000	0.003491  
2200.000000	0.003726  
2199.000000	0.004079  
2198.000000	0.004383  
2197.000000	0.004493  
2196.000000	0.004384  
2195.000000	0.004102  
2194.000000	0.003720  
2193.000000	0.003336  
2192.000000	0.003037  
2191.000000	0.002806  
2190.000000	0.002546  
2189.000000	0.002254  
2188.000000	0.002083  
2187.000000	0.002137  
2186.000000	0.002260  
2185.000000	0.002185  
2184.000000	0.001884  
2183.000000	0.001657  
2182.000000	0.001832  
2181.000000	0.002450  
2180.000000	0.003276  
2179.000000	0.004005  
2178.000000	0.004408  
2177.000000	0.004419  
2176.000000	0.004152  
2175.000000	0.003752  
2174.000000	0.003198  
2173.000000	0.002412  
2172.000000	0.001583  
2171.000000	0.001181  
2170.000000	0.001468  
2169.000000	0.002096  
2168.000000	0.002430  
2167.000000	0.002281  
2166.000000	0.002117  
2165.000000	0.002429  
2164.000000	0.003075  
2163.000000	0.003453  
2162.000000	0.003232  
2161.000000	0.002706  
2160.000000	0.002402  
2159.000000	0.002474  
2158.000000	0.002670  
2157.000000	0.002776  
2156.000000	0.002810  
2155.000000	0.002814  
2154.000000	0.002739  
2153.000000	0.002603  
2152.000000	0.002581  
2151.000000	0.002779  
2150.000000	0.003001  
2149.000000	0.002921  
2148.000000	0.002488  
2147.000000	0.002028  
2146.000000	0.001912  
2145.000000	0.002217  
2144.000000	0.002746  
2143.000000	0.003233  
2142.000000	0.003453  
2141.000000	0.003255  
2140.000000	0.002674  
2139.000000	0.001997  
2138.000000	0.001608  
2137.000000	0.001687  
2136.000000	0.002065  
2135.000000	0.002403  
2134.000000	0.002495  
2133.000000	0.002410  
2132.000000	0.002376  
2131.000000	0.002540  
2130.000000	0.002834  
2129.000000	0.003062  
2128.000000	0.003088  
2127.000000	0.002922  
2126.000000	0.002640  
2125.000000	0.002314  
2124.000000	0.002028  
2123.000000	0.001911  
2122.000000	0.002049  
2121.000000	0.002387  
2120.000000	0.002743  
2119.000000	0.002956  
2118.000000	0.002989  
2117.000000	0.002942  
2116.000000	0.002977  
2115.000000	0.003181  
2114.000000	0.003420  
2113.000000	0.003404  
2112.000000	0.003001  
2111.000000	0.002463  
2110.000000	0.002236  
2109.000000	0.002496  
2108.000000	0.002967  
2107.000000	0.003243  
2106.000000	0.003180  
2105.000000	0.002915  
2104.000000	0.002612  
2103.000000	0.002331  
2102.000000	0.002092  
2101.000000	0.001917  
2100.000000	0.001773  
2099.000000	0.001592  
2098.000000	0.001380  
2097.000000	0.001255  
2096.000000	0.001302  
2095.000000	0.001457  
2094.000000	0.001585  
2093.000000	0.001636  
2092.000000	0.001668  
2091.000000	0.001729  
2090.000000	0.001785  
2089.000000	0.001789  
2088.000000	0.001807  
2087.000000	0.002000  
2086.000000	0.002430  
2085.000000	0.002903  
2084.000000	0.003069  
2083.000000	0.002753  
2082.000000	0.002178  
2081.000000	0.001814  
2080.000000	0.001952  
2079.000000	0.002445  
2078.000000	0.002857  
2077.000000	0.002870  
2076.000000	0.002542  
2075.000000	0.002210  
2074.000000	0.002159  
2073.000000	0.002386  
2072.000000	0.002661  
2071.000000	0.002798  
2070.000000	0.002803  
2069.000000	0.002779  
2068.000000	0.002750  
2067.000000	0.002674  
2066.000000	0.002567  
2065.000000	0.002519  
2064.000000	0.002568  
2063.000000	0.002657  
2062.000000	0.002725  
2061.000000	0.002758  
2060.000000	0.002731  
2059.000000	0.002600  
2058.000000	0.002406  
2057.000000	0.002290  
2056.000000	0.002313  
2055.000000	0.002343  
2054.000000	0.002233  
2053.000000	0.002035  
2052.000000	0.001908  
2051.000000	0.001877  
2050.000000	0.001855  
2049.000000	0.001892  
2048.000000	0.002172  
2047.000000	0.002653  
2046.000000	0.002934  
2045.000000	0.002685  
2044.000000	0.002087  
2043.000000	0.001621  
2042.000000	0.001525  
2041.000000	0.001656  
2040.000000	0.001869  
2039.000000	0.002232  
2038.000000	0.002728  
2037.000000	0.003042  
2036.000000	0.002893  
2035.000000	0.002494  
2034.000000	0.002374  
2033.000000	0.002732  
2032.000000	0.003185  
2031.000000	0.003241  
2030.000000	0.002809  
2029.000000	0.002162  
2028.000000	0.001579  
2027.000000	0.001155  
2026.000000	0.000878  
2025.000000	0.000705  
2024.000000	0.000624  
2023.000000	0.000718  
2022.000000	0.001125  
2021.000000	0.001790  
2020.000000	0.002358  
2019.000000	0.002490  
2018.000000	0.002236  
2017.000000	0.001944  
2016.000000	0.001804  
2015.000000	0.001714  
2014.000000	0.001643  
2013.000000	0.001802  
2012.000000	0.002252  
2011.000000	0.002589  
2010.000000	0.002299  
2009.000000	0.001404  
2008.000000	0.000505  
2007.000000	0.000125  
2006.000000	0.000263  
2005.000000	0.000634  
2004.000000	0.001085  
2003.000000	0.001640  
2002.000000	0.002325  
2001.000000	0.003074  
2000.000000	0.003704  
1999.000000	0.003918  
1998.000000	0.003491  
1997.000000	0.002583  
1996.000000	0.001761  
1995.000000	0.001525  
1994.000000	0.001872  
1993.000000	0.002370  
1992.000000	0.002636  
1991.000000	0.002632  
1990.000000	0.002527  
1989.000000	0.002476  
1988.000000	0.002586  
1987.000000	0.002869  
1986.000000	0.003173  
1985.000000	0.003280  
1984.000000	0.003158  
1983.000000	0.002979  
1982.000000	0.002853  
1981.000000	0.002682  
1980.000000	0.002383  
1979.000000	0.002081  
1978.000000	0.001921  
1977.000000	0.001793  
1976.000000	0.001499  
1975.000000	0.001128  
1974.000000	0.000976  
1973.000000	0.001119  
1972.000000	0.001315  
1971.000000	0.001386  
1970.000000	0.001432  
1969.000000	0.001595  
1968.000000	0.001801  
1967.000000	0.001884  
1966.000000	0.001857  
1965.000000	0.001874  
1964.000000	0.002020  
1963.000000	0.002252  
1962.000000	0.002469  
1961.000000	0.002553  
1960.000000	0.002445  
1959.000000	0.002245  
1958.000000	0.002147  
1957.000000	0.002165  
1956.000000	0.002056  
1955.000000	0.001624  
1954.000000	0.001044  
1953.000000	0.000744  
1952.000000	0.001003  
1951.000000	0.001722  
1950.000000	0.002550  
1949.000000	0.003104  
1948.000000	0.003178  
1947.000000	0.002884  
1946.000000	0.002578  
1945.000000	0.002539  
1944.000000	0.002702  
1943.000000	0.002768  
1942.000000	0.002603  
1941.000000	0.002357  
1940.000000	0.002188  
1939.000000	0.002113  
1938.000000	0.002160  
1937.000000	0.002428  
1936.000000	0.002896  
1935.000000	0.003358  
1934.000000	0.003622  
1933.000000	0.003692  
1932.000000	0.003678  
1931.000000	0.003602  
1930.000000	0.003417  
1929.000000	0.003155  
1928.000000	0.002921  
1927.000000	0.002746  
1926.000000	0.002567  
1925.000000	0.002359  
1924.000000	0.002197  
1923.000000	0.002173  
1922.000000	0.002307  
1921.000000	0.002560  
1920.000000	0.002862  
1919.000000	0.003090  
1918.000000	0.003134  
1917.000000	0.003044  
1916.000000	0.002964  
1915.000000	0.002887  
1914.000000	0.002662  
1913.000000	0.002249  
1912.000000	0.001837  
1911.000000	0.001664  
1910.000000	0.001755  
1909.000000	0.001953  
1908.000000	0.002139  
1907.000000	0.002297  
1906.000000	0.002398  
1905.000000	0.002389  
1904.000000	0.002289  
1903.000000	0.002211  
1902.000000	0.002238  
1901.000000	0.002351  
1900.000000	0.002459  
1899.000000	0.002495  
1898.000000	0.002462  
1897.000000	0.002434  
1896.000000	0.002495  
1895.000000	0.002660  
1894.000000	0.002846  
1893.000000	0.002965  
1892.000000	0.002999  
1891.000000	0.002977  
1890.000000	0.002933  
1889.000000	0.002897  
1888.000000	0.002891  
1887.000000	0.002874  
1886.000000	0.002783  
1885.000000	0.002639  
1884.000000	0.002544  
1883.000000	0.002541  
1882.000000	0.002552  
1881.000000	0.002501  
1880.000000	0.002414  
1879.000000	0.002358  
1878.000000	0.002334  
1877.000000	0.002329  
1876.000000	0.002399  
1875.000000	0.002602  
1874.000000	0.002868  
1873.000000	0.003042  
1872.000000	0.003056  
1871.000000	0.002966  
1870.000000	0.002824  
1869.000000	0.002612  
1868.000000	0.002390  
1867.000000	0.002309  
1866.000000	0.002417  
1865.000000	0.002622  
1864.000000	0.002818  
1863.000000	0.002950  
1862.000000	0.002999  
1861.000000	0.002959  
1860.000000	0.002877  
1859.000000	0.002842  
1858.000000	0.002908  
1857.000000	0.003037  
1856.000000	0.003139  
1855.000000	0.003114  
1854.000000	0.002921  
1853.000000	0.002651  
1852.000000	0.002489  
1851.000000	0.002543  
1850.000000	0.002706  
1849.000000	0.002752  
1848.000000	0.002598  
1847.000000	0.002404  
1846.000000	0.002397  
1845.000000	0.002618  
1844.000000	0.002879  
1843.000000	0.002978  
1842.000000	0.002899  
1841.000000	0.002741  
1840.000000	0.002589  
1839.000000	0.002506  
1838.000000	0.002523  
1837.000000	0.002612  
1836.000000	0.002694  
1835.000000	0.002715  
1834.000000	0.002675  
1833.000000	0.002577  
1832.000000	0.002411  
1831.000000	0.002228  
1830.000000	0.002170  
1829.000000	0.002312  
1828.000000	0.002554  
1827.000000	0.002750  
1826.000000	0.002846  
1825.000000	0.002871  
1824.000000	0.002896  
1823.000000	0.002986  
1822.000000	0.003122  
1821.000000	0.003186  
1820.000000	0.003060  
1819.000000	0.002787  
1818.000000	0.002567  
1817.000000	0.002549  
1816.000000	0.002682  
1815.000000	0.002806  
1814.000000	0.002824  
1813.000000	0.002749  
1812.000000	0.002650  
1811.000000	0.002620  
1810.000000	0.002716  
1809.000000	0.002902  
1808.000000	0.003095  
1807.000000	0.003227  
1806.000000	0.003252  
1805.000000	0.003181  
1804.000000	0.003081  
1803.000000	0.003047  
1802.000000	0.003122  
1801.000000	0.003266  
1800.000000	0.003427  
1799.000000	0.003582  
1798.000000	0.003688  
1797.000000	0.003702  
1796.000000	0.003662  
1795.000000	0.003632  
1794.000000	0.003628  
1793.000000	0.003590  
1792.000000	0.003479  
1791.000000	0.003371  
1790.000000	0.003340  
1789.000000	0.003366  
1788.000000	0.003402  
1787.000000	0.003433  
1786.000000	0.003464  
1785.000000	0.003494  
1784.000000	0.003501  
1783.000000	0.003468  
1782.000000	0.003422  
1781.000000	0.003436  
1780.000000	0.003576  
1779.000000	0.003809  
1778.000000	0.004021  
1777.000000	0.004140  
1776.000000	0.004179  
1775.000000	0.004184  
1774.000000	0.004182  
1773.000000	0.004178  
1772.000000	0.004141  
1771.000000	0.004072  
1770.000000	0.004044  
1769.000000	0.004123  
1768.000000	0.004286  
1767.000000	0.004453  
1766.000000	0.004584  
1765.000000	0.004712  
1764.000000	0.004883  
1763.000000	0.005122  
1762.000000	0.005439  
1761.000000	0.005824  
1760.000000	0.006226  
1759.000000	0.006600  
1758.000000	0.006994  
1757.000000	0.007520  
1756.000000	0.008198  
1755.000000	0.008940  
1754.000000	0.009772  
1753.000000	0.010932  
1752.000000	0.012684  
1751.000000	0.015057  
1750.000000	0.017971  
1749.000000	0.021534  
1748.000000	0.025786  
1747.000000	0.030473  
1746.000000	0.035367  
1745.000000	0.040377  
1744.000000	0.045122  
1743.000000	0.048843  
1742.000000	0.050968  
1741.000000	0.051282  
1740.000000	0.049691  
1739.000000	0.046614  
1738.000000	0.043076  
1737.000000	0.039616  
1736.000000	0.035845  
1735.000000	0.031047  
1734.000000	0.025756  
1733.000000	0.021597  
1732.000000	0.018881  
1731.000000	0.016882  
1730.000000	0.015236  
1729.000000	0.013928  
1728.000000	0.012927  
1727.000000	0.012105  
1726.000000	0.011377  
1725.000000	0.010726  
1724.000000	0.010128  
1723.000000	0.009565  
1722.000000	0.009054  
1721.000000	0.008601  
1720.000000	0.008175  
1719.000000	0.007788  
1718.000000	0.007490  
1717.000000	0.007183  
1716.000000	0.006822  
1715.000000	0.006540  
1714.000000	0.006376  
1713.000000	0.006248  
1712.000000	0.006072  
1711.000000	0.005838  
1710.000000	0.005607  
1709.000000	0.005413  
1708.000000	0.005253  
1707.000000	0.005148  
1706.000000	0.005133  
1705.000000	0.005168  
1704.000000	0.005244  
1703.000000	0.005410  
1702.000000	0.005650  
1701.000000	0.005749  
1700.000000	0.005579  
1699.000000	0.005385  
1698.000000	0.005337  
1697.000000	0.005319  
1696.000000	0.005236  
1695.000000	0.005196  
1694.000000	0.005204  
1693.000000	0.005155  
1692.000000	0.005030  
1691.000000	0.004882  
1690.000000	0.004786  
1689.000000	0.004747  
1688.000000	0.004737  
1687.000000	0.004736  
1686.000000	0.004730  
1685.000000	0.004685  
1684.000000	0.004613  
1683.000000	0.004612  
1682.000000	0.004699  
1681.000000	0.004793  
1680.000000	0.004802  
1679.000000	0.004735  
1678.000000	0.004613  
1677.000000	0.004459  
1676.000000	0.004303  
1675.000000	0.004259  
1674.000000	0.004396  
1673.000000	0.004634  
1672.000000	0.004866  
1671.000000	0.005029  
1670.000000	0.005115  
1669.000000	0.005168  
1668.000000	0.005214  
1667.000000	0.005246  
1666.000000	0.005293  
1665.000000	0.005394  
1664.000000	0.005542  
1663.000000	0.005702  
1662.000000	0.005835  
1661.000000	0.005953  
1660.000000	0.006071  
1659.000000	0.006171  
1658.000000	0.006192  
1657.000000	0.006155  
1656.000000	0.006091  
1655.000000	0.006062  
1654.000000	0.006133  
1653.000000	0.006434  
1652.000000	0.006813  
1651.000000	0.006933  
1650.000000	0.006911  
1649.000000	0.006904  
1648.000000	0.006955  
1647.000000	0.006925  
1646.000000	0.006795  
1645.000000	0.006657  
1644.000000	0.006549  
1643.000000	0.006478  
1642.000000	0.006489  
1641.000000	0.006535  
1640.000000	0.006552  
1639.000000	0.006524  
1638.000000	0.006507  
1637.000000	0.006553  
1636.000000	0.006622  
1635.000000	0.006623  
1634.000000	0.006559  
1633.000000	0.006495  
1632.000000	0.006458  
1631.000000	0.006441  
1630.000000	0.006402  
1629.000000	0.006336  
1628.000000	0.006252  
1627.000000	0.006160  
1626.000000	0.006095  
1625.000000	0.006098  
1624.000000	0.006159  
1623.000000	0.006192  
1622.000000	0.006149  
1621.000000	0.006104  
1620.000000	0.006109  
1619.000000	0.006133  
1618.000000	0.006105  
1617.000000	0.006044  
1616.000000	0.006048  
1615.000000	0.006094  
1614.000000	0.006115  
1613.000000	0.006120  
1612.000000	0.006134  
1611.000000	0.006153  
1610.000000	0.006161  
1609.000000	0.006159  
1608.000000	0.006145  
1607.000000	0.006092  
1606.000000	0.006009  
1605.000000	0.005946  
1604.000000	0.005921  
1603.000000	0.005887  
1602.000000	0.005815  
1601.000000	0.005736  
1600.000000	0.005660  
1599.000000	0.005539  
1598.000000	0.005367  
1597.000000	0.005237  
1596.000000	0.005242  
1595.000000	0.005363  
1594.000000	0.005502  
1593.000000	0.005613  
1592.000000	0.005723  
1591.000000	0.005844  
1590.000000	0.005943  
1589.000000	0.005996  
1588.000000	0.006009  
1587.000000	0.005985  
1586.000000	0.005943  
1585.000000	0.005927  
1584.000000	0.005962  
1583.000000	0.006030  
1582.000000	0.006098  
1581.000000	0.006174  
1580.000000	0.006288  
1579.000000	0.006436  
1578.000000	0.006565  
1577.000000	0.006621  
1576.000000	0.006607  
1575.000000	0.006564  
1574.000000	0.006562  
1573.000000	0.006664  
1572.000000	0.006825  
1571.000000	0.006918  
1570.000000	0.006859  
1569.000000	0.006763  
1568.000000	0.006748  
1567.000000	0.006760  
1566.000000	0.006683  
1565.000000	0.006514  
1564.000000	0.006274  
1563.000000	0.006027  
1562.000000	0.005795  
1561.000000	0.005626  
1560.000000	0.005675  
1559.000000	0.005805  
1558.000000	0.005724  
1557.000000	0.005732  
1556.000000	0.005952  
1555.000000	0.006129  
1554.000000	0.006255  
1553.000000	0.006182  
1552.000000	0.005953  
1551.000000	0.005619  
1550.000000	0.005364  
1549.000000	0.005298  
1548.000000	0.005374  
1547.000000	0.005459  
1546.000000	0.005510  
1545.000000	0.005532  
1544.000000	0.005514  
1543.000000	0.005479  
1542.000000	0.005525  
1541.000000	0.005624  
1540.000000	0.005612  
1539.000000	0.005557  
1538.000000	0.005592  
1537.000000	0.005677  
1536.000000	0.005729  
1535.000000	0.005703  
1534.000000	0.005558  
1533.000000	0.005366  
1532.000000	0.005252  
1531.000000	0.005253  
1530.000000	0.005277  
1529.000000	0.005280  
1528.000000	0.005308  
1527.000000	0.005445  
1526.000000	0.005699  
1525.000000	0.005951  
1524.000000	0.006083  
1523.000000	0.006111  
1522.000000	0.006125  
1521.000000	0.006153  
1520.000000	0.006155  
1519.000000	0.006114  
1518.000000	0.006067  
1517.000000	0.006057  
1516.000000	0.006097  
1515.000000	0.006225  
1514.000000	0.006457  
1513.000000	0.006732  
1512.000000	0.006915  
1511.000000	0.006962  
1510.000000	0.006991  
1509.000000	0.007186  
1508.000000	0.007564  
1507.000000	0.007930  
1506.000000	0.008306  
1505.000000	0.008696  
1504.000000	0.008878  
1503.000000	0.008859  
1502.000000	0.008826  
1501.000000	0.008803  
1500.000000	0.008764  
1499.000000	0.008764  
1498.000000	0.009072  
1497.000000	0.009707  
1496.000000	0.010241  
1495.000000	0.010447  
1494.000000	0.010562  
1493.000000	0.010760  
1492.000000	0.010929  
1491.000000	0.010956  
1490.000000	0.010998  
1489.000000	0.011230  
1488.000000	0.011589  
1487.000000	0.011979  
1486.000000	0.012409  
1485.000000	0.012911  
1484.000000	0.013458  
1483.000000	0.014087  
1482.000000	0.014960  
1481.000000	0.016103  
1480.000000	0.017301  
1479.000000	0.018450  
1478.000000	0.019778  
1477.000000	0.021527  
1476.000000	0.023644  
1475.000000	0.026158  
1474.000000	0.029751  
1473.000000	0.035204  
1472.000000	0.042004  
1471.000000	0.048862  
1470.000000	0.055289  
1469.000000	0.061251  
1468.000000	0.066499  
1467.000000	0.070838  
1466.000000	0.074409  
1465.000000	0.077329  
1464.000000	0.079411  
1463.000000	0.080684  
1462.000000	0.081513  
1461.000000	0.082163  
1460.000000	0.082715  
1459.000000	0.083293  
1458.000000	0.083993  
1457.000000	0.084119  
1456.000000	0.082858  
1455.000000	0.080674  
1454.000000	0.078252  
1453.000000	0.075640  
1452.000000	0.072826  
1451.000000	0.070022  
1450.000000	0.067423  
1449.000000	0.064844  
1448.000000	0.062063  
1447.000000	0.059218  
1446.000000	0.056505  
1445.000000	0.053787  
1444.000000	0.050888  
1443.000000	0.047868  
1442.000000	0.044922  
1441.000000	0.042193  
1440.000000	0.039707  
1439.000000	0.037367  
1438.000000	0.034967  
1437.000000	0.032435  
1436.000000	0.030120  
1435.000000	0.028363  
1434.000000	0.026950  
1433.000000	0.025482  
1432.000000	0.023836  
1431.000000	0.022145  
1430.000000	0.020596  
1429.000000	0.019289  
1428.000000	0.018281  
1427.000000	0.017555  
1426.000000	0.016984  
1425.000000	0.016458  
1424.000000	0.015991  
1423.000000	0.015648  
1422.000000	0.015395  
1421.000000	0.015108  
1420.000000	0.014717  
1419.000000	0.014298  
1418.000000	0.013971  
1417.000000	0.013740  
1416.000000	0.013548  
1415.000000	0.013360  
1414.000000	0.013157  
1413.000000	0.012916  
1412.000000	0.012637  
1411.000000	0.012345  
1410.000000	0.012087  
1409.000000	0.011914  
1408.000000	0.011855  
1407.000000	0.011915  
1406.000000	0.012072  
1405.000000	0.012302  
1404.000000	0.012588  
1403.000000	0.012889  
1402.000000	0.013143  
1401.000000	0.013325  
1400.000000	0.013508  
1399.000000	0.013760  
1398.000000	0.014052  
1397.000000	0.014325  
1396.000000	0.014584  
1395.000000	0.014880  
1394.000000	0.015268  
1393.000000	0.015753  
1392.000000	0.016291  
1391.000000	0.016869  
1390.000000	0.017565  
1389.000000	0.018571  
1388.000000	0.020125  
1387.000000	0.022226  
1386.000000	0.024579  
1385.000000	0.026976  
1384.000000	0.029500  
1383.000000	0.032353  
1382.000000	0.035635  
1381.000000	0.039262  
1380.000000	0.042888  
1379.000000	0.045846  
1378.000000	0.047424  
1377.000000	0.047321  
1376.000000	0.045668  
1375.000000	0.042786  
1374.000000	0.039238  
1373.000000	0.035807  
1372.000000	0.033034  
1371.000000	0.031006  
1370.000000	0.029644  
1369.000000	0.028894  
1368.000000	0.028591  
1367.000000	0.028384  
1366.000000	0.027904  
1365.000000	0.026952  
1364.000000	0.025550  
1363.000000	0.023924  
1362.000000	0.022422  
1361.000000	0.021313  
1360.000000	0.020625  
1359.000000	0.020206  
1358.000000	0.019885  
1357.000000	0.019594  
1356.000000	0.019377  
1355.000000	0.019288  
1354.000000	0.019296  
1353.000000	0.019299  
1352.000000	0.019247  
1351.000000	0.019159  
1350.000000	0.019045  
1349.000000	0.018890  
1348.000000	0.018678  
1347.000000	0.018403  
1346.000000	0.018085  
1345.000000	0.017785  
1344.000000	0.017580  
1343.000000	0.017481  
1342.000000	0.017410  
1341.000000	0.017273  
1340.000000	0.017023  
1339.000000	0.016676  
1338.000000	0.016287  
1337.000000	0.015909  
1336.000000	0.015565  
1335.000000	0.015257  
1334.000000	0.014970  
1333.000000	0.014701  
1332.000000	0.014481  
1331.000000	0.014337  
1330.000000	0.014247  
1329.000000	0.014179  
1328.000000	0.014138  
1327.000000	0.014143  
1326.000000	0.014178  
1325.000000	0.014226  
1324.000000	0.014295  
1323.000000	0.014391  
1322.000000	0.014491  
1321.000000	0.014561  
1320.000000	0.014603  
1319.000000	0.014646  
1318.000000	0.014708  
1317.000000	0.014783  
1316.000000	0.014867  
1315.000000	0.014967  
1314.000000	0.015098  
1313.000000	0.015263  
1312.000000	0.015449  
1311.000000	0.015638  
1310.000000	0.015812  
1309.000000	0.015967  
1308.000000	0.016112  
1307.000000	0.016252  
1306.000000	0.016373  
1305.000000	0.016456  
1304.000000	0.016486  
1303.000000	0.016454  
1302.000000	0.016369  
1301.000000	0.016258  
1300.000000	0.016149  
1299.000000	0.016044  
1298.000000	0.015924  
1297.000000	0.015779  
1296.000000	0.015626  
1295.000000	0.015470  
1294.000000	0.015289  
1293.000000	0.015067  
1292.000000	0.014837  
1291.000000	0.014663  
1290.000000	0.014594  
1289.000000	0.014623  
1288.000000	0.014705  
1287.000000	0.014797  
1286.000000	0.014888  
1285.000000	0.015002  
1284.000000	0.015165  
1283.000000	0.015373  
1282.000000	0.015591  
1281.000000	0.015779  
1280.000000	0.015924  
1279.000000	0.016040  
1278.000000	0.016148  
1277.000000	0.016275  
1276.000000	0.016437  
1275.000000	0.016636  
1274.000000	0.016852  
1273.000000	0.017068  
1272.000000	0.017263  
1271.000000	0.017409  
1270.000000	0.017487  
1269.000000	0.017517  
1268.000000	0.017541  
1267.000000	0.017569  
1266.000000	0.017573  
1265.000000	0.017530  
1264.000000	0.017467  
1263.000000	0.017448  
1262.000000	0.017519  
1261.000000	0.017669  
1260.000000	0.017836  
1259.000000	0.017948  
1258.000000	0.017983  
1257.000000	0.017970  
1256.000000	0.017954  
1255.000000	0.017970  
1254.000000	0.018044  
1253.000000	0.018216  
1252.000000	0.018496  
1251.000000	0.018828  
1250.000000	0.019123  
1249.000000	0.019349  
1248.000000	0.019561  
1247.000000	0.019821  
1246.000000	0.020124  
1245.000000	0.020402  
1244.000000	0.020583  
1243.000000	0.020637  
1242.000000	0.020585  
1241.000000	0.020470  
1240.000000	0.020329  
1239.000000	0.020156  
1238.000000	0.019920  
1237.000000	0.019621  
1236.000000	0.019302  
1235.000000	0.019011  
1234.000000	0.018749  
1233.000000	0.018480  
1232.000000	0.018183  
1231.000000	0.017867  
1230.000000	0.017552  
1229.000000	0.017252  
1228.000000	0.016991  
1227.000000	0.016798  
1226.000000	0.016668  
1225.000000	0.016557  
1224.000000	0.016433  
1223.000000	0.016311  
1222.000000	0.016224  
1221.000000	0.016168  
1220.000000	0.016111  
1219.000000	0.016050  
1218.000000	0.016031  
1217.000000	0.016095  
1216.000000	0.016226  
1215.000000	0.016363  
1214.000000	0.016451  
1213.000000	0.016490  
1212.000000	0.016533  
1211.000000	0.016651  
1210.000000	0.016868  
1209.000000	0.017120  
1208.000000	0.017307  
1207.000000	0.017390  
1206.000000	0.017441  
1205.000000	0.017562  
1204.000000	0.017780  
1203.000000	0.018042  
1202.000000	0.018309  
1201.000000	0.018597  
1200.000000	0.018930  
1199.000000	0.019294  
1198.000000	0.019670  
1197.000000	0.020079  
1196.000000	0.020559  
1195.000000	0.021119  
1194.000000	0.021745  
1193.000000	0.022416  
1192.000000	0.023094  
1191.000000	0.023720  
1190.000000	0.024263  
1189.000000	0.024763  
1188.000000	0.025288  
1187.000000	0.025866  
1186.000000	0.026483  
1185.000000	0.027135  
1184.000000	0.027829  
1183.000000	0.028542  
1182.000000	0.029228  
1181.000000	0.029863  
1180.000000	0.030456  
1179.000000	0.031006  
1178.000000	0.031492  
1177.000000	0.031896  
1176.000000	0.032205  
1175.000000	0.032399  
1174.000000	0.032462  
1173.000000	0.032411  
1172.000000	0.032285  
1171.000000	0.032107  
1170.000000	0.031869  
1169.000000	0.031556  
1168.000000	0.031158  
1167.000000	0.030679  
1166.000000	0.030142  
1165.000000	0.029573  
1164.000000	0.028963  
1163.000000	0.028266  
1162.000000	0.027470  
1161.000000	0.026662  
1160.000000	0.025962  
1159.000000	0.025389  
1158.000000	0.024855  
1157.000000	0.024274  
1156.000000	0.023650  
1155.000000	0.023012  
1154.000000	0.022352  
1153.000000	0.021656  
1152.000000	0.020970  
1151.000000	0.020380  
1150.000000	0.019932  
1149.000000	0.019625  
1148.000000	0.019427  
1147.000000	0.019276  
1146.000000	0.019080  
1145.000000	0.018760  
1144.000000	0.018311  
1143.000000	0.017794  
1142.000000	0.017278  
1141.000000	0.016803  
1140.000000	0.016376  
1139.000000	0.015983  
1138.000000	0.015613  
1137.000000	0.015287  
1136.000000	0.015034  
1135.000000	0.014831  
1134.000000	0.014610  
1133.000000	0.014345  
1132.000000	0.014106  
1131.000000	0.013975  
1130.000000	0.013967  
1129.000000	0.014051  
1128.000000	0.014225  
1127.000000	0.014487  
1126.000000	0.014785  
1125.000000	0.015058  
1124.000000	0.015296  
1123.000000	0.015521  
1122.000000	0.015715  
1121.000000	0.015843  
1120.000000	0.015917  
1119.000000	0.015986  
1118.000000	0.016049  
1117.000000	0.016058  
1116.000000	0.015982  
1115.000000	0.015831  
1114.000000	0.015603  
1113.000000	0.015282  
1112.000000	0.014904  
1111.000000	0.014557  
1110.000000	0.014295  
1109.000000	0.014107  
1108.000000	0.013983  
1107.000000	0.013962  
1106.000000	0.014063  
1105.000000	0.014222  
1104.000000	0.014337  
1103.000000	0.014360  
1102.000000	0.014334  
1101.000000	0.014339  
1100.000000	0.014422  
1099.000000	0.014565  
1098.000000	0.014698  
1097.000000	0.014782  
1096.000000	0.014852  
1095.000000	0.014954  
1094.000000	0.015060  
1093.000000	0.015092  
1092.000000	0.015029  
1091.000000	0.014920  
1090.000000	0.014798  
1089.000000	0.014630  
1088.000000	0.014396  
1087.000000	0.014159  
1086.000000	0.014007  
1085.000000	0.013964  
1084.000000	0.013984  
1083.000000	0.013999  
1082.000000	0.013959  
1081.000000	0.013861  
1080.000000	0.013779  
1079.000000	0.013820  
1078.000000	0.014029  
1077.000000	0.014346  
1076.000000	0.014691  
1075.000000	0.015039  
1074.000000	0.015396  
1073.000000	0.015733  
1072.000000	0.015991  
1071.000000	0.016151  
1070.000000	0.016252  
1069.000000	0.016347  
1068.000000	0.016467  
1067.000000	0.016606  
1066.000000	0.016729  
1065.000000	0.016788  
1064.000000	0.016763  
1063.000000	0.016664  
1062.000000	0.016497  
1061.000000	0.016236  
1060.000000	0.015876  
1059.000000	0.015470  
1058.000000	0.015107  
1057.000000	0.014857  
1056.000000	0.014760  
1055.000000	0.014806  
1054.000000	0.014877  
1053.000000	0.014768  
1052.000000	0.014359  
1051.000000	0.013791  
1050.000000	0.013389  
1049.000000	0.013350  
1048.000000	0.013571  
1047.000000	0.013803  
1046.000000	0.013903  
1045.000000	0.013893  
1044.000000	0.013881  
1043.000000	0.013959  
1042.000000	0.014140  
1041.000000	0.014357  
1040.000000	0.014515  
1039.000000	0.014563  
1038.000000	0.014516  
1037.000000	0.014422  
1036.000000	0.014323  
1035.000000	0.014261  
1034.000000	0.014278  
1033.000000	0.014389  
1032.000000	0.014541  
1031.000000	0.014652  
1030.000000	0.014675  
1029.000000	0.014634  
1028.000000	0.014595  
1027.000000	0.014607  
1026.000000	0.014674  
1025.000000	0.014750  
1024.000000	0.014765  
1023.000000	0.014667  
1022.000000	0.014459  
1021.000000	0.014192  
1020.000000	0.013906  
1019.000000	0.013609  
1018.000000	0.013316  
1017.000000	0.013079  
1016.000000	0.012959  
1015.000000	0.012949  
1014.000000	0.012960  
1013.000000	0.012898  
1012.000000	0.012742  
1011.000000	0.012542  
1010.000000	0.012370  
1009.000000	0.012270  
1008.000000	0.012247  
1007.000000	0.012272  
1006.000000	0.012297  
1005.000000	0.012278  
1004.000000	0.012204  
1003.000000	0.012110  
1002.000000	0.012047  
1001.000000	0.012033  
1000.000000	0.012014  
999.000000	 0.011897  
998.000000	 0.011648  
997.000000	 0.011371  
996.000000	 0.011234  
995.000000	 0.011313  
994.000000	 0.011507  
993.000000	 0.011636  
992.000000	 0.011608  
991.000000	 0.011474  
990.000000	 0.011362  
989.000000	 0.011364  
988.000000	 0.011482  
987.000000	 0.011620  
986.000000	 0.011666  
985.000000	 0.011593  
984.000000	 0.011497  
983.000000	 0.011499  
982.000000	 0.011620  
981.000000	 0.011778  
980.000000	 0.011903  
979.000000	 0.012011  
978.000000	 0.012164  
977.000000	 0.012387  
976.000000	 0.012642  
975.000000	 0.012865  
974.000000	 0.013019  
973.000000	 0.013118  
972.000000	 0.013216  
971.000000	 0.013356  
970.000000	 0.013529  
969.000000	 0.013693  
968.000000	 0.013820  
967.000000	 0.013904  
966.000000	 0.013926  
965.000000	 0.013850  
964.000000	 0.013672  
963.000000	 0.013451  
962.000000	 0.013265  
961.000000	 0.013150  
960.000000	 0.013082  
959.000000	 0.013025  
958.000000	 0.012961  
957.000000	 0.012908  
956.000000	 0.012898  
955.000000	 0.012939  
954.000000	 0.012992  
953.000000	 0.013000  
952.000000	 0.012955  
951.000000	 0.012910  
950.000000	 0.012908  
949.000000	 0.012920  
948.000000	 0.012877  
947.000000	 0.012766  
946.000000	 0.012662  
945.000000	 0.012638  
944.000000	 0.012679  
943.000000	 0.012700  
942.000000	 0.012638  
941.000000	 0.012485  
940.000000	 0.012250  
939.000000	 0.011936  
938.000000	 0.011576  
937.000000	 0.011256  
936.000000	 0.011044  
935.000000	 0.010917  
934.000000	 0.010810  
933.000000	 0.010731  
932.000000	 0.010759  
931.000000	 0.010907  
930.000000	 0.011056  
929.000000	 0.011057  
928.000000	 0.010904  
927.000000	 0.010736  
926.000000	 0.010686  
925.000000	 0.010768  
924.000000	 0.010906  
923.000000	 0.011023  
922.000000	 0.011097  
921.000000	 0.011132  
920.000000	 0.011126  
919.000000	 0.011073  
918.000000	 0.011003  
917.000000	 0.010989  
916.000000	 0.011093  
915.000000	 0.011271  
914.000000	 0.011393  
913.000000	 0.011358  
912.000000	 0.011187  
911.000000	 0.010977  
910.000000	 0.010824  
909.000000	 0.010786  
908.000000	 0.010865  
907.000000	 0.010978  
906.000000	 0.010977  
905.000000	 0.010793  
904.000000	 0.010534  
903.000000	 0.010390  
902.000000	 0.010423  
901.000000	 0.010530  
900.000000	 0.010590  
899.000000	 0.010597  
898.000000	 0.010617  
897.000000	 0.010688  
896.000000	 0.010799  
895.000000	 0.010914  
894.000000	 0.010999  
893.000000	 0.011026  
892.000000	 0.011009  
891.000000	 0.010995  
890.000000	 0.011027  
889.000000	 0.011101  
888.000000	 0.011187  
887.000000	 0.011254  
886.000000	 0.011266  
885.000000	 0.011196  
884.000000	 0.011056  
883.000000	 0.010909  
882.000000	 0.010823  
881.000000	 0.010833  
880.000000	 0.010926  
879.000000	 0.011053  
878.000000	 0.011145  
877.000000	 0.011158  
876.000000	 0.011103  
875.000000	 0.011029  
874.000000	 0.010958  
873.000000	 0.010867  
872.000000	 0.010730  
871.000000	 0.010576  
870.000000	 0.010492  
869.000000	 0.010555  
868.000000	 0.010744  
867.000000	 0.010914  
866.000000	 0.010899  
865.000000	 0.010674  
864.000000	 0.010388  
863.000000	 0.010210  
862.000000	 0.010187  
861.000000	 0.010273  
860.000000	 0.010442  
859.000000	 0.010684  
858.000000	 0.010913  
857.000000	 0.011008  
856.000000	 0.010968  
855.000000	 0.010956  
854.000000	 0.011132  
853.000000	 0.011491  
852.000000	 0.011909  
851.000000	 0.012279  
850.000000	 0.012555  
849.000000	 0.012703  
848.000000	 0.012695  
847.000000	 0.012577  
846.000000	 0.012469  
845.000000	 0.012463  
844.000000	 0.012527  
843.000000	 0.012549  
842.000000	 0.012459  
841.000000	 0.012300  
840.000000	 0.012171  
839.000000	 0.012123  
838.000000	 0.012125  
837.000000	 0.012116  
836.000000	 0.012038  
835.000000	 0.011842  
834.000000	 0.011508  
833.000000	 0.011112  
832.000000	 0.010815  
831.000000	 0.010717  
830.000000	 0.010750  
829.000000	 0.010787  
828.000000	 0.010824  
827.000000	 0.010970  
826.000000	 0.011232  
825.000000	 0.011443  
824.000000	 0.011449  
823.000000	 0.011286  
822.000000	 0.011095  
821.000000	 0.010987  
820.000000	 0.011022  
819.000000	 0.011234  
818.000000	 0.011592  
817.000000	 0.011990  
816.000000	 0.012322  
815.000000	 0.012527  
814.000000	 0.012574  
813.000000	 0.012458  
812.000000	 0.012252  
811.000000	 0.012114  
810.000000	 0.012168  
809.000000	 0.012394  
808.000000	 0.012673  
807.000000	 0.012904  
806.000000	 0.013034  
805.000000	 0.013009  
804.000000	 0.012777  
803.000000	 0.012365  
802.000000	 0.011905  
801.000000	 0.011547  
800.000000	 0.011336  
799.000000	 0.011198  
798.000000	 0.011035  
797.000000	 0.010839  
796.000000	 0.010690  
795.000000	 0.010645  
794.000000	 0.010663  
793.000000	 0.010679  
792.000000	 0.010704  
791.000000	 0.010810  
790.000000	 0.010993  
789.000000	 0.011137  
788.000000	 0.011148  
787.000000	 0.011093  
786.000000	 0.011147  
785.000000	 0.011415  
784.000000	 0.011831  
783.000000	 0.012241  
782.000000	 0.012565  
781.000000	 0.012848  
780.000000	 0.013169  
779.000000	 0.013532  
778.000000	 0.013875  
777.000000	 0.014176  
776.000000	 0.014504  
775.000000	 0.014916  
774.000000	 0.015363  
773.000000	 0.015742  
772.000000	 0.016017  
771.000000	 0.016247  
770.000000	 0.016484  
769.000000	 0.016696  
768.000000	 0.016814  
767.000000	 0.016792  
766.000000	 0.016616  
765.000000	 0.016299  
764.000000	 0.015918  
763.000000	 0.015618  
762.000000	 0.015536  
761.000000	 0.015704  
760.000000	 0.016030  
759.000000	 0.016375  
758.000000	 0.016646  
757.000000	 0.016842  
756.000000	 0.017029  
755.000000	 0.017257  
754.000000	 0.017506  
753.000000	 0.017718  
752.000000	 0.017875  
751.000000	 0.018022  
750.000000	 0.018217  
749.000000	 0.018484  
748.000000	 0.018838  
747.000000	 0.019354  
746.000000	 0.020172  
745.000000	 0.021394  
744.000000	 0.022953  
743.000000	 0.024566  
742.000000	 0.025878  
741.000000	 0.026698  
740.000000	 0.027106  
739.000000	 0.027325  
738.000000	 0.027496  
737.000000	 0.027611  
736.000000	 0.027609  
735.000000	 0.027492  
734.000000	 0.027365  
733.000000	 0.027381  
732.000000	 0.027637  
731.000000	 0.028073  
730.000000	 0.028538  
729.000000	 0.029037  
728.000000	 0.029788  
727.000000	 0.030954  
726.000000	 0.032398  
725.000000	 0.033779  
724.000000	 0.034879  
723.000000	 0.035701  
722.000000	 0.036218  
721.000000	 0.036134  
720.000000	 0.035073  
719.000000	 0.033096  
718.000000	 0.030759  
717.000000	 0.028648  
716.000000	 0.027049  
715.000000	 0.025933  
714.000000	 0.025086  
713.000000	 0.024285  
712.000000	 0.023440  
711.000000	 0.022614  
710.000000	 0.021948  
709.000000	 0.021561  
708.000000	 0.021463  
707.000000	 0.021531  
706.000000	 0.021657  
705.000000	 0.021869  
704.000000	 0.022210  
703.000000	 0.022566  
702.000000	 0.022716  
701.000000	 0.022577  
700.000000	 0.022329  
699.000000	 0.022139  
698.000000	 0.021892  
697.000000	 0.021340  
696.000000	 0.020474  
695.000000	 0.019665  
694.000000	 0.019253  
693.000000	 0.019121  
692.000000	 0.018824  
691.000000	 0.018048  
690.000000	 0.016917  
689.000000	 0.015800  
688.000000	 0.014873  
687.000000	 0.014029  
686.000000	 0.013154  
685.000000	 0.012389  
684.000000	 0.012010  
683.000000	 0.012078  
682.000000	 0.012352  
681.000000	 0.012522  
680.000000	 0.012437  
679.000000	 0.012087  
678.000000	 0.011596  
677.000000	 0.011292  
676.000000	 0.011240  
675.000000	 0.011297  
674.000000	 0.011355  
673.000000	 0.011206  
672.000000	 0.010095  
671.000000	 0.006524  
670.000000	 -0.000720 
669.000000	 -0.011549 
668.000000	 -0.019811 
667.000000	 -0.015758 
666.000000	 -0.004809 
665.000000	 0.003567  
664.000000	 0.008090  
663.000000	 0.010138  
662.000000	 0.010837  
661.000000	 0.010676  
660.000000	 0.010151  
659.000000	 0.009887  
658.000000	 0.010009  
657.000000	 0.009979  
656.000000	 0.009100  
655.000000	 0.007600  
654.000000	 0.006526  
653.000000	 0.006543  
652.000000	 0.007270  
651.000000	 0.007896  
650.000000	 0.008077  

