PE IR                   SPECTRUM    ASCII       PEDS        1.60        
  -1
NB4-17~1.ASC
17/04/10
13:42:55.00
17/04/10
13:42:55.00
Admin

650.000000
6









SPECTRUM ONE,CPU32 MAIN 00.02.5000 17-APRIL-2002 13:00:00
MIR TGS
MIR
OPTKBR
68128
0.200000

4.000000
STRONG
RATIO
SPECTRUM
MAGNITUDE

DOUBLE

COMBINED


0


#HDR
-1
-1
#GR
CM-1
A
0.00000011920928955078
0.0
4000.000000
-1.000000
3351
8
0.210739
-0.016505
#DATA
4000.000000	0.001805  
3999.000000	0.001723  
3998.000000	0.001735  
3997.000000	0.001877  
3996.000000	0.002109  
3995.000000	0.002086  
3994.000000	0.002252  
3993.000000	0.002326  
3992.000000	0.002313  
3991.000000	0.002243  
3990.000000	0.002157  
3989.000000	0.002084  
3988.000000	0.002025  
3987.000000	0.001971  
3986.000000	0.001924  
3985.000000	0.001900  
3984.000000	0.001899  
3983.000000	0.001881  
3982.000000	0.001803  
3981.000000	0.001666  
3980.000000	0.001535  
3979.000000	0.001487  
3978.000000	0.001552  
3977.000000	0.001700  
3976.000000	0.001878  
3975.000000	0.002045  
3974.000000	0.002170  
3973.000000	0.002226  
3972.000000	0.002201  
3971.000000	0.002122  
3970.000000	0.002035  
3969.000000	0.001967  
3968.000000	0.001901  
3967.000000	0.001817  
3966.000000	0.001742  
3965.000000	0.001747  
3964.000000	0.001887  
3963.000000	0.002127  
3962.000000	0.002357  
3961.000000	0.002471  
3960.000000	0.002447  
3959.000000	0.002332  
3958.000000	0.002185  
3957.000000	0.002036  
3956.000000	0.001897  
3955.000000	0.001787  
3954.000000	0.001726  
3953.000000	0.001723  
3952.000000	0.001769  
3951.000000	0.001855  
3950.000000	0.001982  
3949.000000	0.002152  
3948.000000	0.002343  
3947.000000	0.002505  
3946.000000	0.002570  
3945.000000	0.002496  
3944.000000	0.002305  
3943.000000	0.002081  
3942.000000	0.001915  
3941.000000	0.001851  
3940.000000	0.001892  
3939.000000	0.002023  
3938.000000	0.002211  
3937.000000	0.002395  
3936.000000	0.002498  
3935.000000	0.002483  
3934.000000	0.002385  
3933.000000	0.002291  
3932.000000	0.002274  
3931.000000	0.002337  
3930.000000	0.002431  
3929.000000	0.002491  
3928.000000	0.002485  
3927.000000	0.002426  
3926.000000	0.002354  
3925.000000	0.002311  
3924.000000	0.002321  
3923.000000	0.002389  
3922.000000	0.002510  
3921.000000	0.002651  
3920.000000	0.002754  
3919.000000	0.002754  
3918.000000	0.002638  
3917.000000	0.002465  
3916.000000	0.002331  
3915.000000	0.002293  
3914.000000	0.002321  
3913.000000	0.002336  
3912.000000	0.002275  
3911.000000	0.002148  
3910.000000	0.002041  
3909.000000	0.002039  
3908.000000	0.002163  
3907.000000	0.002357  
3906.000000	0.002529  
3905.000000	0.002625  
3904.000000	0.002642  
3903.000000	0.002589  
3902.000000	0.002469  
3901.000000	0.002316  
3900.000000	0.002212  
3899.000000	0.002233  
3898.000000	0.002365  
3897.000000	0.002513  
3896.000000	0.002575  
3895.000000	0.002506  
3894.000000	0.002341  
3893.000000	0.002177  
3892.000000	0.002108  
3891.000000	0.002137  
3890.000000	0.002198  
3889.000000	0.002231  
3888.000000	0.002219  
3887.000000	0.002185  
3886.000000	0.002177  
3885.000000	0.002206  
3884.000000	0.002230  
3883.000000	0.002202  
3882.000000	0.002123  
3881.000000	0.002061  
3880.000000	0.002070  
3879.000000	0.002147  
3878.000000	0.002250  
3877.000000	0.002344  
3876.000000	0.002426  
3875.000000	0.002533  
3874.000000	0.002695  
3873.000000	0.002881  
3872.000000	0.003026  
3871.000000	0.003097  
3870.000000	0.003127  
3869.000000	0.003156  
3868.000000	0.003192  
3867.000000	0.003210  
3866.000000	0.003161  
3865.000000	0.003024  
3864.000000	0.002843  
3863.000000	0.002693  
3862.000000	0.002614  
3861.000000	0.002565  
3860.000000	0.002485  
3859.000000	0.002367  
3858.000000	0.002270  
3857.000000	0.002249  
3856.000000	0.002280  
3855.000000	0.002292  
3854.000000	0.002325  
3853.000000	0.002409  
3852.000000	0.002487  
3851.000000	0.002561  
3850.000000	0.002680  
3849.000000	0.002861  
3848.000000	0.003082  
3847.000000	0.003285  
3846.000000	0.003417  
3845.000000	0.003498  
3844.000000	0.003595  
3843.000000	0.003735  
3842.000000	0.003875  
3841.000000	0.003940  
3840.000000	0.003886  
3839.000000	0.003720  
3838.000000	0.003487  
3837.000000	0.003260  
3836.000000	0.003123  
3835.000000	0.003125  
3834.000000	0.003254  
3833.000000	0.003413  
3832.000000	0.003477  
3831.000000	0.003390  
3830.000000	0.003207  
3829.000000	0.003020  
3828.000000	0.002889  
3827.000000	0.002815  
3826.000000	0.002794  
3825.000000	0.002853  
3824.000000	0.003022  
3823.000000	0.003279  
3822.000000	0.003551  
3821.000000	0.003711  
3820.000000	0.003645  
3819.000000	0.003358  
3818.000000	0.002955  
3817.000000	0.002582  
3816.000000	0.002363  
3815.000000	0.002319  
3814.000000	0.002388  
3813.000000	0.002499  
3812.000000	0.002598  
3811.000000	0.002640  
3810.000000	0.002587  
3809.000000	0.002448  
3808.000000	0.002327  
3807.000000	0.002356  
3806.000000	0.002561  
3805.000000	0.002839  
3804.000000	0.003045  
3803.000000	0.003060  
3802.000000	0.002896  
3801.000000	0.002679  
3800.000000	0.002523  
3799.000000	0.002464  
3798.000000	0.002479  
3797.000000	0.002541  
3796.000000	0.002626  
3795.000000	0.002699  
3794.000000	0.002723  
3793.000000	0.002678  
3792.000000	0.002574  
3791.000000	0.002441  
3790.000000	0.002323  
3789.000000	0.002246  
3788.000000	0.002223  
3787.000000	0.002248  
3786.000000	0.002307  
3785.000000	0.002380  
3784.000000	0.002448  
3783.000000	0.002491  
3782.000000	0.002477  
3781.000000	0.002386  
3780.000000	0.002250  
3779.000000	0.002153  
3778.000000	0.002153  
3777.000000	0.002233  
3776.000000	0.002321  
3775.000000	0.002353  
3774.000000	0.002320  
3773.000000	0.002269  
3772.000000	0.002278  
3771.000000	0.002406  
3770.000000	0.002655  
3769.000000	0.002930  
3768.000000	0.003089  
3767.000000	0.003038  
3766.000000	0.002803  
3765.000000	0.002522  
3764.000000	0.002343  
3763.000000	0.002317  
3762.000000	0.002397  
3761.000000	0.002514  
3760.000000	0.002648  
3759.000000	0.002813  
3758.000000	0.003000  
3757.000000	0.003150  
3756.000000	0.003214  
3755.000000	0.003214  
3754.000000	0.003277  
3753.000000	0.003547  
3752.000000	0.004001  
3751.000000	0.004343  
3750.000000	0.004311  
3749.000000	0.004018  
3748.000000	0.003744  
3747.000000	0.003658  
3746.000000	0.003757  
3745.000000	0.003929  
3744.000000	0.004033  
3743.000000	0.004046  
3742.000000	0.004063  
3741.000000	0.004169  
3740.000000	0.004400  
3739.000000	0.004757  
3738.000000	0.005173  
3737.000000	0.005528  
3736.000000	0.005689  
3735.000000	0.005604  
3734.000000	0.005373  
3733.000000	0.005139  
3732.000000	0.004955  
3731.000000	0.004812  
3730.000000	0.004705  
3729.000000	0.004633  
3728.000000	0.004588  
3727.000000	0.004564  
3726.000000	0.004552  
3725.000000	0.004527  
3724.000000	0.004450  
3723.000000	0.004294  
3722.000000	0.004062  
3721.000000	0.003762  
3720.000000	0.003408  
3719.000000	0.003031  
3718.000000	0.002703  
3717.000000	0.002485  
3716.000000	0.002390  
3715.000000	0.002383  
3714.000000	0.002442  
3713.000000	0.002614  
3712.000000	0.002951  
3711.000000	0.003354  
3710.000000	0.003624  
3709.000000	0.003684  
3708.000000	0.003629  
3707.000000	0.003601  
3706.000000	0.003637  
3705.000000	0.003636  
3704.000000	0.003461  
3703.000000	0.003108  
3702.000000	0.002754  
3701.000000	0.002596  
3700.000000	0.002675  
3699.000000	0.002887  
3698.000000	0.003103  
3697.000000	0.003244  
3696.000000	0.003307  
3695.000000	0.003330  
3694.000000	0.003332  
3693.000000	0.003283  
3692.000000	0.003137  
3691.000000	0.002914  
3690.000000	0.002725  
3689.000000	0.002682  
3688.000000	0.002768  
3687.000000	0.002899  
3686.000000	0.003014  
3685.000000	0.003109  
3684.000000	0.003214  
3683.000000	0.003334  
3682.000000	0.003409  
3681.000000	0.003371  
3680.000000	0.003222  
3679.000000	0.003047  
3678.000000	0.002963  
3677.000000	0.003048  
3676.000000	0.003300  
3675.000000	0.003563  
3674.000000	0.003697  
3673.000000	0.003706  
3672.000000	0.003668  
3671.000000	0.003646  
3670.000000	0.003660  
3669.000000	0.003640  
3668.000000	0.003502  
3667.000000	0.003253  
3666.000000	0.002964  
3665.000000	0.002688  
3664.000000	0.002431  
3663.000000	0.002173  
3662.000000	0.001920  
3661.000000	0.001719  
3660.000000	0.001616  
3659.000000	0.001625  
3658.000000	0.001748  
3657.000000	0.002000  
3656.000000	0.002360  
3655.000000	0.002742  
3654.000000	0.003035  
3653.000000	0.003147  
3652.000000	0.003053  
3651.000000	0.002873  
3650.000000	0.002821  
3649.000000	0.002952  
3648.000000	0.003127  
3647.000000	0.003221  
3646.000000	0.003202  
3645.000000	0.003090  
3644.000000	0.002957  
3643.000000	0.002908  
3642.000000	0.003009  
3641.000000	0.003207  
3640.000000	0.003352  
3639.000000	0.003326  
3638.000000	0.003147  
3637.000000	0.002962  
3636.000000	0.002932  
3635.000000	0.003115  
3634.000000	0.003434  
3633.000000	0.003738  
3632.000000	0.003918  
3631.000000	0.003983  
3630.000000	0.004040  
3629.000000	0.004141  
3628.000000	0.004165  
3627.000000	0.004043  
3626.000000	0.003879  
3625.000000	0.003797  
3624.000000	0.003819  
3623.000000	0.003839  
3622.000000	0.003697  
3621.000000	0.003339  
3620.000000	0.002913  
3619.000000	0.002642  
3618.000000	0.002593  
3617.000000	0.002679  
3616.000000	0.002803  
3615.000000	0.002939  
3614.000000	0.003115  
3613.000000	0.003340  
3612.000000	0.003575  
3611.000000	0.003779  
3610.000000	0.003937  
3609.000000	0.004023  
3608.000000	0.003975  
3607.000000	0.003745  
3606.000000	0.003362  
3605.000000	0.002943  
3604.000000	0.002635  
3603.000000	0.002551  
3602.000000	0.002734  
3601.000000	0.003128  
3600.000000	0.003610  
3599.000000	0.004033  
3598.000000	0.004269  
3597.000000	0.004249  
3596.000000	0.004025  
3595.000000	0.003754  
3594.000000	0.003587  
3593.000000	0.003536  
3592.000000	0.003486  
3591.000000	0.003333  
3590.000000	0.003089  
3589.000000	0.002913  
3588.000000	0.002960  
3587.000000	0.003187  
3586.000000	0.003400  
3585.000000	0.003454  
3584.000000	0.003335  
3583.000000	0.003107  
3582.000000	0.002876  
3581.000000	0.002747  
3580.000000	0.002760  
3579.000000	0.002844  
3578.000000	0.002873  
3577.000000	0.002777  
3576.000000	0.002605  
3575.000000	0.002453  
3574.000000	0.002358  
3573.000000	0.002284  
3572.000000	0.002195  
3571.000000	0.002134  
3570.000000	0.002220  
3569.000000	0.002547  
3568.000000	0.003034  
3567.000000	0.003404  
3566.000000	0.003465  
3565.000000	0.003303  
3564.000000	0.003130  
3563.000000	0.003053  
3562.000000	0.003054  
3561.000000	0.003077  
3560.000000	0.003119  
3559.000000	0.003201  
3558.000000	0.003289  
3557.000000	0.003290  
3556.000000	0.003135  
3555.000000	0.002856  
3554.000000	0.002564  
3553.000000	0.002374  
3552.000000	0.002335  
3551.000000	0.002420  
3550.000000	0.002563  
3549.000000	0.002682  
3548.000000	0.002711  
3547.000000	0.002640  
3546.000000	0.002537  
3545.000000	0.002504  
3544.000000	0.002581  
3543.000000	0.002737  
3542.000000	0.002921  
3541.000000	0.003115  
3540.000000	0.003292  
3539.000000	0.003382  
3538.000000	0.003286  
3537.000000	0.002982  
3536.000000	0.002585  
3535.000000	0.002272  
3534.000000	0.002160  
3533.000000	0.002246  
3532.000000	0.002463  
3531.000000	0.002726  
3530.000000	0.002967  
3529.000000	0.003132  
3528.000000	0.003202  
3527.000000	0.003197  
3526.000000	0.003149  
3525.000000	0.003076  
3524.000000	0.002992  
3523.000000	0.002926  
3522.000000	0.002897  
3521.000000	0.002882  
3520.000000	0.002846  
3519.000000	0.002794  
3518.000000	0.002774  
3517.000000	0.002816  
3516.000000	0.002898  
3515.000000	0.002968  
3514.000000	0.003004  
3513.000000	0.003015  
3512.000000	0.003023  
3511.000000	0.003041  
3510.000000	0.003071  
3509.000000	0.003100  
3508.000000	0.003111  
3507.000000	0.003112  
3506.000000	0.003137  
3505.000000	0.003221  
3504.000000	0.003359  
3503.000000	0.003497  
3502.000000	0.003566  
3501.000000	0.003525  
3500.000000	0.003384  
3499.000000	0.003220  
3498.000000	0.003146  
3497.000000	0.003223  
3496.000000	0.003399  
3495.000000	0.003549  
3494.000000	0.003572  
3493.000000	0.003443  
3492.000000	0.003190  
3491.000000	0.002882  
3490.000000	0.002635  
3489.000000	0.002567  
3488.000000	0.002705  
3487.000000	0.002969  
3486.000000	0.003260  
3485.000000	0.003524  
3484.000000	0.003722  
3483.000000	0.003781  
3482.000000	0.003649  
3481.000000	0.003374  
3480.000000	0.003094  
3479.000000	0.002930  
3478.000000	0.002913  
3477.000000	0.003016  
3476.000000	0.003192  
3475.000000	0.003399  
3474.000000	0.003592  
3473.000000	0.003724  
3472.000000	0.003760  
3471.000000	0.003684  
3470.000000	0.003510  
3469.000000	0.003292  
3468.000000	0.003117  
3467.000000	0.003064  
3466.000000	0.003151  
3465.000000	0.003307  
3464.000000	0.003398  
3463.000000	0.003328  
3462.000000	0.003129  
3461.000000	0.002943  
3460.000000	0.002884  
3459.000000	0.002940  
3458.000000	0.003019  
3457.000000	0.003068  
3456.000000	0.003101  
3455.000000	0.003146  
3454.000000	0.003209  
3453.000000	0.003289  
3452.000000	0.003392  
3451.000000	0.003498  
3450.000000	0.003556  
3449.000000	0.003544  
3448.000000	0.003507  
3447.000000	0.003515  
3446.000000	0.003598  
3445.000000	0.003727  
3444.000000	0.003848  
3443.000000	0.003909  
3442.000000	0.003895  
3441.000000	0.003855  
3440.000000	0.003869  
3439.000000	0.003975  
3438.000000	0.004102  
3437.000000	0.004118  
3436.000000	0.003936  
3435.000000	0.003597  
3434.000000	0.003257  
3433.000000	0.003084  
3432.000000	0.003143  
3431.000000	0.003356  
3430.000000	0.003565  
3429.000000	0.003652  
3428.000000	0.003600  
3427.000000	0.003476  
3426.000000	0.003362  
3425.000000	0.003325  
3424.000000	0.003390  
3423.000000	0.003524  
3422.000000	0.003659  
3421.000000	0.003741  
3420.000000	0.003761  
3419.000000	0.003745  
3418.000000	0.003719  
3417.000000	0.003705  
3416.000000	0.003715  
3415.000000	0.003744  
3414.000000	0.003789  
3413.000000	0.003868  
3412.000000	0.004003  
3411.000000	0.004166  
3410.000000	0.004272  
3409.000000	0.004238  
3408.000000	0.004061  
3407.000000	0.003809  
3406.000000	0.003565  
3405.000000	0.003395  
3404.000000	0.003341  
3403.000000	0.003422  
3402.000000	0.003617  
3401.000000	0.003867  
3400.000000	0.004081  
3399.000000	0.004160  
3398.000000	0.004066  
3397.000000	0.003886  
3396.000000	0.003802  
3395.000000	0.003947  
3394.000000	0.004266  
3393.000000	0.004552  
3392.000000	0.004621  
3391.000000	0.004456  
3390.000000	0.004202  
3389.000000	0.004024  
3388.000000	0.003983  
3387.000000	0.004004  
3386.000000	0.003968  
3385.000000	0.003846  
3384.000000	0.003734  
3383.000000	0.003748  
3382.000000	0.003896  
3381.000000	0.004086  
3380.000000	0.004234  
3379.000000	0.004309  
3378.000000	0.004293  
3377.000000	0.004151  
3376.000000	0.003891  
3375.000000	0.003617  
3374.000000	0.003472  
3373.000000	0.003512  
3372.000000	0.003669  
3371.000000	0.003841  
3370.000000	0.003988  
3369.000000	0.004131  
3368.000000	0.004284  
3367.000000	0.004421  
3366.000000	0.004515  
3365.000000	0.004568  
3364.000000	0.004589  
3363.000000	0.004562  
3362.000000	0.004476  
3361.000000	0.004381  
3360.000000	0.004363  
3359.000000	0.004439  
3358.000000	0.004527  
3357.000000	0.004543  
3356.000000	0.004505  
3355.000000	0.004482  
3354.000000	0.004486  
3353.000000	0.004452  
3352.000000	0.004329  
3351.000000	0.004147  
3350.000000	0.003977  
3349.000000	0.003879  
3348.000000	0.003888  
3347.000000	0.004023  
3346.000000	0.004240  
3345.000000	0.004426  
3344.000000	0.004472  
3343.000000	0.004378  
3342.000000	0.004247  
3341.000000	0.004178  
3340.000000	0.004171  
3339.000000	0.004155  
3338.000000	0.004092  
3337.000000	0.004035  
3336.000000	0.004067  
3335.000000	0.004193  
3334.000000	0.004324  
3333.000000	0.004375  
3332.000000	0.004348  
3331.000000	0.004312  
3330.000000	0.004308  
3329.000000	0.004325  
3328.000000	0.004344  
3327.000000	0.004357  
3326.000000	0.004338  
3325.000000	0.004256  
3324.000000	0.004135  
3323.000000	0.004063  
3322.000000	0.004111  
3321.000000	0.004252  
3320.000000	0.004404  
3319.000000	0.004527  
3318.000000	0.004635  
3317.000000	0.004719  
3316.000000	0.004722  
3315.000000	0.004602  
3314.000000	0.004409  
3313.000000	0.004255  
3312.000000	0.004217  
3311.000000	0.004287  
3310.000000	0.004396  
3309.000000	0.004467  
3308.000000	0.004437  
3307.000000	0.004295  
3306.000000	0.004122  
3305.000000	0.004068  
3304.000000	0.004233  
3303.000000	0.004553  
3302.000000	0.004835  
3301.000000	0.004927  
3300.000000	0.004841  
3299.000000	0.004688  
3298.000000	0.004556  
3297.000000	0.004462  
3296.000000	0.004408  
3295.000000	0.004399  
3294.000000	0.004427  
3293.000000	0.004471  
3292.000000	0.004533  
3291.000000	0.004613  
3290.000000	0.004660  
3289.000000	0.004604  
3288.000000	0.004445  
3287.000000	0.004278  
3286.000000	0.004189  
3285.000000	0.004169  
3284.000000	0.004161  
3283.000000	0.004156  
3282.000000	0.004186  
3281.000000	0.004256  
3280.000000	0.004327  
3279.000000	0.004372  
3278.000000	0.004404  
3277.000000	0.004440  
3276.000000	0.004490  
3275.000000	0.004569  
3274.000000	0.004706  
3273.000000	0.004884  
3272.000000	0.005017  
3271.000000	0.005004  
3270.000000	0.004831  
3269.000000	0.004588  
3268.000000	0.004375  
3267.000000	0.004222  
3266.000000	0.004108  
3265.000000	0.004046  
3264.000000	0.004095  
3263.000000	0.004275  
3262.000000	0.004504  
3261.000000	0.004670  
3260.000000	0.004747  
3259.000000	0.004803  
3258.000000	0.004889  
3257.000000	0.004965  
3256.000000	0.004951  
3255.000000	0.004826  
3254.000000	0.004657  
3253.000000	0.004544  
3252.000000	0.004540  
3251.000000	0.004613  
3250.000000	0.004683  
3249.000000	0.004708  
3248.000000	0.004727  
3247.000000	0.004782  
3246.000000	0.004828  
3245.000000	0.004776  
3244.000000	0.004633  
3243.000000	0.004519  
3242.000000	0.004530  
3241.000000	0.004621  
3240.000000	0.004676  
3239.000000	0.004637  
3238.000000	0.004530  
3237.000000	0.004398  
3236.000000	0.004262  
3235.000000	0.004138  
3234.000000	0.004049  
3233.000000	0.004009  
3232.000000	0.004032  
3231.000000	0.004133  
3230.000000	0.004284  
3229.000000	0.004406  
3228.000000	0.004444  
3227.000000	0.004439  
3226.000000	0.004487  
3225.000000	0.004628  
3224.000000	0.004812  
3223.000000	0.004966  
3222.000000	0.005032  
3221.000000	0.004972  
3220.000000	0.004778  
3219.000000	0.004513  
3218.000000	0.004289  
3217.000000	0.004189  
3216.000000	0.004224  
3215.000000	0.004354  
3214.000000	0.004525  
3213.000000	0.004682  
3212.000000	0.004779  
3211.000000	0.004805  
3210.000000	0.004774  
3209.000000	0.004710  
3208.000000	0.004647  
3207.000000	0.004645  
3206.000000	0.004747  
3205.000000	0.004923  
3204.000000	0.005091  
3203.000000	0.005191  
3202.000000	0.005223  
3201.000000	0.005183  
3200.000000	0.005038  
3199.000000	0.004780  
3198.000000	0.004473  
3197.000000	0.004201  
3196.000000	0.003999  
3195.000000	0.003861  
3194.000000	0.003782  
3193.000000	0.003777  
3192.000000	0.003851  
3191.000000	0.004007  
3190.000000	0.004249  
3189.000000	0.004550  
3188.000000	0.004821  
3187.000000	0.004952  
3186.000000	0.004916  
3185.000000	0.004799  
3184.000000	0.004714  
3183.000000	0.004693  
3182.000000	0.004678  
3181.000000	0.004600  
3180.000000	0.004446  
3179.000000	0.004263  
3178.000000	0.004116  
3177.000000	0.004052  
3176.000000	0.004088  
3175.000000	0.004198  
3174.000000	0.004310  
3173.000000	0.004342  
3172.000000	0.004275  
3171.000000	0.004181  
3170.000000	0.004165  
3169.000000	0.004267  
3168.000000	0.004431  
3167.000000	0.004554  
3166.000000	0.004575  
3165.000000	0.004510  
3164.000000	0.004422  
3163.000000	0.004378  
3162.000000	0.004399  
3161.000000	0.004457  
3160.000000	0.004510  
3159.000000	0.004541  
3158.000000	0.004563  
3157.000000	0.004590  
3156.000000	0.004609  
3155.000000	0.004594  
3154.000000	0.004553  
3153.000000	0.004530  
3152.000000	0.004550  
3151.000000	0.004555  
3150.000000	0.004453  
3149.000000	0.004232  
3148.000000	0.004002  
3147.000000	0.003889  
3146.000000	0.003897  
3145.000000	0.003927  
3144.000000	0.003912  
3143.000000	0.003879  
3142.000000	0.003875  
3141.000000	0.003898  
3140.000000	0.003932  
3139.000000	0.004010  
3138.000000	0.004171  
3137.000000	0.004382  
3136.000000	0.004541  
3135.000000	0.004567  
3134.000000	0.004463  
3133.000000	0.004306  
3132.000000	0.004200  
3131.000000	0.004214  
3130.000000	0.004327  
3129.000000	0.004445  
3128.000000	0.004480  
3127.000000	0.004424  
3126.000000	0.004325  
3125.000000	0.004236  
3124.000000	0.004200  
3123.000000	0.004260  
3122.000000	0.004417  
3121.000000	0.004595  
3120.000000	0.004686  
3119.000000	0.004640  
3118.000000	0.004502  
3117.000000	0.004354  
3116.000000	0.004274  
3115.000000	0.004305  
3114.000000	0.004433  
3113.000000	0.004580  
3112.000000	0.004669  
3111.000000	0.004688  
3110.000000	0.004681  
3109.000000	0.004658  
3108.000000	0.004587  
3107.000000	0.004451  
3106.000000	0.004294  
3105.000000	0.004172  
3104.000000	0.004120  
3103.000000	0.004160  
3102.000000	0.004289  
3101.000000	0.004437  
3100.000000	0.004485  
3099.000000	0.004373  
3098.000000	0.004169  
3097.000000	0.004013  
3096.000000	0.003997  
3095.000000	0.004116  
3094.000000	0.004297  
3093.000000	0.004456  
3092.000000	0.004544  
3091.000000	0.004568  
3090.000000	0.004565  
3089.000000	0.004549  
3088.000000	0.004511  
3087.000000	0.004460  
3086.000000	0.004446  
3085.000000	0.004494  
3084.000000	0.004558  
3083.000000	0.004577  
3082.000000	0.004557  
3081.000000	0.004575  
3080.000000	0.004685  
3079.000000	0.004866  
3078.000000	0.005044  
3077.000000	0.005154  
3076.000000	0.005173  
3075.000000	0.005105  
3074.000000	0.004980  
3073.000000	0.004850  
3072.000000	0.004782  
3071.000000	0.004829  
3070.000000	0.004982  
3069.000000	0.005152  
3068.000000	0.005238  
3067.000000	0.005208  
3066.000000	0.005130  
3065.000000	0.005104  
3064.000000	0.005189  
3063.000000	0.005369  
3062.000000	0.005565  
3061.000000	0.005672  
3060.000000	0.005633  
3059.000000	0.005492  
3058.000000	0.005355  
3057.000000	0.005285  
3056.000000	0.005271  
3055.000000	0.005293  
3054.000000	0.005356  
3053.000000	0.005434  
3052.000000	0.005444  
3051.000000	0.005334  
3050.000000	0.005177  
3049.000000	0.005119  
3048.000000	0.005227  
3047.000000	0.005432  
3046.000000	0.005618  
3045.000000	0.005718  
3044.000000	0.005724  
3043.000000	0.005665  
3042.000000	0.005600  
3041.000000	0.005596  
3040.000000	0.005695  
3039.000000	0.005877  
3038.000000	0.006077  
3037.000000	0.006222  
3036.000000	0.006276  
3035.000000	0.006256  
3034.000000	0.006215  
3033.000000	0.006206  
3032.000000	0.006259  
3031.000000	0.006390  
3030.000000	0.006595  
3029.000000	0.006834  
3028.000000	0.007038  
3027.000000	0.007167  
3026.000000	0.007254  
3025.000000	0.007376  
3024.000000	0.007583  
3023.000000	0.007872  
3022.000000	0.008194  
3021.000000	0.008477  
3020.000000	0.008671  
3019.000000	0.008801  
3018.000000	0.008977  
3017.000000	0.009304  
3016.000000	0.009780  
3015.000000	0.010304  
3014.000000	0.010772  
3013.000000	0.011147  
3012.000000	0.011432  
3011.000000	0.011634  
3010.000000	0.011757  
3009.000000	0.011815  
3008.000000	0.011827  
3007.000000	0.011820  
3006.000000	0.011809  
3005.000000	0.011766  
3004.000000	0.011622  
3003.000000	0.011343  
3002.000000	0.011018  
3001.000000	0.010819  
3000.000000	0.010861  
2999.000000	0.011096  
2998.000000	0.011361  
2997.000000	0.011509  
2996.000000	0.011508  
2995.000000	0.011448  
2994.000000	0.011483  
2993.000000	0.011732  
2992.000000	0.012202  
2991.000000	0.012794  
2990.000000	0.013397  
2989.000000	0.013974  
2988.000000	0.014555  
2987.000000	0.015198  
2986.000000	0.015953  
2985.000000	0.016846  
2984.000000	0.017866  
2983.000000	0.018984  
2982.000000	0.020187  
2981.000000	0.021501  
2980.000000	0.022955  
2979.000000	0.024557  
2978.000000	0.026325  
2977.000000	0.028325  
2976.000000	0.030654  
2975.000000	0.033379  
2974.000000	0.036511  
2973.000000	0.040009  
2972.000000	0.043802  
2971.000000	0.047830  
2970.000000	0.052096  
2969.000000	0.056691  
2968.000000	0.061701  
2967.000000	0.067073  
2966.000000	0.072584  
2965.000000	0.077982  
2964.000000	0.083136  
2963.000000	0.088052  
2962.000000	0.092778  
2961.000000	0.097315  
2960.000000	0.101587  
2959.000000	0.105453  
2958.000000	0.108720  
2957.000000	0.111222  
2956.000000	0.112886  
2955.000000	0.113726  
2954.000000	0.113780  
2953.000000	0.113075  
2952.000000	0.111679  
2951.000000	0.109751  
2950.000000	0.107540  
2949.000000	0.105332  
2948.000000	0.103373  
2947.000000	0.101814  
2946.000000	0.100724  
2945.000000	0.100174  
2944.000000	0.100291  
2943.000000	0.101233  
2942.000000	0.103094  
2941.000000	0.105862  
2940.000000	0.109456  
2939.000000	0.113800  
2938.000000	0.118853  
2937.000000	0.124582  
2936.000000	0.130900  
2935.000000	0.137631  
2934.000000	0.144561  
2933.000000	0.151557  
2932.000000	0.158654  
2931.000000	0.165954  
2930.000000	0.173446  
2929.000000	0.180919  
2928.000000	0.188053  
2927.000000	0.194548  
2926.000000	0.200175  
2925.000000	0.204761  
2924.000000	0.208161  
2923.000000	0.210211  
2922.000000	0.210739  
2921.000000	0.209709  
2920.000000	0.207341  
2919.000000	0.203996  
2918.000000	0.199937  
2917.000000	0.195263  
2916.000000	0.190069  
2915.000000	0.184557  
2914.000000	0.178955  
2913.000000	0.173397  
2912.000000	0.167949  
2911.000000	0.162721  
2910.000000	0.157859  
2909.000000	0.153407  
2908.000000	0.149219  
2907.000000	0.145056  
2906.000000	0.140778  
2905.000000	0.136456  
2904.000000	0.132279  
2903.000000	0.128390  
2902.000000	0.124772  
2901.000000	0.121300  
2900.000000	0.117848  
2899.000000	0.114357  
2898.000000	0.110851  
2897.000000	0.107396  
2896.000000	0.104059  
2895.000000	0.100866  
2894.000000	0.097793  
2893.000000	0.094773  
2892.000000	0.091734  
2891.000000	0.088653  
2890.000000	0.085593  
2889.000000	0.082695  
2888.000000	0.080113  
2887.000000	0.077923  
2886.000000	0.076111  
2885.000000	0.074638  
2884.000000	0.073528  
2883.000000	0.072863  
2882.000000	0.072717  
2881.000000	0.073118  
2880.000000	0.074085  
2879.000000	0.075673  
2878.000000	0.077933  
2877.000000	0.080811  
2876.000000	0.084077  
2875.000000	0.087385  
2874.000000	0.090388  
2873.000000	0.092825  
2872.000000	0.094550  
2871.000000	0.095553  
2870.000000	0.095976  
2869.000000	0.096084  
2868.000000	0.096172  
2867.000000	0.096473  
2866.000000	0.097169  
2865.000000	0.098436  
2864.000000	0.100439  
2863.000000	0.103239  
2862.000000	0.106742  
2861.000000	0.110777  
2860.000000	0.115196  
2859.000000	0.119877  
2858.000000	0.124620  
2857.000000	0.129085  
2856.000000	0.132838  
2855.000000	0.135425  
2854.000000	0.136449  
2853.000000	0.135669  
2852.000000	0.133083  
2851.000000	0.128920  
2850.000000	0.123521  
2849.000000	0.117240  
2848.000000	0.110401  
2847.000000	0.103310  
2846.000000	0.096242  
2845.000000	0.089394  
2844.000000	0.082842  
2843.000000	0.076554  
2842.000000	0.070490  
2841.000000	0.064686  
2840.000000	0.059243  
2839.000000	0.054250  
2838.000000	0.049733  
2837.000000	0.045671  
2836.000000	0.042029  
2835.000000	0.038765  
2834.000000	0.035829  
2833.000000	0.033181  
2832.000000	0.030814  
2831.000000	0.028754  
2830.000000	0.027017  
2829.000000	0.025568  
2828.000000	0.024319  
2827.000000	0.023172  
2826.000000	0.022081  
2825.000000	0.021059  
2824.000000	0.020129  
2823.000000	0.019292  
2822.000000	0.018534  
2821.000000	0.017856  
2820.000000	0.017267  
2819.000000	0.016754  
2818.000000	0.016281  
2817.000000	0.015809  
2816.000000	0.015318  
2815.000000	0.014806  
2814.000000	0.014280  
2813.000000	0.013750  
2812.000000	0.013239  
2811.000000	0.012787  
2810.000000	0.012437  
2809.000000	0.012211  
2808.000000	0.012091  
2807.000000	0.012025  
2806.000000	0.011948  
2805.000000	0.011820  
2804.000000	0.011620  
2803.000000	0.011341  
2802.000000	0.010991  
2801.000000	0.010620  
2800.000000	0.010308  
2799.000000	0.010124  
2798.000000	0.010082  
2797.000000	0.010132  
2796.000000	0.010195  
2795.000000	0.010198  
2794.000000	0.010081  
2793.000000	0.009805  
2792.000000	0.009386  
2791.000000	0.008930  
2790.000000	0.008588  
2789.000000	0.008447  
2788.000000	0.008463  
2787.000000	0.008510  
2786.000000	0.008497  
2785.000000	0.008418  
2784.000000	0.008309  
2783.000000	0.008195  
2782.000000	0.008094  
2781.000000	0.008037  
2780.000000	0.008043  
2779.000000	0.008086  
2778.000000	0.008093  
2777.000000	0.007996  
2776.000000	0.007775  
2775.000000	0.007481  
2774.000000	0.007213  
2773.000000	0.007064  
2772.000000	0.007051  
2771.000000	0.007103  
2770.000000	0.007122  
2769.000000	0.007058  
2768.000000	0.006923  
2767.000000	0.006750  
2766.000000	0.006571  
2765.000000	0.006433  
2764.000000	0.006381  
2763.000000	0.006413  
2762.000000	0.006470  
2761.000000	0.006484  
2760.000000	0.006437  
2759.000000	0.006354  
2758.000000	0.006267  
2757.000000	0.006188  
2756.000000	0.006123  
2755.000000	0.006077  
2754.000000	0.006044  
2753.000000	0.006008  
2752.000000	0.005955  
2751.000000	0.005897  
2750.000000	0.005857  
2749.000000	0.005846  
2748.000000	0.005844  
2747.000000	0.005810  
2746.000000	0.005724  
2745.000000	0.005618  
2744.000000	0.005556  
2743.000000	0.005581  
2742.000000	0.005683  
2741.000000	0.005817  
2740.000000	0.005937  
2739.000000	0.006017  
2738.000000	0.006050  
2737.000000	0.006067  
2736.000000	0.006126  
2735.000000	0.006263  
2734.000000	0.006447  
2733.000000	0.006595  
2732.000000	0.006646  
2731.000000	0.006601  
2730.000000	0.006515  
2729.000000	0.006451  
2728.000000	0.006449  
2727.000000	0.006502  
2726.000000	0.006554  
2725.000000	0.006540  
2724.000000	0.006444  
2723.000000	0.006312  
2722.000000	0.006194  
2721.000000	0.006111  
2720.000000	0.006070  
2719.000000	0.006078  
2718.000000	0.006130  
2717.000000	0.006185  
2716.000000	0.006196  
2715.000000	0.006146  
2714.000000	0.006036  
2713.000000	0.005863  
2712.000000	0.005643  
2711.000000	0.005446  
2710.000000	0.005354  
2709.000000	0.005377  
2708.000000	0.005435  
2707.000000	0.005449  
2706.000000	0.005413  
2705.000000	0.005362  
2704.000000	0.005303  
2703.000000	0.005215  
2702.000000	0.005095  
2701.000000	0.004976  
2700.000000	0.004882  
2699.000000	0.004815  
2698.000000	0.004773  
2697.000000	0.004767  
2696.000000	0.004808  
2695.000000	0.004888  
2694.000000	0.004986  
2693.000000	0.005070  
2692.000000	0.005101  
2691.000000	0.005073  
2690.000000	0.005038  
2689.000000	0.005081  
2688.000000	0.005230  
2687.000000	0.005419  
2686.000000	0.005542  
2685.000000	0.005561  
2684.000000	0.005520  
2683.000000	0.005476  
2682.000000	0.005449  
2681.000000	0.005426  
2680.000000	0.005398  
2679.000000	0.005375  
2678.000000	0.005376  
2677.000000	0.005428  
2676.000000	0.005548  
2675.000000	0.005712  
2674.000000	0.005851  
2673.000000	0.005895  
2672.000000	0.005832  
2671.000000	0.005708  
2670.000000	0.005587  
2669.000000	0.005513  
2668.000000	0.005514  
2667.000000	0.005585  
2666.000000	0.005686  
2665.000000	0.005756  
2664.000000	0.005764  
2663.000000	0.005710  
2662.000000	0.005600  
2661.000000	0.005437  
2660.000000	0.005248  
2659.000000	0.005090  
2658.000000	0.005000  
2657.000000	0.004965  
2656.000000	0.004958  
2655.000000	0.004971  
2654.000000	0.004996  
2653.000000	0.004993  
2652.000000	0.004941  
2651.000000	0.004885  
2650.000000	0.004902  
2649.000000	0.004993  
2648.000000	0.005067  
2647.000000	0.005043  
2646.000000	0.004935  
2645.000000	0.004821  
2644.000000	0.004765  
2643.000000	0.004794  
2642.000000	0.004900  
2641.000000	0.005036  
2640.000000	0.005122  
2639.000000	0.005092  
2638.000000	0.004935  
2637.000000	0.004696  
2636.000000	0.004454  
2635.000000	0.004301  
2634.000000	0.004311  
2633.000000	0.004472  
2632.000000	0.004674  
2631.000000	0.004783  
2630.000000	0.004748  
2629.000000	0.004614  
2628.000000	0.004479  
2627.000000	0.004432  
2626.000000	0.004504  
2625.000000	0.004633  
2624.000000	0.004698  
2623.000000	0.004632  
2622.000000	0.004491  
2621.000000	0.004375  
2620.000000	0.004302  
2619.000000	0.004217  
2618.000000	0.004101  
2617.000000	0.004018  
2616.000000	0.004021  
2615.000000	0.004089  
2614.000000	0.004172  
2613.000000	0.004263  
2612.000000	0.004377  
2611.000000	0.004501  
2610.000000	0.004606  
2609.000000	0.004679  
2608.000000	0.004723  
2607.000000	0.004726  
2606.000000	0.004678  
2605.000000	0.004594  
2604.000000	0.004506  
2603.000000	0.004429  
2602.000000	0.004371  
2601.000000	0.004364  
2600.000000	0.004428  
2599.000000	0.004520  
2598.000000	0.004544  
2597.000000	0.004453  
2596.000000	0.004308  
2595.000000	0.004206  
2594.000000	0.004153  
2593.000000	0.004052  
2592.000000	0.003829  
2591.000000	0.003542  
2590.000000	0.003337  
2589.000000	0.003296  
2588.000000	0.003370  
2587.000000	0.003467  
2586.000000	0.003563  
2585.000000	0.003684  
2584.000000	0.003820  
2583.000000	0.003897  
2582.000000	0.003865  
2581.000000	0.003756  
2580.000000	0.003651  
2579.000000	0.003609  
2578.000000	0.003651  
2577.000000	0.003760  
2576.000000	0.003869  
2575.000000	0.003888  
2574.000000	0.003773  
2573.000000	0.003588  
2572.000000	0.003441  
2571.000000	0.003373  
2570.000000	0.003329  
2569.000000	0.003257  
2568.000000	0.003172  
2567.000000	0.003131  
2566.000000	0.003152  
2565.000000	0.003201  
2564.000000	0.003236  
2563.000000	0.003236  
2562.000000	0.003202  
2561.000000	0.003144  
2560.000000	0.003079  
2559.000000	0.003021  
2558.000000	0.002983  
2557.000000	0.002996  
2556.000000	0.003088  
2555.000000	0.003234  
2554.000000	0.003334  
2553.000000	0.003315  
2552.000000	0.003244  
2551.000000	0.003277  
2550.000000	0.003487  
2549.000000	0.003767  
2548.000000	0.003933  
2547.000000	0.003883  
2546.000000	0.003631  
2545.000000	0.003255  
2544.000000	0.002876  
2543.000000	0.002633  
2542.000000	0.002586  
2541.000000	0.002654  
2540.000000	0.002706  
2539.000000	0.002727  
2538.000000	0.002812  
2537.000000	0.003004  
2536.000000	0.003196  
2535.000000	0.003249  
2534.000000	0.003146  
2533.000000	0.002979  
2532.000000	0.002836  
2531.000000	0.002736  
2530.000000	0.002653  
2529.000000	0.002564  
2528.000000	0.002496  
2527.000000	0.002519  
2526.000000	0.002688  
2525.000000	0.002960  
2524.000000	0.003229  
2523.000000	0.003434  
2522.000000	0.003584  
2521.000000	0.003664  
2520.000000	0.003586  
2519.000000	0.003333  
2518.000000	0.003059  
2517.000000	0.002976  
2516.000000	0.003132  
2515.000000	0.003376  
2514.000000	0.003525  
2513.000000	0.003511  
2512.000000	0.003370  
2511.000000	0.003180  
2510.000000	0.003008  
2509.000000	0.002884  
2508.000000	0.002796  
2507.000000	0.002737  
2506.000000	0.002742  
2505.000000	0.002826  
2504.000000	0.002914  
2503.000000	0.002896  
2502.000000	0.002772  
2501.000000	0.002681  
2500.000000	0.002732  
2499.000000	0.002861  
2498.000000	0.002884  
2497.000000	0.002675  
2496.000000	0.002277  
2495.000000	0.001874  
2494.000000	0.001682  
2493.000000	0.001810  
2492.000000	0.002191  
2491.000000	0.002631  
2490.000000	0.002949  
2489.000000	0.003082  
2488.000000	0.003079  
2487.000000	0.003016  
2486.000000	0.002919  
2485.000000	0.002765  
2484.000000	0.002541  
2483.000000	0.002326  
2482.000000	0.002276  
2481.000000	0.002488  
2480.000000	0.002878  
2479.000000	0.003226  
2478.000000	0.003363  
2477.000000	0.003273  
2476.000000	0.003055  
2475.000000	0.002812  
2474.000000	0.002610  
2473.000000	0.002483  
2472.000000	0.002427  
2471.000000	0.002403  
2470.000000	0.002369  
2469.000000	0.002329  
2468.000000	0.002339  
2467.000000	0.002466  
2466.000000	0.002708  
2465.000000	0.002947  
2464.000000	0.003015  
2463.000000	0.002849  
2462.000000	0.002570  
2461.000000	0.002373  
2460.000000	0.002366  
2459.000000	0.002534  
2458.000000	0.002810  
2457.000000	0.003097  
2456.000000	0.003236  
2455.000000	0.003095  
2454.000000	0.002732  
2453.000000	0.002385  
2452.000000	0.002229  
2451.000000	0.002202  
2450.000000	0.002141  
2449.000000	0.002019  
2448.000000	0.001967  
2447.000000	0.002083  
2446.000000	0.002320  
2445.000000	0.002548  
2444.000000	0.002686  
2443.000000	0.002743  
2442.000000	0.002777  
2441.000000	0.002830  
2440.000000	0.002880  
2439.000000	0.002866  
2438.000000	0.002770  
2437.000000	0.002646  
2436.000000	0.002550  
2435.000000	0.002458  
2434.000000	0.002312  
2433.000000	0.002130  
2432.000000	0.002015  
2431.000000	0.002040  
2430.000000	0.002178  
2429.000000	0.002350  
2428.000000	0.002505  
2427.000000	0.002634  
2426.000000	0.002732  
2425.000000	0.002780  
2424.000000	0.002764  
2423.000000	0.002679  
2422.000000	0.002531  
2421.000000	0.002349  
2420.000000	0.002196  
2419.000000	0.002132  
2418.000000	0.002165  
2417.000000	0.002249  
2416.000000	0.002333  
2415.000000	0.002422  
2414.000000	0.002564  
2413.000000	0.002771  
2412.000000	0.002977  
2411.000000	0.003090  
2410.000000	0.003087  
2409.000000	0.003027  
2408.000000	0.002980  
2407.000000	0.002944  
2406.000000	0.002862  
2405.000000	0.002693  
2404.000000	0.002465  
2403.000000	0.002251  
2402.000000	0.002110  
2401.000000	0.002043  
2400.000000	0.002028  
2399.000000	0.002075  
2398.000000	0.002223  
2397.000000	0.002466  
2396.000000	0.002704  
2395.000000	0.002831  
2394.000000	0.002848  
2393.000000	0.002860  
2392.000000	0.002955  
2391.000000	0.003113  
2390.000000	0.003255  
2389.000000	0.003359  
2388.000000	0.003509  
2387.000000	0.003847  
2386.000000	0.004460  
2385.000000	0.005259  
2384.000000	0.005951  
2383.000000	0.006175  
2382.000000	0.005735  
2381.000000	0.004731  
2380.000000	0.003488  
2379.000000	0.002347  
2378.000000	0.001510  
2377.000000	0.000998  
2376.000000	0.000762  
2375.000000	0.000790  
2374.000000	0.001120  
2373.000000	0.001778  
2372.000000	0.002721  
2371.000000	0.003834  
2370.000000	0.004925  
2369.000000	0.005700  
2368.000000	0.005910  
2367.000000	0.005661  
2366.000000	0.005409  
2365.000000	0.005444  
2364.000000	0.005571  
2363.000000	0.005545  
2362.000000	0.005391  
2361.000000	0.005490  
2360.000000	0.006328  
2359.000000	0.007669  
2358.000000	0.008662  
2357.000000	0.008566  
2356.000000	0.007623  
2355.000000	0.006783  
2354.000000	0.006468  
2353.000000	0.006544  
2352.000000	0.006579  
2351.000000	0.006402  
2350.000000	0.006132  
2349.000000	0.005744  
2348.000000	0.005352  
2347.000000	0.005043  
2346.000000	0.005358  
2345.000000	0.006553  
2344.000000	0.008041  
2343.000000	0.008935  
2342.000000	0.008366  
2341.000000	0.006685  
2340.000000	0.005016  
2339.000000	0.004144  
2338.000000	0.003745  
2337.000000	0.003256  
2336.000000	0.002637  
2335.000000	0.002323  
2334.000000	0.002393  
2333.000000	0.002812  
2332.000000	0.003494  
2331.000000	0.004480  
2330.000000	0.005665  
2329.000000	0.006645  
2328.000000	0.007390  
2327.000000	0.007794  
2326.000000	0.007927  
2325.000000	0.007795  
2324.000000	0.007452  
2323.000000	0.007041  
2322.000000	0.006469  
2321.000000	0.005977  
2320.000000	0.005872  
2319.000000	0.006407  
2318.000000	0.007209  
2317.000000	0.007688  
2316.000000	0.007513  
2315.000000	0.006943  
2314.000000	0.006546  
2313.000000	0.006705  
2312.000000	0.007373  
2311.000000	0.008173  
2310.000000	0.008782  
2309.000000	0.009081  
2308.000000	0.009107  
2307.000000	0.008879  
2306.000000	0.008417  
2305.000000	0.007861  
2304.000000	0.007416  
2303.000000	0.007212  
2302.000000	0.007171  
2301.000000	0.007124  
2300.000000	0.006993  
2299.000000	0.006853  
2298.000000	0.006837  
2297.000000	0.006945  
2296.000000	0.007066  
2295.000000	0.007031  
2294.000000	0.006802  
2293.000000	0.006439  
2292.000000	0.006032  
2291.000000	0.005605  
2290.000000	0.005177  
2289.000000	0.004787  
2288.000000	0.004445  
2287.000000	0.004063  
2286.000000	0.003562  
2285.000000	0.003027  
2284.000000	0.002668  
2283.000000	0.002612  
2282.000000	0.002766  
2281.000000	0.002955  
2280.000000	0.003111  
2279.000000	0.003288  
2278.000000	0.003488  
2277.000000	0.003603  
2276.000000	0.003571  
2275.000000	0.003520  
2274.000000	0.003677  
2273.000000	0.004098  
2272.000000	0.004566  
2271.000000	0.004789  
2270.000000	0.004699  
2269.000000	0.004456  
2268.000000	0.004203  
2267.000000	0.003898  
2266.000000	0.003477  
2265.000000	0.003043  
2264.000000	0.002806  
2263.000000	0.002840  
2262.000000	0.003046  
2261.000000	0.003306  
2260.000000	0.003549  
2259.000000	0.003700  
2258.000000	0.003683  
2257.000000	0.003575  
2256.000000	0.003568  
2255.000000	0.003748  
2254.000000	0.003967  
2253.000000	0.004033  
2252.000000	0.003931  
2251.000000	0.003766  
2250.000000	0.003575  
2249.000000	0.003297  
2248.000000	0.002898  
2247.000000	0.002428  
2246.000000	0.001987  
2245.000000	0.001692  
2244.000000	0.001653  
2243.000000	0.001874  
2242.000000	0.002208  
2241.000000	0.002456  
2240.000000	0.002549  
2239.000000	0.002565  
2238.000000	0.002575  
2237.000000	0.002547  
2236.000000	0.002421  
2235.000000	0.002236  
2234.000000	0.002136  
2233.000000	0.002243  
2232.000000	0.002516  
2231.000000	0.002749  
2230.000000	0.002730  
2229.000000	0.002447  
2228.000000	0.002109  
2227.000000	0.001941  
2226.000000	0.001979  
2225.000000	0.002055  
2224.000000	0.001945  
2223.000000	0.001548  
2222.000000	0.001012  
2221.000000	0.000716  
2220.000000	0.000987  
2219.000000	0.001748  
2218.000000	0.002523  
2217.000000	0.002904  
2216.000000	0.002947  
2215.000000	0.002972  
2214.000000	0.003067  
2213.000000	0.003021  
2212.000000	0.002766  
2211.000000	0.002579  
2210.000000	0.002705  
2209.000000	0.002952  
2208.000000	0.002910  
2207.000000	0.002509  
2206.000000	0.002135  
2205.000000	0.002170  
2204.000000	0.002589  
2203.000000	0.003098  
2202.000000	0.003511  
2201.000000	0.003855  
2200.000000	0.004175  
2199.000000	0.004417  
2198.000000	0.004500  
2197.000000	0.004397  
2196.000000	0.004111  
2195.000000	0.003648  
2194.000000	0.003105  
2193.000000	0.002689  
2192.000000	0.002528  
2191.000000	0.002483  
2190.000000	0.002292  
2189.000000	0.001915  
2188.000000	0.001613  
2187.000000	0.001637  
2186.000000	0.001917  
2185.000000	0.002154  
2184.000000	0.002166  
2183.000000	0.002052  
2182.000000	0.002050  
2181.000000	0.002300  
2180.000000	0.002742  
2179.000000	0.003167  
2178.000000	0.003385  
2177.000000	0.003375  
2176.000000	0.003267  
2175.000000	0.003120  
2174.000000	0.002813  
2173.000000	0.002267  
2172.000000	0.001709  
2171.000000	0.001518  
2170.000000	0.001775  
2169.000000	0.002109  
2168.000000	0.002106  
2167.000000	0.001824  
2166.000000	0.001743  
2165.000000	0.002187  
2164.000000	0.002900  
2163.000000	0.003253  
2162.000000	0.002877  
2161.000000	0.002018  
2160.000000	0.001294  
2159.000000	0.001090  
2158.000000	0.001293  
2157.000000	0.001615  
2156.000000	0.001951  
2155.000000	0.002310  
2154.000000	0.002619  
2153.000000	0.002800  
2152.000000	0.002925  
2151.000000	0.003105  
2150.000000	0.003234  
2149.000000	0.003065  
2148.000000	0.002586  
2147.000000	0.002157  
2146.000000	0.002139  
2145.000000	0.002491  
2144.000000	0.002860  
2143.000000	0.002966  
2142.000000	0.002770  
2141.000000	0.002353  
2140.000000	0.001825  
2139.000000	0.001380  
2138.000000	0.001270  
2137.000000	0.001609  
2136.000000	0.002204  
2135.000000	0.002681  
2134.000000	0.002798  
2133.000000	0.002630  
2132.000000	0.002456  
2131.000000	0.002490  
2130.000000	0.002709  
2129.000000	0.002938  
2128.000000	0.003049  
2127.000000	0.003045  
2126.000000	0.002954  
2125.000000	0.002748  
2124.000000	0.002436  
2123.000000	0.002161  
2122.000000	0.002117  
2121.000000	0.002327  
2120.000000	0.002589  
2119.000000	0.002675  
2118.000000	0.002549  
2117.000000	0.002393  
2116.000000	0.002431  
2115.000000	0.002721  
2114.000000	0.003065  
2113.000000	0.003149  
2112.000000	0.002844  
2111.000000	0.002385  
2110.000000	0.002154  
2109.000000	0.002270  
2108.000000	0.002478  
2107.000000	0.002487  
2106.000000	0.002300  
2105.000000	0.002126  
2104.000000	0.002059  
2103.000000	0.002013  
2102.000000	0.001920  
2101.000000	0.001821  
2100.000000	0.001739  
2099.000000	0.001604  
2098.000000	0.001386  
2097.000000	0.001209  
2096.000000	0.001220  
2095.000000	0.001401  
2094.000000	0.001594  
2093.000000	0.001701  
2092.000000	0.001759  
2091.000000	0.001838  
2090.000000	0.001935  
2089.000000	0.002009  
2088.000000	0.002089  
2087.000000	0.002276  
2086.000000	0.002604  
2085.000000	0.002932  
2084.000000	0.003019  
2083.000000	0.002766  
2082.000000	0.002359  
2081.000000	0.002136  
2080.000000	0.002271  
2079.000000	0.002611  
2078.000000	0.002826  
2077.000000	0.002720  
2076.000000	0.002401  
2075.000000	0.002176  
2074.000000	0.002257  
2073.000000	0.002565  
2072.000000	0.002803  
2071.000000	0.002770  
2070.000000	0.002549  
2069.000000	0.002354  
2068.000000	0.002249  
2067.000000	0.002122  
2066.000000	0.001925  
2065.000000	0.001795  
2064.000000	0.001879  
2063.000000	0.002147  
2062.000000	0.002452  
2061.000000	0.002671  
2060.000000	0.002725  
2059.000000	0.002572  
2058.000000	0.002303  
2057.000000	0.002153  
2056.000000	0.002261  
2055.000000	0.002475  
2054.000000	0.002509  
2053.000000	0.002285  
2052.000000	0.001968  
2051.000000	0.001724  
2050.000000	0.001627  
2049.000000	0.001792  
2048.000000	0.002328  
2047.000000	0.003029  
2046.000000	0.003360  
2045.000000	0.002991  
2044.000000	0.002233  
2043.000000	0.001730  
2042.000000	0.001760  
2041.000000	0.002044  
2040.000000	0.002238  
2039.000000	0.002345  
2038.000000	0.002540  
2037.000000	0.002799  
2036.000000	0.002902  
2035.000000	0.002758  
2034.000000	0.002533  
2033.000000	0.002431  
2032.000000	0.002452  
2031.000000	0.002413  
2030.000000	0.002153  
2029.000000	0.001672  
2028.000000	0.001135  
2027.000000	0.000762  
2026.000000	0.000671  
2025.000000	0.000782  
2024.000000	0.000905  
2023.000000	0.000998  
2022.000000	0.001240  
2021.000000	0.001766  
2020.000000	0.002388  
2019.000000	0.002714  
2018.000000	0.002565  
2017.000000	0.002141  
2016.000000	0.001756  
2015.000000	0.001540  
2014.000000	0.001530  
2013.000000	0.001810  
2012.000000	0.002306  
2011.000000	0.002566  
2010.000000	0.002093  
2009.000000	0.000970  
2008.000000	-0.000085 
2007.000000	-0.000452 
2006.000000	-0.000186 
2005.000000	0.000261  
2004.000000	0.000671  
2003.000000	0.001189  
2002.000000	0.001963  
2001.000000	0.002877  
2000.000000	0.003615  
1999.000000	0.003859  
1998.000000	0.003469  
1997.000000	0.002620  
1996.000000	0.001757  
1995.000000	0.001278  
1994.000000	0.001263  
1993.000000	0.001510  
1992.000000	0.001791  
1991.000000	0.001996  
1990.000000	0.002097  
1989.000000	0.002126  
1988.000000	0.002212  
1987.000000	0.002495  
1986.000000	0.002937  
1985.000000	0.003354  
1984.000000	0.003639  
1983.000000	0.003815  
1982.000000	0.003838  
1981.000000	0.003544  
1980.000000	0.002921  
1979.000000	0.002255  
1978.000000	0.001840  
1977.000000	0.001606  
1976.000000	0.001290  
1975.000000	0.000884  
1974.000000	0.000637  
1973.000000	0.000683  
1972.000000	0.000907  
1971.000000	0.001192  
1970.000000	0.001531  
1969.000000	0.001845  
1968.000000	0.001937  
1967.000000	0.001757  
1966.000000	0.001551  
1965.000000	0.001583  
1964.000000	0.001829  
1963.000000	0.002072  
1962.000000	0.002161  
1961.000000	0.002105  
1960.000000	0.002014  
1959.000000	0.002025  
1958.000000	0.002210  
1957.000000	0.002439  
1956.000000	0.002439  
1955.000000	0.002081  
1954.000000	0.001574  
1953.000000	0.001284  
1952.000000	0.001392  
1951.000000	0.001816  
1950.000000	0.002353  
1949.000000	0.002802  
1948.000000	0.003002  
1947.000000	0.002918  
1946.000000	0.002697  
1945.000000	0.002553  
1944.000000	0.002551  
1943.000000	0.002581  
1942.000000	0.002536  
1941.000000	0.002437  
1940.000000	0.002332  
1939.000000	0.002227  
1938.000000	0.002170  
1937.000000	0.002260  
1936.000000	0.002521  
1935.000000	0.002841  
1934.000000	0.003090  
1933.000000	0.003234  
1932.000000	0.003305  
1931.000000	0.003306  
1930.000000	0.003208  
1929.000000	0.003014  
1928.000000	0.002767  
1927.000000	0.002499  
1926.000000	0.002231  
1925.000000	0.002019  
1924.000000	0.001947  
1923.000000	0.002046  
1922.000000	0.002276  
1921.000000	0.002563  
1920.000000	0.002828  
1919.000000	0.002976  
1918.000000	0.002958  
1917.000000	0.002877  
1916.000000	0.002873  
1915.000000	0.002900  
1914.000000	0.002769  
1913.000000	0.002402  
1912.000000	0.001976  
1911.000000	0.001753  
1910.000000	0.001811  
1909.000000	0.002017  
1908.000000	0.002217  
1907.000000	0.002350  
1906.000000	0.002389  
1905.000000	0.002328  
1904.000000	0.002228  
1903.000000	0.002202  
1902.000000	0.002301  
1901.000000	0.002470  
1900.000000	0.002610  
1899.000000	0.002652  
1898.000000	0.002583  
1897.000000	0.002439  
1896.000000	0.002311  
1895.000000	0.002300  
1894.000000	0.002425  
1893.000000	0.002611  
1892.000000	0.002765  
1891.000000	0.002846  
1890.000000	0.002865  
1889.000000	0.002859  
1888.000000	0.002855  
1887.000000	0.002839  
1886.000000	0.002790  
1885.000000	0.002730  
1884.000000	0.002688  
1883.000000	0.002643  
1882.000000	0.002554  
1881.000000	0.002446  
1880.000000	0.002400  
1879.000000	0.002423  
1878.000000	0.002426  
1877.000000	0.002374  
1876.000000	0.002382  
1875.000000	0.002571  
1874.000000	0.002877  
1873.000000	0.003106  
1872.000000	0.003140  
1871.000000	0.003006  
1870.000000	0.002762  
1869.000000	0.002455  
1868.000000	0.002235  
1867.000000	0.002258  
1866.000000	0.002477  
1865.000000	0.002687  
1864.000000	0.002748  
1863.000000	0.002682  
1862.000000	0.002588  
1861.000000	0.002510  
1860.000000	0.002449  
1859.000000	0.002433  
1858.000000	0.002516  
1857.000000	0.002692  
1856.000000	0.002857  
1855.000000	0.002876  
1854.000000	0.002706  
1853.000000	0.002460  
1852.000000	0.002332  
1851.000000	0.002405  
1850.000000	0.002554  
1849.000000	0.002572  
1848.000000	0.002404  
1847.000000	0.002229  
1846.000000	0.002262  
1845.000000	0.002523  
1844.000000	0.002797  
1843.000000	0.002878  
1842.000000	0.002760  
1841.000000	0.002566  
1840.000000	0.002402  
1839.000000	0.002328  
1838.000000	0.002363  
1837.000000	0.002471  
1836.000000	0.002576  
1835.000000	0.002618  
1834.000000	0.002588  
1833.000000	0.002497  
1832.000000	0.002351  
1831.000000	0.002195  
1830.000000	0.002137  
1829.000000	0.002228  
1828.000000	0.002376  
1827.000000	0.002471  
1826.000000	0.002504  
1825.000000	0.002526  
1824.000000	0.002594  
1823.000000	0.002742  
1822.000000	0.002942  
1821.000000	0.003085  
1820.000000	0.003047  
1819.000000	0.002836  
1818.000000	0.002622  
1817.000000	0.002557  
1816.000000	0.002625  
1815.000000	0.002703  
1814.000000	0.002713  
1813.000000	0.002668  
1812.000000	0.002623  
1811.000000	0.002640  
1810.000000	0.002738  
1809.000000	0.002859  
1808.000000	0.002943  
1807.000000	0.002981  
1806.000000	0.002987  
1805.000000	0.002970  
1804.000000	0.002942  
1803.000000	0.002934  
1802.000000	0.002979  
1801.000000	0.003076  
1800.000000	0.003210  
1799.000000	0.003361  
1798.000000	0.003478  
1797.000000	0.003512  
1796.000000	0.003489  
1795.000000	0.003467  
1794.000000	0.003464  
1793.000000	0.003426  
1792.000000	0.003314  
1791.000000	0.003199  
1790.000000	0.003155  
1789.000000	0.003170  
1788.000000	0.003206  
1787.000000	0.003251  
1786.000000	0.003309  
1785.000000	0.003371  
1784.000000	0.003397  
1783.000000	0.003352  
1782.000000	0.003271  
1781.000000	0.003257  
1780.000000	0.003395  
1779.000000	0.003640  
1778.000000	0.003851  
1777.000000	0.003935  
1776.000000	0.003903  
1775.000000	0.003815  
1774.000000	0.003733  
1773.000000	0.003687  
1772.000000	0.003669  
1771.000000	0.003664  
1770.000000	0.003708  
1769.000000	0.003853  
1768.000000	0.004075  
1767.000000	0.004273  
1766.000000	0.004389  
1765.000000	0.004475  
1764.000000	0.004618  
1763.000000	0.004858  
1762.000000	0.005189  
1761.000000	0.005577  
1760.000000	0.005952  
1759.000000	0.006259  
1758.000000	0.006545  
1757.000000	0.006941  
1756.000000	0.007503  
1755.000000	0.008170  
1754.000000	0.008958  
1753.000000	0.010076  
1752.000000	0.011743  
1751.000000	0.013937  
1750.000000	0.016565  
1749.000000	0.019773  
1748.000000	0.023660  
1747.000000	0.028005  
1746.000000	0.032554  
1745.000000	0.037160  
1744.000000	0.041440  
1743.000000	0.044712  
1742.000000	0.046486  
1741.000000	0.046581  
1740.000000	0.044920  
1739.000000	0.041920  
1738.000000	0.038558  
1737.000000	0.035344  
1736.000000	0.031936  
1735.000000	0.027641  
1734.000000	0.022859  
1733.000000	0.019062  
1732.000000	0.016554  
1731.000000	0.014670  
1730.000000	0.013089  
1729.000000	0.011832  
1728.000000	0.010912  
1727.000000	0.010219  
1726.000000	0.009633  
1725.000000	0.009080  
1724.000000	0.008513  
1723.000000	0.007946  
1722.000000	0.007437  
1721.000000	0.007016  
1720.000000	0.006662  
1719.000000	0.006370  
1718.000000	0.006149  
1717.000000	0.005913  
1716.000000	0.005651  
1715.000000	0.005494  
1714.000000	0.005465  
1713.000000	0.005457  
1712.000000	0.005363  
1711.000000	0.005176  
1710.000000	0.004980  
1709.000000	0.004834  
1708.000000	0.004744  
1707.000000	0.004711  
1706.000000	0.004736  
1705.000000	0.004774  
1704.000000	0.004845  
1703.000000	0.005035  
1702.000000	0.005379  
1701.000000	0.005633  
1700.000000	0.005541  
1699.000000	0.005307  
1698.000000	0.005159  
1697.000000	0.005046  
1696.000000	0.004907  
1695.000000	0.004835  
1694.000000	0.004802  
1693.000000	0.004692  
1692.000000	0.004523  
1691.000000	0.004381  
1690.000000	0.004337  
1689.000000	0.004365  
1688.000000	0.004402  
1687.000000	0.004420  
1686.000000	0.004424  
1685.000000	0.004360  
1684.000000	0.004252  
1683.000000	0.004268  
1682.000000	0.004379  
1681.000000	0.004471  
1680.000000	0.004493  
1679.000000	0.004458  
1678.000000	0.004383  
1677.000000	0.004288  
1676.000000	0.004200  
1675.000000	0.004206  
1674.000000	0.004356  
1673.000000	0.004569  
1672.000000	0.004756  
1671.000000	0.004885  
1670.000000	0.004965  
1669.000000	0.005038  
1668.000000	0.005103  
1667.000000	0.005125  
1666.000000	0.005146  
1665.000000	0.005232  
1664.000000	0.005380  
1663.000000	0.005526  
1662.000000	0.005632  
1661.000000	0.005729  
1660.000000	0.005840  
1659.000000	0.005940  
1658.000000	0.005953  
1657.000000	0.005887  
1656.000000	0.005787  
1655.000000	0.005755  
1654.000000	0.005793  
1653.000000	0.005998  
1652.000000	0.006349  
1651.000000	0.006479  
1650.000000	0.006468  
1649.000000	0.006539  
1648.000000	0.006714  
1647.000000	0.006793  
1646.000000	0.006699  
1645.000000	0.006541  
1644.000000	0.006378  
1643.000000	0.006250  
1642.000000	0.006224  
1641.000000	0.006259  
1640.000000	0.006285  
1639.000000	0.006275  
1638.000000	0.006285  
1637.000000	0.006353  
1636.000000	0.006409  
1635.000000	0.006380  
1634.000000	0.006294  
1633.000000	0.006207  
1632.000000	0.006160  
1631.000000	0.006151  
1630.000000	0.006124  
1629.000000	0.006076  
1628.000000	0.006044  
1627.000000	0.006051  
1626.000000	0.006080  
1625.000000	0.006108  
1624.000000	0.006100  
1623.000000	0.006020  
1622.000000	0.005908  
1621.000000	0.005856  
1620.000000	0.005898  
1619.000000	0.006003  
1618.000000	0.006084  
1617.000000	0.006095  
1616.000000	0.006097  
1615.000000	0.006104  
1614.000000	0.006072  
1613.000000	0.006027  
1612.000000	0.006009  
1611.000000	0.006028  
1610.000000	0.006069  
1609.000000	0.006122  
1608.000000	0.006162  
1607.000000	0.006139  
1606.000000	0.006043  
1605.000000	0.005931  
1604.000000	0.005844  
1603.000000	0.005766  
1602.000000	0.005669  
1601.000000	0.005567  
1600.000000	0.005473  
1599.000000	0.005366  
1598.000000	0.005247  
1597.000000	0.005160  
1596.000000	0.005150  
1595.000000	0.005204  
1594.000000	0.005275  
1593.000000	0.005357  
1592.000000	0.005474  
1591.000000	0.005617  
1590.000000	0.005740  
1589.000000	0.005811  
1588.000000	0.005838  
1587.000000	0.005832  
1586.000000	0.005813  
1585.000000	0.005814  
1584.000000	0.005856  
1583.000000	0.005929  
1582.000000	0.006006  
1581.000000	0.006080  
1580.000000	0.006176  
1579.000000	0.006312  
1578.000000	0.006464  
1577.000000	0.006545  
1576.000000	0.006489  
1575.000000	0.006356  
1574.000000	0.006274  
1573.000000	0.006328  
1572.000000	0.006489  
1571.000000	0.006625  
1570.000000	0.006615  
1569.000000	0.006537  
1568.000000	0.006504  
1567.000000	0.006474  
1566.000000	0.006364  
1565.000000	0.006189  
1564.000000	0.005959  
1563.000000	0.005731  
1562.000000	0.005539  
1561.000000	0.005474  
1560.000000	0.005590  
1559.000000	0.005647  
1558.000000	0.005588  
1557.000000	0.005695  
1556.000000	0.005929  
1555.000000	0.006093  
1554.000000	0.006201  
1553.000000	0.006152  
1552.000000	0.005973  
1551.000000	0.005687  
1550.000000	0.005419  
1549.000000	0.005279  
1548.000000	0.005275  
1547.000000	0.005326  
1546.000000	0.005393  
1545.000000	0.005437  
1544.000000	0.005419  
1543.000000	0.005384  
1542.000000	0.005445  
1541.000000	0.005514  
1540.000000	0.005401  
1539.000000	0.005280  
1538.000000	0.005316  
1537.000000	0.005417  
1536.000000	0.005506  
1535.000000	0.005550  
1534.000000	0.005486  
1533.000000	0.005344  
1532.000000	0.005230  
1531.000000	0.005183  
1530.000000	0.005145  
1529.000000	0.005098  
1528.000000	0.005087  
1527.000000	0.005192  
1526.000000	0.005431  
1525.000000	0.005688  
1524.000000	0.005827  
1523.000000	0.005846  
1522.000000	0.005846  
1521.000000	0.005900  
1520.000000	0.005981  
1519.000000	0.006014  
1518.000000	0.006014  
1517.000000	0.006028  
1516.000000	0.006078  
1515.000000	0.006206  
1514.000000	0.006432  
1513.000000	0.006707  
1512.000000	0.006891  
1511.000000	0.006917  
1510.000000	0.006896  
1509.000000	0.007037  
1508.000000	0.007389  
1507.000000	0.007796  
1506.000000	0.008299  
1505.000000	0.008776  
1504.000000	0.008925  
1503.000000	0.008813  
1502.000000	0.008683  
1501.000000	0.008610  
1500.000000	0.008585  
1499.000000	0.008646  
1498.000000	0.009009  
1497.000000	0.009675  
1496.000000	0.010240  
1495.000000	0.010481  
1494.000000	0.010620  
1493.000000	0.010837  
1492.000000	0.011041  
1491.000000	0.011087  
1490.000000	0.011084  
1489.000000	0.011228  
1488.000000	0.011518  
1487.000000	0.011884  
1486.000000	0.012327  
1485.000000	0.012862  
1484.000000	0.013443  
1483.000000	0.014088  
1482.000000	0.014936  
1481.000000	0.016016  
1480.000000	0.017157  
1479.000000	0.018292  
1478.000000	0.019646  
1477.000000	0.021421  
1476.000000	0.023537  
1475.000000	0.026035  
1474.000000	0.029619  
1473.000000	0.035068  
1472.000000	0.041867  
1471.000000	0.048725  
1470.000000	0.055137  
1469.000000	0.061081  
1468.000000	0.066335  
1467.000000	0.070725  
1466.000000	0.074393  
1465.000000	0.077423  
1464.000000	0.079598  
1463.000000	0.080944  
1462.000000	0.081848  
1461.000000	0.082592  
1460.000000	0.083260  
1459.000000	0.083954  
1458.000000	0.084722  
1457.000000	0.084838  
1456.000000	0.083539  
1455.000000	0.081316  
1454.000000	0.078840  
1453.000000	0.076161  
1452.000000	0.073273  
1451.000000	0.070421  
1450.000000	0.067837  
1449.000000	0.065330  
1448.000000	0.062605  
1447.000000	0.059754  
1446.000000	0.056982  
1445.000000	0.054180  
1444.000000	0.051161  
1443.000000	0.047977  
1442.000000	0.044853  
1441.000000	0.041984  
1440.000000	0.039429  
1439.000000	0.037086  
1438.000000	0.034715  
1437.000000	0.032188  
1436.000000	0.029844  
1435.000000	0.028042  
1434.000000	0.026577  
1433.000000	0.025063  
1432.000000	0.023383  
1431.000000	0.021670  
1430.000000	0.020101  
1429.000000	0.018770  
1428.000000	0.017732  
1427.000000	0.016980  
1426.000000	0.016405  
1425.000000	0.015903  
1424.000000	0.015471  
1423.000000	0.015151  
1422.000000	0.014912  
1421.000000	0.014655  
1420.000000	0.014317  
1419.000000	0.013931  
1418.000000	0.013575  
1417.000000	0.013260  
1416.000000	0.012970  
1415.000000	0.012722  
1414.000000	0.012518  
1413.000000	0.012324  
1412.000000	0.012109  
1411.000000	0.011868  
1410.000000	0.011639  
1409.000000	0.011481  
1408.000000	0.011435  
1407.000000	0.011497  
1406.000000	0.011617  
1405.000000	0.011756  
1404.000000	0.011933  
1403.000000	0.012164  
1402.000000	0.012402  
1401.000000	0.012606  
1400.000000	0.012802  
1399.000000	0.013031  
1398.000000	0.013285  
1397.000000	0.013546  
1396.000000	0.013827  
1395.000000	0.014153  
1394.000000	0.014546  
1393.000000	0.015018  
1392.000000	0.015555  
1391.000000	0.016166  
1390.000000	0.016916  
1389.000000	0.017973  
1388.000000	0.019559  
1387.000000	0.021684  
1386.000000	0.024077  
1385.000000	0.026533  
1384.000000	0.029131  
1383.000000	0.032071  
1382.000000	0.035452  
1381.000000	0.039185  
1380.000000	0.042920  
1379.000000	0.045982  
1378.000000	0.047650  
1377.000000	0.047606  
1376.000000	0.045965  
1375.000000	0.043042  
1374.000000	0.039417  
1373.000000	0.035897  
1372.000000	0.033021  
1371.000000	0.030870  
1370.000000	0.029381  
1369.000000	0.028534  
1368.000000	0.028187  
1367.000000	0.027975  
1366.000000	0.027489  
1365.000000	0.026504  
1364.000000	0.025041  
1363.000000	0.023355  
1362.000000	0.021821  
1361.000000	0.020699  
1360.000000	0.019991  
1359.000000	0.019542  
1358.000000	0.019210  
1357.000000	0.018940  
1356.000000	0.018751  
1355.000000	0.018665  
1354.000000	0.018650  
1353.000000	0.018632  
1352.000000	0.018569  
1351.000000	0.018467  
1350.000000	0.018331  
1349.000000	0.018177  
1348.000000	0.018013  
1347.000000	0.017815  
1346.000000	0.017555  
1345.000000	0.017267  
1344.000000	0.017036  
1343.000000	0.016894  
1342.000000	0.016768  
1341.000000	0.016569  
1340.000000	0.016275  
1339.000000	0.015931  
1338.000000	0.015583  
1337.000000	0.015248  
1336.000000	0.014929  
1335.000000	0.014633  
1334.000000	0.014352  
1333.000000	0.014082  
1332.000000	0.013861  
1331.000000	0.013730  
1330.000000	0.013673  
1329.000000	0.013638  
1328.000000	0.013608  
1327.000000	0.013598  
1326.000000	0.013601  
1325.000000	0.013601  
1324.000000	0.013600  
1323.000000	0.013614  
1322.000000	0.013650  
1321.000000	0.013703  
1320.000000	0.013767  
1319.000000	0.013840  
1318.000000	0.013921  
1317.000000	0.014010  
1316.000000	0.014117  
1315.000000	0.014251  
1314.000000	0.014410  
1313.000000	0.014580  
1312.000000	0.014747  
1311.000000	0.014901  
1310.000000	0.015044  
1309.000000	0.015192  
1308.000000	0.015365  
1307.000000	0.015557  
1306.000000	0.015726  
1305.000000	0.015823  
1304.000000	0.015822  
1303.000000	0.015731  
1302.000000	0.015587  
1301.000000	0.015447  
1300.000000	0.015351  
1299.000000	0.015285  
1298.000000	0.015201  
1297.000000	0.015072  
1296.000000	0.014912  
1295.000000	0.014743  
1294.000000	0.014556  
1293.000000	0.014334  
1292.000000	0.014094  
1291.000000	0.013894  
1290.000000	0.013783  
1289.000000	0.013773  
1288.000000	0.013836  
1287.000000	0.013941  
1286.000000	0.014068  
1285.000000	0.014214  
1284.000000	0.014376  
1283.000000	0.014542  
1282.000000	0.014707  
1281.000000	0.014879  
1280.000000	0.015055  
1279.000000	0.015204  
1278.000000	0.015294  
1277.000000	0.015348  
1276.000000	0.015433  
1275.000000	0.015589  
1274.000000	0.015791  
1273.000000	0.015986  
1272.000000	0.016136  
1271.000000	0.016230  
1270.000000	0.016269  
1269.000000	0.016281  
1268.000000	0.016301  
1267.000000	0.016343  
1266.000000	0.016376  
1265.000000	0.016365  
1264.000000	0.016320  
1263.000000	0.016289  
1262.000000	0.016322  
1261.000000	0.016425  
1260.000000	0.016564  
1259.000000	0.016678  
1258.000000	0.016731  
1257.000000	0.016729  
1256.000000	0.016703  
1255.000000	0.016682  
1254.000000	0.016706  
1253.000000	0.016834  
1252.000000	0.017099  
1251.000000	0.017442  
1250.000000	0.017746  
1249.000000	0.017956  
1248.000000	0.018135  
1247.000000	0.018377  
1246.000000	0.018681  
1245.000000	0.018963  
1244.000000	0.019140  
1243.000000	0.019185  
1242.000000	0.019119  
1241.000000	0.018978  
1240.000000	0.018802  
1239.000000	0.018612  
1238.000000	0.018399  
1237.000000	0.018147  
1236.000000	0.017870  
1235.000000	0.017602  
1234.000000	0.017348  
1233.000000	0.017076  
1232.000000	0.016773  
1231.000000	0.016465  
1230.000000	0.016186  
1229.000000	0.015945  
1228.000000	0.015735  
1227.000000	0.015559  
1226.000000	0.015423  
1225.000000	0.015312  
1224.000000	0.015212  
1223.000000	0.015124  
1222.000000	0.015048  
1221.000000	0.014962  
1220.000000	0.014854  
1219.000000	0.014757  
1218.000000	0.014737  
1217.000000	0.014828  
1216.000000	0.014998  
1215.000000	0.015174  
1214.000000	0.015292  
1213.000000	0.015327  
1212.000000	0.015316  
1211.000000	0.015339  
1210.000000	0.015460  
1209.000000	0.015654  
1208.000000	0.015825  
1207.000000	0.015919  
1206.000000	0.015989  
1205.000000	0.016119  
1204.000000	0.016318  
1203.000000	0.016526  
1202.000000	0.016721  
1201.000000	0.016947  
1200.000000	0.017241  
1199.000000	0.017587  
1198.000000	0.017957  
1197.000000	0.018367  
1196.000000	0.018842  
1195.000000	0.019376  
1194.000000	0.019947  
1193.000000	0.020541  
1192.000000	0.021136  
1191.000000	0.021681  
1190.000000	0.022146  
1189.000000	0.022566  
1188.000000	0.023014  
1187.000000	0.023527  
1186.000000	0.024097  
1185.000000	0.024710  
1184.000000	0.025356  
1183.000000	0.026010  
1182.000000	0.026637  
1181.000000	0.027220  
1180.000000	0.027753  
1179.000000	0.028224  
1178.000000	0.028620  
1177.000000	0.028955  
1176.000000	0.029243  
1175.000000	0.029476  
1174.000000	0.029626  
1173.000000	0.029682  
1172.000000	0.029647  
1171.000000	0.029516  
1170.000000	0.029282  
1169.000000	0.028965  
1168.000000	0.028596  
1167.000000	0.028182  
1166.000000	0.027722  
1165.000000	0.027224  
1164.000000	0.026685  
1163.000000	0.026071  
1162.000000	0.025365  
1161.000000	0.024634  
1160.000000	0.023979  
1159.000000	0.023433  
1158.000000	0.022929  
1157.000000	0.022397  
1156.000000	0.021841  
1155.000000	0.021294  
1154.000000	0.020756  
1153.000000	0.020211  
1152.000000	0.019671  
1151.000000	0.019175  
1150.000000	0.018749  
1149.000000	0.018401  
1148.000000	0.018120  
1147.000000	0.017870  
1146.000000	0.017603  
1145.000000	0.017293  
1144.000000	0.016952  
1143.000000	0.016588  
1142.000000	0.016190  
1141.000000	0.015765  
1140.000000	0.015357  
1139.000000	0.015006  
1138.000000	0.014718  
1137.000000	0.014490  
1136.000000	0.014321  
1135.000000	0.014165  
1134.000000	0.013936  
1133.000000	0.013613  
1132.000000	0.013295  
1131.000000	0.013104  
1130.000000	0.013067  
1129.000000	0.013136  
1128.000000	0.013276  
1127.000000	0.013473  
1126.000000	0.013686  
1125.000000	0.013865  
1124.000000	0.014026  
1123.000000	0.014218  
1122.000000	0.014438  
1121.000000	0.014623  
1120.000000	0.014734  
1119.000000	0.014782  
1118.000000	0.014781  
1117.000000	0.014723  
1116.000000	0.014621  
1115.000000	0.014504  
1114.000000	0.014364  
1113.000000	0.014159  
1112.000000	0.013883  
1111.000000	0.013590  
1110.000000	0.013324  
1109.000000	0.013087  
1108.000000	0.012900  
1107.000000	0.012828  
1106.000000	0.012909  
1105.000000	0.013069  
1104.000000	0.013182  
1103.000000	0.013194  
1102.000000	0.013171  
1101.000000	0.013219  
1100.000000	0.013373  
1099.000000	0.013577  
1098.000000	0.013735  
1097.000000	0.013801  
1096.000000	0.013817  
1095.000000	0.013842  
1094.000000	0.013876  
1093.000000	0.013872  
1092.000000	0.013816  
1091.000000	0.013737  
1090.000000	0.013647  
1089.000000	0.013506  
1088.000000	0.013281  
1087.000000	0.013018  
1086.000000	0.012811  
1085.000000	0.012719  
1084.000000	0.012721  
1083.000000	0.012739  
1082.000000	0.012706  
1081.000000	0.012630  
1080.000000	0.012596  
1079.000000	0.012690  
1078.000000	0.012911  
1077.000000	0.013175  
1076.000000	0.013411  
1075.000000	0.013617  
1074.000000	0.013825  
1073.000000	0.014036  
1072.000000	0.014221  
1071.000000	0.014373  
1070.000000	0.014524  
1069.000000	0.014705  
1068.000000	0.014904  
1067.000000	0.015064  
1066.000000	0.015138  
1065.000000	0.015148  
1064.000000	0.015151  
1063.000000	0.015160  
1062.000000	0.015093  
1061.000000	0.014859  
1060.000000	0.014475  
1059.000000	0.014063  
1058.000000	0.013738  
1057.000000	0.013539  
1056.000000	0.013470  
1055.000000	0.013526  
1054.000000	0.013625  
1053.000000	0.013584  
1052.000000	0.013254  
1051.000000	0.012726  
1050.000000	0.012305  
1049.000000	0.012219  
1048.000000	0.012417  
1047.000000	0.012668  
1046.000000	0.012799  
1045.000000	0.012796  
1044.000000	0.012745  
1043.000000	0.012747  
1042.000000	0.012859  
1041.000000	0.013069  
1040.000000	0.013284  
1039.000000	0.013390  
1038.000000	0.013342  
1037.000000	0.013197  
1036.000000	0.013058  
1035.000000	0.013007  
1034.000000	0.013077  
1033.000000	0.013241  
1032.000000	0.013419  
1031.000000	0.013510  
1030.000000	0.013475  
1029.000000	0.013370  
1028.000000	0.013297  
1027.000000	0.013304  
1026.000000	0.013363  
1025.000000	0.013414  
1024.000000	0.013395  
1023.000000	0.013267  
1022.000000	0.013049  
1021.000000	0.012827  
1020.000000	0.012673  
1019.000000	0.012563  
1018.000000	0.012421  
1017.000000	0.012244  
1016.000000	0.012124  
1015.000000	0.012115  
1014.000000	0.012147  
1013.000000	0.012106  
1012.000000	0.011955  
1011.000000	0.011749  
1010.000000	0.011567  
1009.000000	0.011458  
1008.000000	0.011432  
1007.000000	0.011457  
1006.000000	0.011477  
1005.000000	0.011462  
1004.000000	0.011441  
1003.000000	0.011447  
1002.000000	0.011469  
1001.000000	0.011459  
1000.000000	0.011371  
999.000000	 0.011181  
998.000000	 0.010899  
997.000000	 0.010605  
996.000000	 0.010427  
995.000000	 0.010440  
994.000000	 0.010583  
993.000000	 0.010721  
992.000000	 0.010772  
991.000000	 0.010756  
990.000000	 0.010750  
989.000000	 0.010812  
988.000000	 0.010944  
987.000000	 0.011073  
986.000000	 0.011105  
985.000000	 0.011025  
984.000000	 0.010935  
983.000000	 0.010952  
982.000000	 0.011081  
981.000000	 0.011237  
980.000000	 0.011364  
979.000000	 0.011481  
978.000000	 0.011634  
977.000000	 0.011830  
976.000000	 0.012045  
975.000000	 0.012240  
974.000000	 0.012376  
973.000000	 0.012450  
972.000000	 0.012518  
971.000000	 0.012639  
970.000000	 0.012816  
969.000000	 0.012997  
968.000000	 0.013139  
967.000000	 0.013214  
966.000000	 0.013187  
965.000000	 0.013035  
964.000000	 0.012800  
963.000000	 0.012576  
962.000000	 0.012430  
961.000000	 0.012354  
960.000000	 0.012306  
959.000000	 0.012250  
958.000000	 0.012173  
957.000000	 0.012088  
956.000000	 0.012041  
955.000000	 0.012066  
954.000000	 0.012140  
953.000000	 0.012202  
952.000000	 0.012226  
951.000000	 0.012227  
950.000000	 0.012215  
949.000000	 0.012171  
948.000000	 0.012095  
947.000000	 0.012028  
946.000000	 0.012007  
945.000000	 0.012033  
944.000000	 0.012077  
943.000000	 0.012107  
942.000000	 0.012076  
941.000000	 0.011945  
940.000000	 0.011714  
939.000000	 0.011432  
938.000000	 0.011158  
937.000000	 0.010925  
936.000000	 0.010744  
935.000000	 0.010608  
934.000000	 0.010501  
933.000000	 0.010435  
932.000000	 0.010454  
931.000000	 0.010571  
930.000000	 0.010695  
929.000000	 0.010697  
928.000000	 0.010561  
927.000000	 0.010423  
926.000000	 0.010414  
925.000000	 0.010525  
924.000000	 0.010652  
923.000000	 0.010732  
922.000000	 0.010785  
921.000000	 0.010831  
920.000000	 0.010839  
919.000000	 0.010779  
918.000000	 0.010689  
917.000000	 0.010659  
916.000000	 0.010745  
915.000000	 0.010903  
914.000000	 0.011010  
913.000000	 0.010972  
912.000000	 0.010800  
911.000000	 0.010598  
910.000000	 0.010477  
909.000000	 0.010487  
908.000000	 0.010592  
907.000000	 0.010676  
906.000000	 0.010622  
905.000000	 0.010415  
904.000000	 0.010190  
903.000000	 0.010112  
902.000000	 0.010207  
901.000000	 0.010347  
900.000000	 0.010406  
899.000000	 0.010392  
898.000000	 0.010389  
897.000000	 0.010450  
896.000000	 0.010553  
895.000000	 0.010641  
894.000000	 0.010673  
893.000000	 0.010650  
892.000000	 0.010612  
891.000000	 0.010613  
890.000000	 0.010670  
889.000000	 0.010754  
888.000000	 0.010831  
887.000000	 0.010893  
886.000000	 0.010935  
885.000000	 0.010937  
884.000000	 0.010879  
883.000000	 0.010783  
882.000000	 0.010706  
881.000000	 0.010705  
880.000000	 0.010794  
879.000000	 0.010941  
878.000000	 0.011083  
877.000000	 0.011172  
876.000000	 0.011194  
875.000000	 0.011154  
874.000000	 0.011040  
873.000000	 0.010826  
872.000000	 0.010514  
871.000000	 0.010186  
870.000000	 0.009991  
869.000000	 0.010064  
868.000000	 0.010385  
867.000000	 0.010739  
866.000000	 0.010868  
865.000000	 0.010701  
864.000000	 0.010401  
863.000000	 0.010175  
862.000000	 0.010091  
861.000000	 0.010107  
860.000000	 0.010192  
859.000000	 0.010329  
858.000000	 0.010443  
857.000000	 0.010451  
856.000000	 0.010398  
855.000000	 0.010449  
854.000000	 0.010706  
853.000000	 0.011102  
852.000000	 0.011491  
851.000000	 0.011787  
850.000000	 0.011991  
849.000000	 0.012111  
848.000000	 0.012147  
847.000000	 0.012114  
846.000000	 0.012067  
845.000000	 0.012061  
844.000000	 0.012098  
843.000000	 0.012107  
842.000000	 0.012004  
841.000000	 0.011790  
840.000000	 0.011579  
839.000000	 0.011497  
838.000000	 0.011577  
837.000000	 0.011727  
836.000000	 0.011794  
835.000000	 0.011630  
834.000000	 0.011182  
833.000000	 0.010585  
832.000000	 0.010118  
831.000000	 0.009984  
830.000000	 0.010120  
829.000000	 0.010299  
828.000000	 0.010406  
827.000000	 0.010525  
826.000000	 0.010739  
825.000000	 0.010990  
824.000000	 0.011173  
823.000000	 0.011256  
822.000000	 0.011252  
821.000000	 0.011174  
820.000000	 0.011093  
819.000000	 0.011126  
818.000000	 0.011329  
817.000000	 0.011649  
816.000000	 0.011977  
815.000000	 0.012208  
814.000000	 0.012267  
813.000000	 0.012141  
812.000000	 0.011946  
811.000000	 0.011864  
810.000000	 0.011994  
809.000000	 0.012273  
808.000000	 0.012582  
807.000000	 0.012838  
806.000000	 0.012984  
805.000000	 0.012952  
804.000000	 0.012717  
803.000000	 0.012345  
802.000000	 0.011959  
801.000000	 0.011648  
800.000000	 0.011431  
799.000000	 0.011276  
798.000000	 0.011122  
797.000000	 0.010933  
796.000000	 0.010727  
795.000000	 0.010529  
794.000000	 0.010326  
793.000000	 0.010115  
792.000000	 0.009995  
791.000000	 0.010101  
790.000000	 0.010413  
789.000000	 0.010717  
788.000000	 0.010815  
787.000000	 0.010737  
786.000000	 0.010690  
785.000000	 0.010846  
784.000000	 0.011205  
783.000000	 0.011648  
782.000000	 0.012049  
781.000000	 0.012365  
780.000000	 0.012642  
779.000000	 0.012934  
778.000000	 0.013241  
777.000000	 0.013542  
776.000000	 0.013872  
775.000000	 0.014295  
774.000000	 0.014798  
773.000000	 0.015271  
772.000000	 0.015622  
771.000000	 0.015866  
770.000000	 0.016063  
769.000000	 0.016238  
768.000000	 0.016370  
767.000000	 0.016422  
766.000000	 0.016325  
765.000000	 0.016019  
764.000000	 0.015570  
763.000000	 0.015195  
762.000000	 0.015106  
761.000000	 0.015312  
760.000000	 0.015639  
759.000000	 0.015915  
758.000000	 0.016109  
757.000000	 0.016296  
756.000000	 0.016543  
755.000000	 0.016836  
754.000000	 0.017093  
753.000000	 0.017249  
752.000000	 0.017319  
751.000000	 0.017378  
750.000000	 0.017494  
749.000000	 0.017706  
748.000000	 0.018064  
747.000000	 0.018640  
746.000000	 0.019490  
745.000000	 0.020634  
744.000000	 0.022039  
743.000000	 0.023561  
742.000000	 0.024905  
741.000000	 0.025771  
740.000000	 0.026115  
739.000000	 0.026193  
738.000000	 0.026276  
737.000000	 0.026401  
736.000000	 0.026451  
735.000000	 0.026400  
734.000000	 0.026377  
733.000000	 0.026510  
732.000000	 0.026799  
731.000000	 0.027146  
730.000000	 0.027488  
729.000000	 0.027910  
728.000000	 0.028613  
727.000000	 0.029713  
726.000000	 0.031093  
725.000000	 0.032455  
724.000000	 0.033562  
723.000000	 0.034382  
722.000000	 0.034917  
721.000000	 0.034906  
720.000000	 0.033907  
719.000000	 0.031864  
718.000000	 0.029363  
717.000000	 0.027159  
716.000000	 0.025644  
715.000000	 0.024705  
714.000000	 0.023943  
713.000000	 0.023070  
712.000000	 0.022115  
711.000000	 0.021293  
710.000000	 0.020750  
709.000000	 0.020464  
708.000000	 0.020316  
707.000000	 0.020203  
706.000000	 0.020162  
705.000000	 0.020328  
704.000000	 0.020741  
703.000000	 0.021230  
702.000000	 0.021521  
701.000000	 0.021486  
700.000000	 0.021277  
699.000000	 0.021101  
698.000000	 0.020944  
697.000000	 0.020589  
696.000000	 0.019930  
695.000000	 0.019216  
694.000000	 0.018782  
693.000000	 0.018603  
692.000000	 0.018286  
691.000000	 0.017488  
690.000000	 0.016327  
689.000000	 0.015220  
688.000000	 0.014387  
687.000000	 0.013699  
686.000000	 0.012991  
685.000000	 0.012340  
684.000000	 0.011939  
683.000000	 0.011817  
682.000000	 0.011841  
681.000000	 0.011896  
680.000000	 0.011913  
679.000000	 0.011779  
678.000000	 0.011485  
677.000000	 0.011320  
676.000000	 0.011408  
675.000000	 0.011615  
674.000000	 0.011777  
673.000000	 0.011661  
672.000000	 0.010523  
671.000000	 0.006955  
670.000000	 0.000024  
669.000000	 -0.009619 
668.000000	 -0.016505 
667.000000	 -0.012796 
666.000000	 -0.003250 
665.000000	 0.004262  
664.000000	 0.008377  
663.000000	 0.010263  
662.000000	 0.010902  
661.000000	 0.010680  
660.000000	 0.009968  
659.000000	 0.009354  
658.000000	 0.009103  
657.000000	 0.008961  
656.000000	 0.008434  
655.000000	 0.007551  
654.000000	 0.006852  
653.000000	 0.006777  
652.000000	 0.007275  
651.000000	 0.008016  
650.000000	 0.008722  

