PE IR                   SPECTRUM    ASCII       PEDS        1.60        
  -1
NB4-15~1.ASC
17/04/10
13:39:05.00
17/04/10
13:39:05.00
Admin

650.000000
6









SPECTRUM ONE,CPU32 MAIN 00.02.5000 17-APRIL-2002 13:00:00
MIR TGS
MIR
OPTKBR
68128
0.200000

4.000000
STRONG
RATIO
SPECTRUM
MAGNITUDE

DOUBLE

COMBINED


0


#HDR
-1
-1
#GR
CM-1
A
0.00000011920928955078
0.0
4000.000000
-1.000000
3351
8
0.212682
-0.018209
#DATA
4000.000000	0.001599  
3999.000000	0.001638  
3998.000000	0.001734  
3997.000000	0.001717  
3996.000000	0.001886  
3995.000000	0.002067  
3994.000000	0.002204  
3993.000000	0.002261  
3992.000000	0.002238  
3991.000000	0.002157  
3990.000000	0.002048  
3989.000000	0.001920  
3988.000000	0.001777  
3987.000000	0.001639  
3986.000000	0.001562  
3985.000000	0.001596  
3984.000000	0.001715  
3983.000000	0.001808  
3982.000000	0.001768  
3981.000000	0.001599  
3980.000000	0.001421  
3979.000000	0.001361  
3978.000000	0.001438  
3977.000000	0.001579  
3976.000000	0.001709  
3975.000000	0.001813  
3974.000000	0.001914  
3973.000000	0.002001  
3972.000000	0.002031  
3971.000000	0.001982  
3970.000000	0.001892  
3969.000000	0.001817  
3968.000000	0.001764  
3967.000000	0.001702  
3966.000000	0.001625  
3965.000000	0.001586  
3964.000000	0.001652  
3963.000000	0.001825  
3962.000000	0.002024  
3961.000000	0.002161  
3960.000000	0.002211  
3959.000000	0.002201  
3958.000000	0.002164  
3957.000000	0.002103  
3956.000000	0.002006  
3955.000000	0.001882  
3954.000000	0.001763  
3953.000000	0.001683  
3952.000000	0.001663  
3951.000000	0.001701  
3950.000000	0.001785  
3949.000000	0.001899  
3948.000000	0.002017  
3947.000000	0.002103  
3946.000000	0.002117  
3945.000000	0.002042  
3944.000000	0.001900  
3943.000000	0.001745  
3942.000000	0.001620  
3941.000000	0.001542  
3940.000000	0.001531  
3939.000000	0.001604  
3938.000000	0.001751  
3937.000000	0.001913  
3936.000000	0.002014  
3935.000000	0.002020  
3934.000000	0.001972  
3933.000000	0.001948  
3932.000000	0.001992  
3931.000000	0.002084  
3930.000000	0.002169  
3929.000000	0.002205  
3928.000000	0.002187  
3927.000000	0.002158  
3926.000000	0.002178  
3925.000000	0.002272  
3924.000000	0.002400  
3923.000000	0.002509  
3922.000000	0.002598  
3921.000000	0.002691  
3920.000000	0.002790  
3919.000000	0.002853  
3918.000000	0.002824  
3917.000000	0.002695  
3916.000000	0.002514  
3915.000000	0.002346  
3914.000000	0.002219  
3913.000000	0.002116  
3912.000000	0.001998  
3911.000000	0.001853  
3910.000000	0.001729  
3909.000000	0.001700  
3908.000000	0.001803  
3907.000000	0.002008  
3906.000000	0.002243  
3905.000000	0.002447  
3904.000000	0.002582  
3903.000000	0.002612  
3902.000000	0.002541  
3901.000000	0.002438  
3900.000000	0.002392  
3899.000000	0.002429  
3898.000000	0.002481  
3897.000000	0.002466  
3896.000000	0.002358  
3895.000000	0.002193  
3894.000000	0.002051  
3893.000000	0.002016  
3892.000000	0.002104  
3891.000000	0.002221  
3890.000000	0.002276  
3889.000000	0.002254  
3888.000000	0.002187  
3887.000000	0.002132  
3886.000000	0.002142  
3885.000000	0.002201  
3884.000000	0.002240  
3883.000000	0.002218  
3882.000000	0.002158  
3881.000000	0.002126  
3880.000000	0.002152  
3879.000000	0.002213  
3878.000000	0.002286  
3877.000000	0.002356  
3876.000000	0.002431  
3875.000000	0.002564  
3874.000000	0.002781  
3873.000000	0.003021  
3872.000000	0.003195  
3871.000000	0.003279  
3870.000000	0.003302  
3869.000000	0.003270  
3868.000000	0.003176  
3867.000000	0.003028  
3866.000000	0.002836  
3865.000000	0.002632  
3864.000000	0.002472  
3863.000000	0.002397  
3862.000000	0.002415  
3861.000000	0.002468  
3860.000000	0.002489  
3859.000000	0.002466  
3858.000000	0.002447  
3857.000000	0.002471  
3856.000000	0.002483  
3855.000000	0.002428  
3854.000000	0.002427  
3853.000000	0.002483  
3852.000000	0.002475  
3851.000000	0.002449  
3850.000000	0.002495  
3849.000000	0.002636  
3848.000000	0.002835  
3847.000000	0.003032  
3846.000000	0.003192  
3845.000000	0.003343  
3844.000000	0.003536  
3843.000000	0.003762  
3842.000000	0.003940  
3841.000000	0.003987  
3840.000000	0.003881  
3839.000000	0.003653  
3838.000000	0.003369  
3837.000000	0.003116  
3836.000000	0.002977  
3835.000000	0.002981  
3834.000000	0.003091  
3833.000000	0.003209  
3832.000000	0.003237  
3831.000000	0.003143  
3830.000000	0.002981  
3829.000000	0.002818  
3828.000000	0.002687  
3827.000000	0.002584  
3826.000000	0.002525  
3825.000000	0.002564  
3824.000000	0.002742  
3823.000000	0.003045  
3822.000000	0.003405  
3821.000000	0.003627  
3820.000000	0.003518  
3819.000000	0.003128  
3818.000000	0.002693  
3817.000000	0.002452  
3816.000000	0.002466  
3815.000000	0.002579  
3814.000000	0.002625  
3813.000000	0.002573  
3812.000000	0.002470  
3811.000000	0.002358  
3810.000000	0.002245  
3809.000000	0.002145  
3808.000000	0.002139  
3807.000000	0.002294  
3806.000000	0.002571  
3805.000000	0.002867  
3804.000000	0.003087  
3803.000000	0.003169  
3802.000000	0.003124  
3801.000000	0.002994  
3800.000000	0.002852  
3799.000000	0.002780  
3798.000000	0.002790  
3797.000000	0.002831  
3796.000000	0.002833  
3795.000000	0.002770  
3794.000000	0.002668  
3793.000000	0.002561  
3792.000000	0.002450  
3791.000000	0.002324  
3790.000000	0.002193  
3789.000000	0.002084  
3788.000000	0.002020  
3787.000000	0.001997  
3786.000000	0.001999  
3785.000000	0.002008  
3784.000000	0.002021  
3783.000000	0.002044  
3782.000000	0.002078  
3781.000000	0.002121  
3780.000000	0.002180  
3779.000000	0.002243  
3778.000000	0.002281  
3777.000000	0.002276  
3776.000000	0.002230  
3775.000000	0.002152  
3774.000000	0.002062  
3773.000000	0.001993  
3772.000000	0.002002  
3771.000000	0.002155  
3770.000000	0.002455  
3769.000000	0.002782  
3768.000000	0.002971  
3767.000000	0.002925  
3766.000000	0.002672  
3765.000000	0.002358  
3764.000000	0.002149  
3763.000000	0.002129  
3762.000000	0.002272  
3761.000000	0.002479  
3760.000000	0.002651  
3759.000000	0.002735  
3758.000000	0.002746  
3757.000000	0.002717  
3756.000000	0.002673  
3755.000000	0.002666  
3754.000000	0.002830  
3753.000000	0.003318  
3752.000000	0.004079  
3751.000000	0.004685  
3750.000000	0.004737  
3749.000000	0.004378  
3748.000000	0.004024  
3747.000000	0.003936  
3746.000000	0.004124  
3745.000000	0.004389  
3744.000000	0.004440  
3743.000000	0.004237  
3742.000000	0.004007  
3741.000000	0.003941  
3740.000000	0.004093  
3739.000000	0.004412  
3738.000000	0.004775  
3737.000000	0.005065  
3736.000000	0.005203  
3735.000000	0.005165  
3734.000000	0.005020  
3733.000000	0.004868  
3732.000000	0.004734  
3731.000000	0.004611  
3730.000000	0.004504  
3729.000000	0.004407  
3728.000000	0.004281  
3727.000000	0.004097  
3726.000000	0.003880  
3725.000000	0.003700  
3724.000000	0.003587  
3723.000000	0.003487  
3722.000000	0.003314  
3721.000000	0.003048  
3720.000000	0.002752  
3719.000000	0.002514  
3718.000000	0.002389  
3717.000000	0.002366  
3716.000000	0.002389  
3715.000000	0.002392  
3714.000000	0.002356  
3713.000000	0.002368  
3712.000000	0.002544  
3711.000000	0.002835  
3710.000000	0.003049  
3709.000000	0.003098  
3708.000000	0.003072  
3707.000000	0.003112  
3706.000000	0.003248  
3705.000000	0.003347  
3704.000000	0.003237  
3703.000000	0.002885  
3702.000000	0.002457  
3701.000000	0.002151  
3700.000000	0.002039  
3699.000000	0.002076  
3698.000000	0.002198  
3697.000000	0.002365  
3696.000000	0.002558  
3695.000000	0.002751  
3694.000000	0.002895  
3693.000000	0.002912  
3692.000000	0.002756  
3691.000000	0.002506  
3690.000000	0.002347  
3689.000000	0.002376  
3688.000000	0.002489  
3687.000000	0.002557  
3686.000000	0.002537  
3685.000000	0.002475  
3684.000000	0.002455  
3683.000000	0.002496  
3682.000000	0.002535  
3681.000000	0.002510  
3680.000000	0.002436  
3679.000000	0.002380  
3678.000000	0.002407  
3677.000000	0.002582  
3676.000000	0.002930  
3675.000000	0.003261  
3674.000000	0.003411  
3673.000000	0.003449  
3672.000000	0.003490  
3671.000000	0.003569  
3670.000000	0.003608  
3669.000000	0.003476  
3668.000000	0.003172  
3667.000000	0.002824  
3666.000000	0.002525  
3665.000000	0.002271  
3664.000000	0.002007  
3663.000000	0.001707  
3662.000000	0.001406  
3661.000000	0.001171  
3660.000000	0.001046  
3659.000000	0.001057  
3658.000000	0.001234  
3657.000000	0.001606  
3656.000000	0.002107  
3655.000000	0.002593  
3654.000000	0.002946  
3653.000000	0.003085  
3652.000000	0.002992  
3651.000000	0.002821  
3650.000000	0.002837  
3649.000000	0.003061  
3648.000000	0.003246  
3647.000000	0.003227  
3646.000000	0.003038  
3645.000000	0.002805  
3644.000000	0.002663  
3643.000000	0.002692  
3642.000000	0.002869  
3641.000000	0.003073  
3640.000000	0.003176  
3639.000000	0.003137  
3638.000000	0.003020  
3637.000000	0.002936  
3636.000000	0.002977  
3635.000000	0.003173  
3634.000000	0.003469  
3633.000000	0.003743  
3632.000000	0.003885  
3631.000000	0.003877  
3630.000000	0.003864  
3629.000000	0.003937  
3628.000000	0.003916  
3627.000000	0.003688  
3626.000000	0.003378  
3625.000000	0.003150  
3624.000000	0.003074  
3623.000000	0.003077  
3622.000000	0.003013  
3621.000000	0.002814  
3620.000000	0.002591  
3619.000000	0.002512  
3618.000000	0.002593  
3617.000000	0.002728  
3616.000000	0.002825  
3615.000000	0.002877  
3614.000000	0.002958  
3613.000000	0.003120  
3612.000000	0.003332  
3611.000000	0.003529  
3610.000000	0.003671  
3609.000000	0.003723  
3608.000000	0.003642  
3607.000000	0.003390  
3606.000000	0.002999  
3605.000000	0.002566  
3604.000000	0.002212  
3603.000000	0.002045  
3602.000000	0.002120  
3601.000000	0.002400  
3600.000000	0.002758  
3599.000000	0.003065  
3598.000000	0.003248  
3597.000000	0.003320  
3596.000000	0.003334  
3595.000000	0.003336  
3594.000000	0.003324  
3593.000000	0.003260  
3592.000000	0.003121  
3591.000000	0.002925  
3590.000000	0.002738  
3589.000000	0.002678  
3588.000000	0.002806  
3587.000000	0.003002  
3586.000000	0.003083  
3585.000000	0.002996  
3584.000000	0.002797  
3583.000000	0.002563  
3582.000000	0.002363  
3581.000000	0.002267  
3580.000000	0.002303  
3579.000000	0.002413  
3578.000000	0.002470  
3577.000000	0.002394  
3576.000000	0.002225  
3575.000000	0.002078  
3574.000000	0.002008  
3573.000000	0.001977  
3572.000000	0.001924  
3571.000000	0.001868  
3570.000000	0.001897  
3569.000000	0.002091  
3568.000000	0.002399  
3567.000000	0.002626  
3566.000000	0.002654  
3565.000000	0.002583  
3564.000000	0.002560  
3563.000000	0.002600  
3562.000000	0.002620  
3561.000000	0.002570  
3560.000000	0.002496  
3559.000000	0.002481  
3558.000000	0.002534  
3557.000000	0.002573  
3556.000000	0.002514  
3555.000000	0.002357  
3554.000000	0.002181  
3553.000000	0.002079  
3552.000000	0.002079  
3551.000000	0.002143  
3550.000000	0.002202  
3549.000000	0.002195  
3548.000000	0.002106  
3547.000000	0.002000  
3546.000000	0.001995  
3545.000000	0.002161  
3544.000000	0.002438  
3543.000000	0.002687  
3542.000000	0.002810  
3541.000000	0.002805  
3540.000000	0.002722  
3539.000000	0.002584  
3538.000000	0.002378  
3537.000000	0.002127  
3536.000000	0.001924  
3535.000000	0.001876  
3534.000000	0.001995  
3533.000000	0.002191  
3532.000000	0.002356  
3531.000000	0.002444  
3530.000000	0.002476  
3529.000000	0.002485  
3528.000000	0.002468  
3527.000000	0.002405  
3526.000000	0.002287  
3525.000000	0.002127  
3524.000000	0.001967  
3523.000000	0.001863  
3522.000000	0.001840  
3521.000000	0.001866  
3520.000000	0.001886  
3519.000000	0.001895  
3518.000000	0.001935  
3517.000000	0.002044  
3516.000000	0.002203  
3515.000000	0.002367  
3514.000000	0.002507  
3513.000000	0.002602  
3512.000000	0.002631  
3511.000000	0.002585  
3510.000000	0.002505  
3509.000000	0.002450  
3508.000000	0.002442  
3507.000000	0.002451  
3506.000000	0.002452  
3505.000000	0.002458  
3504.000000	0.002496  
3503.000000	0.002562  
3502.000000	0.002617  
3501.000000	0.002627  
3500.000000	0.002595  
3499.000000	0.002560  
3498.000000	0.002568  
3497.000000	0.002624  
3496.000000	0.002676  
3495.000000	0.002665  
3494.000000	0.002582  
3493.000000	0.002455  
3492.000000	0.002302  
3491.000000	0.002138  
3490.000000	0.002016  
3489.000000	0.002010  
3488.000000	0.002138  
3487.000000	0.002344  
3486.000000	0.002562  
3485.000000	0.002761  
3484.000000	0.002906  
3483.000000	0.002925  
3482.000000	0.002770  
3481.000000	0.002500  
3480.000000	0.002263  
3479.000000	0.002163  
3478.000000	0.002202  
3477.000000	0.002313  
3476.000000	0.002427  
3475.000000	0.002512  
3474.000000	0.002555  
3473.000000	0.002543  
3472.000000	0.002457  
3471.000000	0.002299  
3470.000000	0.002118  
3469.000000	0.002006  
3468.000000	0.002028  
3467.000000	0.002164  
3466.000000	0.002322  
3465.000000	0.002412  
3464.000000	0.002390  
3463.000000	0.002277  
3462.000000	0.002139  
3461.000000	0.002052  
3460.000000	0.002051  
3459.000000	0.002107  
3458.000000	0.002170  
3457.000000	0.002226  
3456.000000	0.002292  
3455.000000	0.002372  
3454.000000	0.002449  
3453.000000	0.002529  
3452.000000	0.002630  
3451.000000	0.002739  
3450.000000	0.002795  
3449.000000	0.002758  
3448.000000	0.002668  
3447.000000	0.002609  
3446.000000	0.002636  
3445.000000	0.002725  
3444.000000	0.002808  
3443.000000	0.002821  
3442.000000	0.002754  
3441.000000	0.002679  
3440.000000	0.002698  
3439.000000	0.002850  
3438.000000	0.003053  
3437.000000	0.003155  
3436.000000	0.003056  
3435.000000	0.002792  
3434.000000	0.002518  
3433.000000	0.002389  
3432.000000	0.002451  
3431.000000	0.002618  
3430.000000	0.002758  
3429.000000	0.002781  
3428.000000	0.002660  
3427.000000	0.002417  
3426.000000	0.002121  
3425.000000	0.001894  
3424.000000	0.001846  
3423.000000	0.001990  
3422.000000	0.002241  
3421.000000	0.002496  
3420.000000	0.002700  
3419.000000	0.002816  
3418.000000	0.002816  
3417.000000	0.002714  
3416.000000	0.002590  
3415.000000	0.002525  
3414.000000	0.002539  
3413.000000	0.002604  
3412.000000	0.002694  
3411.000000	0.002786  
3410.000000	0.002823  
3409.000000	0.002739  
3408.000000	0.002533  
3407.000000	0.002298  
3406.000000	0.002144  
3405.000000	0.002116  
3404.000000	0.002175  
3403.000000	0.002272  
3402.000000	0.002401  
3401.000000	0.002573  
3400.000000	0.002748  
3399.000000	0.002832  
3398.000000	0.002762  
3397.000000	0.002605  
3396.000000	0.002524  
3395.000000	0.002634  
3394.000000	0.002901  
3393.000000	0.003172  
3392.000000	0.003302  
3391.000000	0.003256  
3390.000000	0.003102  
3389.000000	0.002941  
3388.000000	0.002826  
3387.000000	0.002732  
3386.000000	0.002607  
3385.000000	0.002463  
3384.000000	0.002397  
3383.000000	0.002486  
3382.000000	0.002688  
3381.000000	0.002876  
3380.000000	0.002953  
3379.000000	0.002914  
3378.000000	0.002797  
3377.000000	0.002616  
3376.000000	0.002385  
3375.000000	0.002173  
3374.000000	0.002079  
3373.000000	0.002150  
3372.000000	0.002328  
3371.000000	0.002527  
3370.000000	0.002720  
3369.000000	0.002938  
3368.000000	0.003184  
3367.000000	0.003379  
3366.000000	0.003437  
3365.000000	0.003363  
3364.000000	0.003246  
3363.000000	0.003151  
3362.000000	0.003073  
3361.000000	0.002989  
3360.000000	0.002913  
3359.000000	0.002866  
3358.000000	0.002839  
3357.000000	0.002822  
3356.000000	0.002838  
3355.000000	0.002904  
3354.000000	0.002968  
3353.000000	0.002949  
3352.000000	0.002837  
3351.000000	0.002701  
3350.000000	0.002614  
3349.000000	0.002590  
3348.000000	0.002635  
3347.000000	0.002772  
3346.000000	0.002990  
3345.000000	0.003197  
3344.000000	0.003269  
3343.000000	0.003175  
3342.000000	0.003008  
3341.000000	0.002881  
3340.000000	0.002821  
3339.000000	0.002762  
3338.000000	0.002655  
3337.000000	0.002541  
3336.000000	0.002507  
3335.000000	0.002586  
3334.000000	0.002713  
3333.000000	0.002808  
3332.000000	0.002852  
3331.000000	0.002873  
3330.000000	0.002889  
3329.000000	0.002898  
3328.000000	0.002914  
3327.000000	0.002957  
3326.000000	0.003005  
3325.000000	0.002998  
3324.000000	0.002916  
3323.000000	0.002822  
3322.000000	0.002793  
3321.000000	0.002838  
3320.000000	0.002903  
3319.000000	0.002945  
3318.000000	0.002974  
3317.000000	0.003011  
3316.000000	0.003047  
3315.000000	0.003058  
3314.000000	0.003043  
3313.000000	0.003032  
3312.000000	0.003062  
3311.000000	0.003143  
3310.000000	0.003238  
3309.000000	0.003269  
3308.000000	0.003164  
3307.000000	0.002930  
3306.000000	0.002686  
3305.000000	0.002596  
3304.000000	0.002731  
3303.000000	0.003001  
3302.000000	0.003225  
3301.000000	0.003294  
3300.000000	0.003234  
3299.000000	0.003121  
3298.000000	0.002999  
3297.000000	0.002879  
3296.000000	0.002783  
3295.000000	0.002743  
3294.000000	0.002769  
3293.000000	0.002846  
3292.000000	0.002963  
3291.000000	0.003093  
3290.000000	0.003171  
3289.000000	0.003136  
3288.000000	0.003003  
3287.000000	0.002858  
3286.000000	0.002753  
3285.000000	0.002670  
3284.000000	0.002581  
3283.000000	0.002523  
3282.000000	0.002554  
3281.000000	0.002671  
3280.000000	0.002803  
3279.000000	0.002888  
3278.000000	0.002917  
3277.000000	0.002917  
3276.000000	0.002928  
3275.000000	0.002991  
3274.000000	0.003128  
3273.000000	0.003306  
3272.000000	0.003436  
3271.000000	0.003435  
3270.000000	0.003287  
3269.000000	0.003055  
3268.000000	0.002822  
3267.000000	0.002642  
3266.000000	0.002553  
3265.000000	0.002591  
3264.000000	0.002773  
3263.000000	0.003044  
3262.000000	0.003283  
3261.000000	0.003388  
3260.000000	0.003372  
3259.000000	0.003330  
3258.000000	0.003330  
3257.000000	0.003347  
3256.000000	0.003307  
3255.000000	0.003180  
3254.000000	0.003034  
3253.000000	0.002989  
3252.000000	0.003107  
3251.000000	0.003316  
3250.000000	0.003463  
3249.000000	0.003460  
3248.000000	0.003374  
3247.000000	0.003328  
3246.000000	0.003346  
3245.000000	0.003359  
3244.000000	0.003335  
3243.000000	0.003334  
3242.000000	0.003391  
3241.000000	0.003436  
3240.000000	0.003370  
3239.000000	0.003185  
3238.000000	0.002952  
3237.000000	0.002735  
3236.000000	0.002557  
3235.000000	0.002433  
3234.000000	0.002386  
3233.000000	0.002415  
3232.000000	0.002515  
3231.000000	0.002681  
3230.000000	0.002888  
3229.000000	0.003060  
3228.000000	0.003127  
3227.000000	0.003098  
3226.000000	0.003052  
3225.000000	0.003048  
3224.000000	0.003080  
3223.000000	0.003111  
3222.000000	0.003111  
3221.000000	0.003067  
3220.000000	0.002980  
3219.000000	0.002887  
3218.000000	0.002841  
3217.000000	0.002872  
3216.000000	0.002958  
3215.000000	0.003058  
3214.000000	0.003138  
3213.000000	0.003177  
3212.000000	0.003178  
3211.000000	0.003175  
3210.000000	0.003204  
3209.000000	0.003275  
3208.000000	0.003374  
3207.000000	0.003486  
3206.000000	0.003601  
3205.000000	0.003699  
3204.000000	0.003765  
3203.000000	0.003809  
3202.000000	0.003838  
3201.000000	0.003812  
3200.000000	0.003656  
3199.000000	0.003355  
3198.000000	0.002991  
3197.000000	0.002680  
3196.000000	0.002484  
3195.000000	0.002392  
3194.000000	0.002372  
3193.000000	0.002413  
3192.000000	0.002517  
3191.000000	0.002693  
3190.000000	0.002938  
3189.000000	0.003212  
3188.000000	0.003443  
3187.000000	0.003569  
3186.000000	0.003594  
3185.000000	0.003579  
3184.000000	0.003570  
3183.000000	0.003554  
3182.000000	0.003492  
3181.000000	0.003380  
3180.000000	0.003256  
3179.000000	0.003146  
3178.000000	0.003043  
3177.000000	0.002958  
3176.000000	0.002943  
3175.000000	0.003033  
3174.000000	0.003172  
3173.000000	0.003249  
3172.000000	0.003210  
3171.000000	0.003114  
3170.000000	0.003065  
3169.000000	0.003116  
3168.000000	0.003242  
3167.000000	0.003378  
3166.000000	0.003454  
3165.000000	0.003433  
3164.000000	0.003346  
3163.000000	0.003283  
3162.000000	0.003311  
3161.000000	0.003413  
3160.000000	0.003509  
3159.000000	0.003540  
3158.000000	0.003510  
3157.000000	0.003455  
3156.000000	0.003411  
3155.000000	0.003400  
3154.000000	0.003433  
3153.000000	0.003511  
3152.000000	0.003595  
3151.000000	0.003610  
3150.000000	0.003488  
3149.000000	0.003237  
3148.000000	0.002971  
3147.000000	0.002818  
3146.000000	0.002804  
3145.000000	0.002856  
3144.000000	0.002907  
3143.000000	0.002956  
3142.000000	0.003011  
3141.000000	0.003046  
3140.000000	0.003048  
3139.000000	0.003069  
3138.000000	0.003162  
3137.000000	0.003297  
3136.000000	0.003383  
3135.000000	0.003369  
3134.000000	0.003275  
3133.000000	0.003157  
3132.000000	0.003075  
3131.000000	0.003078  
3130.000000	0.003163  
3129.000000	0.003253  
3128.000000	0.003260  
3127.000000	0.003180  
3126.000000	0.003086  
3125.000000	0.003039  
3124.000000	0.003049  
3123.000000	0.003116  
3122.000000	0.003239  
3121.000000	0.003369  
3120.000000	0.003414  
3119.000000	0.003321  
3118.000000	0.003137  
3117.000000	0.002963  
3116.000000	0.002890  
3115.000000	0.002954  
3114.000000	0.003123  
3113.000000	0.003311  
3112.000000	0.003433  
3111.000000	0.003483  
3110.000000	0.003522  
3109.000000	0.003576  
3108.000000	0.003592  
3107.000000	0.003502  
3106.000000	0.003323  
3105.000000	0.003151  
3104.000000	0.003088  
3103.000000	0.003180  
3102.000000	0.003384  
3101.000000	0.003581  
3100.000000	0.003641  
3099.000000	0.003531  
3098.000000	0.003335  
3097.000000	0.003175  
3096.000000	0.003107  
3095.000000	0.003114  
3094.000000	0.003157  
3093.000000	0.003212  
3092.000000	0.003266  
3091.000000	0.003325  
3090.000000	0.003399  
3089.000000	0.003469  
3088.000000	0.003490  
3087.000000	0.003459  
3086.000000	0.003446  
3085.000000	0.003510  
3084.000000	0.003612  
3083.000000	0.003654  
3082.000000	0.003616  
3081.000000	0.003586  
3080.000000	0.003653  
3079.000000	0.003807  
3078.000000	0.003971  
3077.000000	0.004091  
3076.000000	0.004160  
3075.000000	0.004181  
3074.000000	0.004137  
3073.000000	0.004029  
3072.000000	0.003909  
3071.000000	0.003853  
3070.000000	0.003888  
3069.000000	0.003956  
3068.000000	0.003979  
3067.000000	0.003949  
3066.000000	0.003956  
3065.000000	0.004093  
3064.000000	0.004356  
3063.000000	0.004642  
3062.000000	0.004831  
3061.000000	0.004876  
3060.000000	0.004813  
3059.000000	0.004718  
3058.000000	0.004633  
3057.000000	0.004543  
3056.000000	0.004424  
3055.000000	0.004309  
3054.000000	0.004270  
3053.000000	0.004324  
3052.000000	0.004394  
3051.000000	0.004404  
3050.000000	0.004383  
3049.000000	0.004434  
3048.000000	0.004604  
3047.000000	0.004827  
3046.000000	0.005008  
3045.000000	0.005096  
3044.000000	0.005090  
3043.000000	0.005002  
3042.000000	0.004862  
3041.000000	0.004736  
3040.000000	0.004701  
3039.000000	0.004791  
3038.000000	0.004974  
3037.000000	0.005171  
3036.000000	0.005308  
3035.000000	0.005353  
3034.000000	0.005329  
3033.000000	0.005291  
3032.000000	0.005310  
3031.000000	0.005444  
3030.000000	0.005705  
3029.000000	0.006030  
3028.000000	0.006307  
3027.000000	0.006462  
3026.000000	0.006524  
3025.000000	0.006594  
3024.000000	0.006761  
3023.000000	0.007041  
3022.000000	0.007393  
3021.000000	0.007733  
3020.000000	0.007976  
3019.000000	0.008099  
3018.000000	0.008174  
3017.000000	0.008324  
3016.000000	0.008601  
3015.000000	0.008939  
3014.000000	0.009240  
3013.000000	0.009474  
3012.000000	0.009681  
3011.000000	0.009900  
3010.000000	0.010120  
3009.000000	0.010298  
3008.000000	0.010400  
3007.000000	0.010431  
3006.000000	0.010422  
3005.000000	0.010390  
3004.000000	0.010308  
3003.000000	0.010146  
3002.000000	0.009951  
3001.000000	0.009847  
3000.000000	0.009935  
2999.000000	0.010191  
2998.000000	0.010476  
2997.000000	0.010661  
2996.000000	0.010722  
2995.000000	0.010737  
2994.000000	0.010826  
2993.000000	0.011079  
2992.000000	0.011511  
2991.000000	0.012073  
2990.000000	0.012680  
2989.000000	0.013264  
2988.000000	0.013809  
2987.000000	0.014358  
2986.000000	0.014996  
2985.000000	0.015808  
2984.000000	0.016819  
2983.000000	0.017990  
2982.000000	0.019264  
2981.000000	0.020622  
2980.000000	0.022088  
2979.000000	0.023712  
2978.000000	0.025549  
2977.000000	0.027664  
2976.000000	0.030112  
2975.000000	0.032923  
2974.000000	0.036095  
2973.000000	0.039609  
2972.000000	0.043424  
2971.000000	0.047493  
2970.000000	0.051818  
2969.000000	0.056487  
2968.000000	0.061596  
2967.000000	0.067093  
2966.000000	0.072744  
2965.000000	0.078280  
2964.000000	0.083574  
2963.000000	0.088639  
2962.000000	0.093494  
2961.000000	0.098095  
2960.000000	0.102359  
2959.000000	0.106185  
2958.000000	0.109434  
2957.000000	0.111966  
2956.000000	0.113713  
2955.000000	0.114687  
2954.000000	0.114893  
2953.000000	0.114291  
2952.000000	0.112898  
2951.000000	0.110888  
2950.000000	0.108558  
2949.000000	0.106204  
2948.000000	0.104036  
2947.000000	0.102191  
2946.000000	0.100805  
2945.000000	0.100056  
2944.000000	0.100141  
2943.000000	0.101186  
2942.000000	0.103191  
2941.000000	0.106056  
2940.000000	0.109670  
2939.000000	0.113974  
2938.000000	0.118968  
2937.000000	0.124655  
2936.000000	0.130963  
2935.000000	0.137698  
2934.000000	0.144627  
2933.000000	0.151635  
2932.000000	0.158803  
2931.000000	0.166254  
2930.000000	0.173935  
2929.000000	0.181584  
2928.000000	0.188890  
2927.000000	0.195605  
2926.000000	0.201506  
2925.000000	0.206356  
2924.000000	0.209942  
2923.000000	0.212095  
2922.000000	0.212682  
2921.000000	0.211690  
2920.000000	0.209318  
2919.000000	0.205919  
2918.000000	0.201786  
2917.000000	0.197077  
2916.000000	0.191916  
2915.000000	0.186470  
2914.000000	0.180900  
2913.000000	0.175313  
2912.000000	0.169820  
2911.000000	0.164582  
2910.000000	0.159733  
2909.000000	0.155252  
2908.000000	0.150965  
2907.000000	0.146681  
2906.000000	0.142338  
2905.000000	0.138018  
2904.000000	0.133850  
2903.000000	0.129910  
2902.000000	0.126177  
2901.000000	0.122591  
2900.000000	0.119084  
2899.000000	0.115585  
2898.000000	0.112049  
2897.000000	0.108507  
2896.000000	0.105069  
2895.000000	0.101826  
2894.000000	0.098751  
2893.000000	0.095712  
2892.000000	0.092592  
2891.000000	0.089382  
2890.000000	0.086182  
2889.000000	0.083148  
2888.000000	0.080427  
2887.000000	0.078113  
2886.000000	0.076216  
2885.000000	0.074712  
2884.000000	0.073604  
2883.000000	0.072947  
2882.000000	0.072810  
2881.000000	0.073231  
2880.000000	0.074238  
2879.000000	0.075875  
2878.000000	0.078177  
2877.000000	0.081087  
2876.000000	0.084412  
2875.000000	0.087830  
2874.000000	0.090966  
2873.000000	0.093498  
2872.000000	0.095253  
2871.000000	0.096252  
2870.000000	0.096672  
2869.000000	0.096773  
2868.000000	0.096833  
2867.000000	0.097109  
2866.000000	0.097813  
2865.000000	0.099115  
2864.000000	0.101142  
2863.000000	0.103927  
2862.000000	0.107379  
2861.000000	0.111340  
2860.000000	0.115684  
2859.000000	0.120311  
2858.000000	0.125034  
2857.000000	0.129498  
2856.000000	0.133252  
2855.000000	0.135851  
2854.000000	0.136908  
2853.000000	0.136156  
2852.000000	0.133550  
2851.000000	0.129310  
2850.000000	0.123817  
2849.000000	0.117458  
2848.000000	0.110571  
2847.000000	0.103468  
2846.000000	0.096429  
2845.000000	0.089627  
2844.000000	0.083076  
2843.000000	0.076704  
2842.000000	0.070487  
2841.000000	0.064515  
2840.000000	0.058923  
2839.000000	0.053808  
2838.000000	0.049203  
2837.000000	0.045103  
2836.000000	0.041469  
2835.000000	0.038212  
2834.000000	0.035225  
2833.000000	0.032455  
2832.000000	0.029933  
2831.000000	0.027740  
2830.000000	0.025916  
2829.000000	0.024417  
2828.000000	0.023132  
2827.000000	0.021951  
2826.000000	0.020820  
2825.000000	0.019752  
2824.000000	0.018785  
2823.000000	0.017947  
2822.000000	0.017234  
2821.000000	0.016618  
2820.000000	0.016067  
2819.000000	0.015550  
2818.000000	0.015040  
2817.000000	0.014520  
2816.000000	0.013993  
2815.000000	0.013488  
2814.000000	0.013026  
2813.000000	0.012600  
2812.000000	0.012179  
2811.000000	0.011754  
2810.000000	0.011361  
2809.000000	0.011048  
2808.000000	0.010839  
2807.000000	0.010715  
2806.000000	0.010639  
2805.000000	0.010558  
2804.000000	0.010418  
2803.000000	0.010186  
2802.000000	0.009885  
2801.000000	0.009582  
2800.000000	0.009333  
2799.000000	0.009146  
2798.000000	0.009004  
2797.000000	0.008894  
2796.000000	0.008819  
2795.000000	0.008773  
2794.000000	0.008714  
2793.000000	0.008576  
2792.000000	0.008313  
2791.000000	0.007953  
2790.000000	0.007603  
2789.000000	0.007378  
2788.000000	0.007310  
2787.000000	0.007331  
2786.000000	0.007340  
2785.000000	0.007283  
2784.000000	0.007162  
2783.000000	0.007008  
2782.000000	0.006866  
2781.000000	0.006794  
2780.000000	0.006827  
2779.000000	0.006930  
2778.000000	0.006991  
2777.000000	0.006899  
2776.000000	0.006635  
2775.000000	0.006301  
2774.000000	0.006046  
2773.000000	0.005950  
2772.000000	0.005976  
2771.000000	0.006018  
2770.000000	0.005999  
2769.000000	0.005908  
2768.000000	0.005770  
2767.000000	0.005605  
2766.000000	0.005440  
2765.000000	0.005325  
2764.000000	0.005313  
2763.000000	0.005402  
2762.000000	0.005523  
2761.000000	0.005599  
2760.000000	0.005600  
2759.000000	0.005548  
2758.000000	0.005485  
2757.000000	0.005434  
2756.000000	0.005398  
2755.000000	0.005374  
2754.000000	0.005355  
2753.000000	0.005333  
2752.000000	0.005297  
2751.000000	0.005248  
2750.000000	0.005214  
2749.000000	0.005226  
2748.000000	0.005272  
2747.000000	0.005288  
2746.000000	0.005227  
2745.000000	0.005125  
2744.000000	0.005065  
2743.000000	0.005082  
2742.000000	0.005136  
2741.000000	0.005175  
2740.000000	0.005195  
2739.000000	0.005217  
2738.000000	0.005240  
2737.000000	0.005269  
2736.000000	0.005345  
2735.000000	0.005510  
2734.000000	0.005734  
2733.000000	0.005925  
2732.000000	0.006009  
2731.000000	0.005982  
2730.000000	0.005899  
2729.000000	0.005818  
2728.000000	0.005776  
2727.000000	0.005762  
2726.000000	0.005728  
2725.000000	0.005634  
2724.000000	0.005499  
2723.000000	0.005389  
2722.000000	0.005349  
2721.000000	0.005375  
2720.000000	0.005443  
2719.000000	0.005534  
2718.000000	0.005619  
2717.000000	0.005652  
2716.000000	0.005615  
2715.000000	0.005528  
2714.000000	0.005405  
2713.000000	0.005231  
2712.000000	0.005007  
2711.000000	0.004804  
2710.000000	0.004716  
2709.000000	0.004765  
2708.000000	0.004876  
2707.000000	0.004955  
2706.000000	0.004953  
2705.000000	0.004857  
2704.000000	0.004679  
2703.000000	0.004464  
2702.000000	0.004274  
2701.000000	0.004155  
2700.000000	0.004099  
2699.000000	0.004077  
2698.000000	0.004086  
2697.000000	0.004141  
2696.000000	0.004242  
2695.000000	0.004358  
2694.000000	0.004452  
2693.000000	0.004507  
2692.000000	0.004519  
2691.000000	0.004501  
2690.000000	0.004494  
2689.000000	0.004558  
2688.000000	0.004719  
2687.000000	0.004924  
2686.000000	0.005078  
2685.000000	0.005131  
2684.000000	0.005119  
2683.000000	0.005115  
2682.000000	0.005147  
2681.000000	0.005187  
2680.000000	0.005198  
2679.000000	0.005175  
2678.000000	0.005139  
2677.000000	0.005122  
2676.000000	0.005149  
2675.000000	0.005220  
2674.000000	0.005294  
2673.000000	0.005313  
2672.000000	0.005260  
2671.000000	0.005171  
2670.000000	0.005102  
2669.000000	0.005082  
2668.000000	0.005115  
2667.000000	0.005188  
2666.000000	0.005271  
2665.000000	0.005326  
2664.000000	0.005327  
2663.000000	0.005269  
2662.000000	0.005153  
2661.000000	0.004980  
2660.000000	0.004779  
2659.000000	0.004604  
2658.000000	0.004486  
2657.000000	0.004415  
2656.000000	0.004386  
2655.000000	0.004425  
2654.000000	0.004524  
2653.000000	0.004600  
2652.000000	0.004569  
2651.000000	0.004464  
2650.000000	0.004401  
2649.000000	0.004440  
2648.000000	0.004521  
2647.000000	0.004554  
2646.000000	0.004516  
2645.000000	0.004438  
2644.000000	0.004346  
2643.000000	0.004273  
2642.000000	0.004261  
2641.000000	0.004328  
2640.000000	0.004420  
2639.000000	0.004451  
2638.000000	0.004374  
2637.000000	0.004213  
2636.000000	0.004036  
2635.000000	0.003941  
2634.000000	0.004006  
2633.000000	0.004220  
2632.000000	0.004458  
2631.000000	0.004575  
2630.000000	0.004521  
2629.000000	0.004363  
2628.000000	0.004209  
2627.000000	0.004134  
2626.000000	0.004145  
2625.000000	0.004181  
2624.000000	0.004151  
2623.000000	0.004024  
2622.000000	0.003870  
2621.000000	0.003793  
2620.000000	0.003809  
2619.000000	0.003845  
2618.000000	0.003852  
2617.000000	0.003875  
2616.000000	0.003979  
2615.000000	0.004147  
2614.000000	0.004288  
2613.000000	0.004329  
2612.000000	0.004281  
2611.000000	0.004211  
2610.000000	0.004186  
2609.000000	0.004227  
2608.000000	0.004315  
2607.000000	0.004404  
2606.000000	0.004452  
2605.000000	0.004438  
2604.000000	0.004360  
2603.000000	0.004244  
2602.000000	0.004139  
2601.000000	0.004096  
2600.000000	0.004126  
2599.000000	0.004166  
2598.000000	0.004122  
2597.000000	0.003972  
2596.000000	0.003797  
2595.000000	0.003700  
2594.000000	0.003668  
2593.000000	0.003582  
2592.000000	0.003365  
2591.000000	0.003093  
2590.000000	0.002918  
2589.000000	0.002902  
2588.000000	0.002985  
2587.000000	0.003099  
2586.000000	0.003239  
2585.000000	0.003395  
2584.000000	0.003489  
2583.000000	0.003431  
2582.000000	0.003230  
2581.000000	0.002997  
2580.000000	0.002849  
2579.000000	0.002835  
2578.000000	0.002936  
2577.000000	0.003093  
2576.000000	0.003228  
2575.000000	0.003284  
2574.000000	0.003269  
2573.000000	0.003244  
2572.000000	0.003253  
2571.000000	0.003271  
2570.000000	0.003235  
2569.000000	0.003115  
2568.000000	0.002952  
2567.000000	0.002832  
2566.000000	0.002819  
2565.000000	0.002899  
2564.000000	0.002993  
2563.000000	0.003019  
2562.000000	0.002957  
2561.000000	0.002855  
2560.000000	0.002770  
2559.000000	0.002725  
2558.000000	0.002726  
2557.000000	0.002776  
2556.000000	0.002872  
2555.000000	0.002971  
2554.000000	0.003013  
2553.000000	0.002994  
2552.000000	0.002998  
2551.000000	0.003113  
2550.000000	0.003311  
2549.000000	0.003458  
2548.000000	0.003453  
2547.000000	0.003313  
2546.000000	0.003111  
2545.000000	0.002886  
2544.000000	0.002675  
2543.000000	0.002561  
2542.000000	0.002602  
2541.000000	0.002724  
2540.000000	0.002773  
2539.000000	0.002706  
2538.000000	0.002641  
2537.000000	0.002685  
2536.000000	0.002785  
2535.000000	0.002811  
2534.000000	0.002730  
2533.000000	0.002631  
2532.000000	0.002597  
2531.000000	0.002615  
2530.000000	0.002612  
2529.000000	0.002539  
2528.000000	0.002418  
2527.000000	0.002341  
2526.000000	0.002391  
2525.000000	0.002565  
2524.000000	0.002764  
2523.000000	0.002899  
2522.000000	0.002949  
2521.000000	0.002920  
2520.000000	0.002805  
2519.000000	0.002630  
2518.000000	0.002517  
2517.000000	0.002585  
2516.000000	0.002815  
2515.000000	0.003050  
2514.000000	0.003157  
2513.000000	0.003127  
2512.000000	0.003028  
2511.000000	0.002913  
2510.000000	0.002813  
2509.000000	0.002744  
2508.000000	0.002718  
2507.000000	0.002734  
2506.000000	0.002789  
2505.000000	0.002862  
2504.000000	0.002892  
2503.000000	0.002823  
2502.000000	0.002696  
2501.000000	0.002647  
2500.000000	0.002777  
2499.000000	0.003016  
2498.000000	0.003148  
2497.000000	0.002988  
2496.000000	0.002537  
2495.000000	0.001998  
2494.000000	0.001635  
2493.000000	0.001600  
2492.000000	0.001851  
2491.000000	0.002222  
2490.000000	0.002545  
2489.000000	0.002732  
2488.000000	0.002769  
2487.000000	0.002682  
2486.000000	0.002511  
2485.000000	0.002298  
2484.000000	0.002099  
2483.000000	0.001996  
2482.000000	0.002070  
2481.000000	0.002334  
2480.000000	0.002699  
2479.000000	0.003021  
2478.000000	0.003188  
2477.000000	0.003167  
2476.000000	0.002990  
2475.000000	0.002733  
2474.000000	0.002498  
2473.000000	0.002361  
2472.000000	0.002324  
2471.000000	0.002326  
2470.000000	0.002301  
2469.000000	0.002220  
2468.000000	0.002118  
2467.000000	0.002082  
2466.000000	0.002182  
2465.000000	0.002378  
2464.000000	0.002527  
2463.000000	0.002520  
2462.000000	0.002401  
2461.000000	0.002305  
2460.000000	0.002309  
2459.000000	0.002402  
2458.000000	0.002559  
2457.000000	0.002740  
2456.000000	0.002838  
2455.000000	0.002728  
2454.000000	0.002417  
2453.000000	0.002073  
2452.000000	0.001838  
2451.000000	0.001690  
2450.000000	0.001543  
2449.000000	0.001421  
2448.000000	0.001456  
2447.000000	0.001719  
2446.000000	0.002128  
2445.000000	0.002508  
2444.000000	0.002710  
2443.000000	0.002693  
2442.000000	0.002542  
2441.000000	0.002409  
2440.000000	0.002396  
2439.000000	0.002477  
2438.000000	0.002544  
2437.000000	0.002527  
2436.000000	0.002433  
2435.000000	0.002295  
2434.000000	0.002128  
2433.000000	0.001956  
2432.000000	0.001832  
2431.000000	0.001809  
2430.000000	0.001884  
2429.000000	0.001997  
2428.000000	0.002089  
2427.000000	0.002160  
2426.000000	0.002255  
2425.000000	0.002395  
2424.000000	0.002520  
2423.000000	0.002540  
2422.000000	0.002437  
2421.000000	0.002293  
2420.000000	0.002205  
2419.000000	0.002199  
2418.000000	0.002242  
2417.000000	0.002291  
2416.000000	0.002327  
2415.000000	0.002349  
2414.000000	0.002389  
2413.000000	0.002484  
2412.000000	0.002619  
2411.000000	0.002717  
2410.000000	0.002730  
2409.000000	0.002712  
2408.000000	0.002746  
2407.000000	0.002812  
2406.000000	0.002794  
2405.000000	0.002627  
2404.000000	0.002379  
2403.000000	0.002168  
2402.000000	0.002033  
2401.000000	0.001939  
2400.000000	0.001877  
2399.000000	0.001916  
2398.000000	0.002114  
2397.000000	0.002422  
2396.000000	0.002692  
2395.000000	0.002793  
2394.000000	0.002727  
2393.000000	0.002624  
2392.000000	0.002629  
2391.000000	0.002781  
2390.000000	0.002998  
2389.000000	0.003187  
2388.000000	0.003361  
2387.000000	0.003653  
2386.000000	0.004193  
2385.000000	0.004940  
2384.000000	0.005635  
2383.000000	0.005941  
2382.000000	0.005674  
2381.000000	0.004926  
2380.000000	0.003971  
2379.000000	0.003031  
2378.000000	0.002155  
2377.000000	0.001310  
2376.000000	0.000615  
2375.000000	0.000378  
2374.000000	0.000819  
2373.000000	0.001782  
2372.000000	0.002812  
2371.000000	0.003554  
2370.000000	0.003986  
2369.000000	0.004239  
2368.000000	0.004368  
2367.000000	0.004394  
2366.000000	0.004391  
2365.000000	0.004342  
2364.000000	0.004095  
2363.000000	0.003639  
2362.000000	0.003081  
2361.000000	0.002571  
2360.000000	0.002455  
2359.000000	0.002851  
2358.000000	0.003448  
2357.000000	0.003708  
2356.000000	0.003450  
2355.000000	0.003011  
2354.000000	0.002567  
2353.000000	0.002281  
2352.000000	0.002309  
2351.000000	0.002653  
2350.000000	0.003138  
2349.000000	0.003344  
2348.000000	0.003171  
2347.000000	0.002796  
2346.000000	0.002928  
2345.000000	0.004036  
2344.000000	0.005497  
2343.000000	0.006308  
2342.000000	0.005709  
2341.000000	0.004192  
2340.000000	0.002918  
2339.000000	0.002508  
2338.000000	0.002528  
2337.000000	0.002338  
2336.000000	0.001883  
2335.000000	0.001557  
2334.000000	0.001447  
2333.000000	0.001523  
2332.000000	0.001861  
2331.000000	0.002625  
2330.000000	0.003799  
2329.000000	0.004916  
2328.000000	0.005828  
2327.000000	0.006448  
2326.000000	0.006810  
2325.000000	0.006877  
2324.000000	0.006547  
2323.000000	0.005938  
2322.000000	0.005130  
2321.000000	0.004531  
2320.000000	0.004492  
2319.000000	0.005116  
2318.000000	0.005953  
2317.000000	0.006394  
2316.000000	0.006195  
2315.000000	0.005639  
2314.000000	0.005285  
2313.000000	0.005453  
2312.000000	0.006081  
2311.000000	0.006817  
2310.000000	0.007375  
2309.000000	0.007650  
2308.000000	0.007691  
2307.000000	0.007548  
2306.000000	0.007239  
2305.000000	0.006845  
2304.000000	0.006510  
2303.000000	0.006379  
2302.000000	0.006449  
2301.000000	0.006571  
2300.000000	0.006583  
2299.000000	0.006451  
2298.000000	0.006300  
2297.000000	0.006226  
2296.000000	0.006211  
2295.000000	0.006122  
2294.000000	0.005903  
2293.000000	0.005602  
2292.000000	0.005289  
2291.000000	0.004957  
2290.000000	0.004583  
2289.000000	0.004214  
2288.000000	0.003908  
2287.000000	0.003637  
2286.000000	0.003302  
2285.000000	0.002898  
2284.000000	0.002539  
2283.000000	0.002329  
2282.000000	0.002248  
2281.000000	0.002251  
2280.000000	0.002360  
2279.000000	0.002613  
2278.000000	0.002909  
2277.000000	0.003055  
2276.000000	0.003009  
2275.000000	0.002982  
2274.000000	0.003220  
2273.000000	0.003696  
2272.000000	0.004121  
2271.000000	0.004244  
2270.000000	0.004084  
2269.000000	0.003819  
2268.000000	0.003530  
2267.000000	0.003142  
2266.000000	0.002645  
2265.000000	0.002221  
2264.000000	0.002109  
2263.000000	0.002341  
2262.000000	0.002731  
2261.000000	0.003051  
2260.000000	0.003170  
2259.000000	0.003079  
2258.000000	0.002889  
2257.000000	0.002827  
2256.000000	0.003066  
2255.000000	0.003505  
2254.000000	0.003819  
2253.000000	0.003795  
2252.000000	0.003562  
2251.000000	0.003390  
2250.000000	0.003341  
2249.000000	0.003221  
2248.000000	0.002860  
2247.000000	0.002305  
2246.000000	0.001765  
2245.000000	0.001432  
2244.000000	0.001392  
2243.000000	0.001630  
2242.000000	0.002036  
2241.000000	0.002443  
2240.000000	0.002706  
2239.000000	0.002767  
2238.000000	0.002674  
2237.000000	0.002530  
2236.000000	0.002431  
2235.000000	0.002407  
2234.000000	0.002424  
2233.000000	0.002441  
2232.000000	0.002434  
2231.000000	0.002363  
2230.000000	0.002175  
2229.000000	0.001878  
2228.000000	0.001597  
2227.000000	0.001493  
2226.000000	0.001602  
2225.000000	0.001781  
2224.000000	0.001822  
2223.000000	0.001636  
2222.000000	0.001363  
2221.000000	0.001291  
2220.000000	0.001601  
2219.000000	0.002141  
2218.000000	0.002534  
2217.000000	0.002578  
2216.000000	0.002470  
2215.000000	0.002546  
2214.000000	0.002847  
2213.000000	0.003110  
2212.000000	0.003141  
2211.000000	0.003028  
2210.000000	0.002932  
2209.000000	0.002813  
2208.000000	0.002511  
2207.000000	0.002019  
2206.000000	0.001554  
2205.000000	0.001379  
2204.000000	0.001602  
2203.000000	0.002145  
2202.000000	0.002817  
2201.000000	0.003405  
2200.000000	0.003779  
2199.000000	0.003950  
2198.000000	0.004025  
2197.000000	0.004075  
2196.000000	0.004055  
2195.000000	0.003861  
2194.000000	0.003453  
2193.000000	0.002912  
2192.000000	0.002348  
2191.000000	0.001799  
2190.000000	0.001268  
2189.000000	0.000873  
2188.000000	0.000806  
2187.000000	0.001095  
2186.000000	0.001476  
2185.000000	0.001648  
2184.000000	0.001607  
2183.000000	0.001621  
2182.000000	0.001900  
2181.000000	0.002399  
2180.000000	0.002956  
2179.000000	0.003438  
2178.000000	0.003736  
2177.000000	0.003784  
2176.000000	0.003645  
2175.000000	0.003457  
2174.000000	0.003235  
2173.000000	0.002876  
2172.000000	0.002419  
2171.000000	0.002107  
2170.000000	0.002094  
2169.000000	0.002198  
2168.000000	0.002143  
2167.000000	0.001961  
2166.000000	0.001964  
2165.000000	0.002314  
2164.000000	0.002789  
2163.000000	0.003008  
2162.000000	0.002807  
2161.000000	0.002356  
2160.000000	0.002021  
2159.000000	0.002072  
2158.000000	0.002449  
2157.000000	0.002829  
2156.000000	0.002949  
2155.000000	0.002809  
2154.000000	0.002580  
2153.000000	0.002435  
2152.000000	0.002481  
2151.000000	0.002703  
2150.000000	0.002906  
2149.000000	0.002810  
2148.000000	0.002357  
2147.000000	0.001861  
2146.000000	0.001742  
2145.000000	0.002116  
2144.000000	0.002727  
2143.000000	0.003211  
2142.000000	0.003322  
2141.000000	0.002970  
2140.000000	0.002271  
2139.000000	0.001571  
2138.000000	0.001290  
2137.000000	0.001584  
2136.000000	0.002191  
2135.000000	0.002671  
2134.000000	0.002781  
2133.000000	0.002603  
2132.000000	0.002404  
2131.000000	0.002389  
2130.000000	0.002574  
2129.000000	0.002818  
2128.000000	0.002962  
2127.000000	0.002933  
2126.000000	0.002724  
2125.000000	0.002354  
2124.000000	0.001917  
2123.000000	0.001623  
2122.000000	0.001681  
2121.000000	0.002090  
2120.000000	0.002584  
2119.000000	0.002851  
2118.000000	0.002787  
2117.000000	0.002550  
2116.000000	0.002417  
2115.000000	0.002557  
2114.000000	0.002876  
2113.000000	0.003070  
2112.000000	0.002910  
2111.000000	0.002505  
2110.000000	0.002215  
2109.000000	0.002258  
2108.000000	0.002488  
2107.000000	0.002600  
2106.000000	0.002475  
2105.000000	0.002216  
2104.000000	0.001940  
2103.000000	0.001673  
2102.000000	0.001434  
2101.000000	0.001274  
2100.000000	0.001193  
2099.000000	0.001123  
2098.000000	0.001026  
2097.000000	0.000958  
2096.000000	0.000975  
2095.000000	0.001054  
2094.000000	0.001142  
2093.000000	0.001253  
2092.000000	0.001433  
2091.000000	0.001672  
2090.000000	0.001889  
2089.000000	0.002017  
2088.000000	0.002093  
2087.000000	0.002234  
2086.000000	0.002489  
2085.000000	0.002740  
2084.000000	0.002757  
2083.000000	0.002431  
2082.000000	0.001928  
2081.000000	0.001593  
2080.000000	0.001664  
2079.000000	0.002075  
2078.000000	0.002512  
2077.000000	0.002650  
2076.000000	0.002391  
2075.000000	0.001945  
2074.000000	0.001668  
2073.000000	0.001736  
2072.000000	0.001984  
2071.000000	0.002118  
2070.000000	0.002077  
2069.000000	0.002059  
2068.000000	0.002224  
2067.000000	0.002491  
2066.000000	0.002700  
2065.000000	0.002835  
2064.000000	0.002977  
2063.000000	0.003141  
2062.000000	0.003272  
2061.000000	0.003346  
2060.000000	0.003341  
2059.000000	0.003180  
2058.000000	0.002844  
2057.000000	0.002489  
2056.000000	0.002283  
2055.000000	0.002145  
2054.000000	0.001852  
2053.000000	0.001403  
2052.000000	0.001092  
2051.000000	0.001146  
2050.000000	0.001493  
2049.000000	0.001961  
2048.000000	0.002491  
2047.000000	0.002979  
2046.000000	0.003094  
2045.000000	0.002619  
2044.000000	0.001873  
2043.000000	0.001480  
2042.000000	0.001683  
2041.000000	0.002152  
2040.000000	0.002515  
2039.000000	0.002765  
2038.000000	0.002992  
2037.000000	0.003032  
2036.000000	0.002674  
2035.000000	0.002087  
2034.000000	0.001748  
2033.000000	0.001941  
2032.000000	0.002476  
2031.000000	0.002899  
2030.000000	0.002838  
2029.000000	0.002191  
2028.000000	0.001189  
2027.000000	0.000295  
2026.000000	-0.000118 
2025.000000	-0.000052 
2024.000000	0.000208  
2023.000000	0.000504  
2022.000000	0.000958  
2021.000000	0.001687  
2020.000000	0.002510  
2019.000000	0.003060  
2018.000000	0.003118  
2017.000000	0.002745  
2016.000000	0.002157  
2015.000000	0.001585  
2014.000000	0.001250  
2013.000000	0.001300  
2012.000000	0.001580  
2011.000000	0.001629  
2010.000000	0.001093  
2009.000000	0.000168  
2008.000000	-0.000509 
2007.000000	-0.000508 
2006.000000	0.000025  
2005.000000	0.000672  
2004.000000	0.001239  
2003.000000	0.001834  
2002.000000	0.002564  
2001.000000	0.003327  
2000.000000	0.003848  
1999.000000	0.003835  
1998.000000	0.003167  
1997.000000	0.002081  
1996.000000	0.001102  
1995.000000	0.000658  
1994.000000	0.000759  
1993.000000	0.001093  
1992.000000	0.001371  
1991.000000	0.001519  
1990.000000	0.001567  
1989.000000	0.001573  
1988.000000	0.001685  
1987.000000	0.002051  
1986.000000	0.002573  
1985.000000	0.002957  
1984.000000	0.003071  
1983.000000	0.003087  
1982.000000	0.003158  
1981.000000	0.003151  
1980.000000	0.002887  
1979.000000	0.002485  
1978.000000	0.002206  
1977.000000	0.002040  
1976.000000	0.001761  
1975.000000	0.001359  
1974.000000	0.001055  
1973.000000	0.000948  
1972.000000	0.000925  
1971.000000	0.000949  
1970.000000	0.001141  
1969.000000	0.001498  
1968.000000	0.001770  
1967.000000	0.001777  
1966.000000	0.001666  
1965.000000	0.001685  
1964.000000	0.001882  
1963.000000	0.002138  
1962.000000	0.002346  
1961.000000	0.002442  
1960.000000	0.002408  
1959.000000	0.002331  
1958.000000	0.002344  
1957.000000	0.002415  
1956.000000	0.002305  
1955.000000	0.001849  
1954.000000	0.001215  
1953.000000	0.000779  
1952.000000	0.000818  
1951.000000	0.001356  
1950.000000	0.002191  
1949.000000	0.002963  
1948.000000	0.003303  
1947.000000	0.003110  
1946.000000	0.002678  
1945.000000	0.002418  
1944.000000	0.002459  
1943.000000	0.002576  
1942.000000	0.002529  
1941.000000	0.002323  
1940.000000	0.002098  
1939.000000	0.001932  
1938.000000	0.001879  
1937.000000	0.002018  
1936.000000	0.002369  
1935.000000	0.002822  
1934.000000	0.003213  
1933.000000	0.003459  
1932.000000	0.003572  
1931.000000	0.003564  
1930.000000	0.003401  
1929.000000	0.003074  
1928.000000	0.002675  
1927.000000	0.002333  
1926.000000	0.002120  
1925.000000	0.002037  
1924.000000	0.002069  
1923.000000	0.002216  
1922.000000	0.002460  
1921.000000	0.002734  
1920.000000	0.002935  
1919.000000	0.002979  
1918.000000	0.002881  
1917.000000	0.002781  
1916.000000	0.002785  
1915.000000	0.002804  
1914.000000	0.002652  
1913.000000	0.002289  
1912.000000	0.001910  
1911.000000	0.001755  
1910.000000	0.001845  
1909.000000	0.002000  
1908.000000	0.002076  
1907.000000	0.002088  
1906.000000	0.002086  
1905.000000	0.002070  
1904.000000	0.002040  
1903.000000	0.002045  
1902.000000	0.002119  
1901.000000	0.002232  
1900.000000	0.002329  
1899.000000	0.002397  
1898.000000	0.002450  
1897.000000	0.002487  
1896.000000	0.002504  
1895.000000	0.002524  
1894.000000	0.002576  
1893.000000	0.002649  
1892.000000	0.002718  
1891.000000	0.002777  
1890.000000	0.002834  
1889.000000	0.002874  
1888.000000	0.002862  
1887.000000	0.002765  
1886.000000	0.002595  
1885.000000	0.002425  
1884.000000	0.002336  
1883.000000	0.002328  
1882.000000	0.002332  
1881.000000	0.002321  
1880.000000	0.002332  
1879.000000	0.002375  
1878.000000	0.002375  
1877.000000	0.002272  
1876.000000	0.002150  
1875.000000	0.002162  
1874.000000	0.002337  
1873.000000	0.002543  
1872.000000	0.002651  
1871.000000	0.002641  
1870.000000	0.002540  
1869.000000	0.002365  
1868.000000	0.002208  
1867.000000	0.002208  
1866.000000	0.002372  
1865.000000	0.002568  
1864.000000	0.002681  
1863.000000	0.002705  
1862.000000	0.002685  
1861.000000	0.002624  
1860.000000	0.002527  
1859.000000	0.002460  
1858.000000	0.002500  
1857.000000	0.002618  
1856.000000	0.002691  
1855.000000	0.002611  
1854.000000	0.002396  
1853.000000	0.002183  
1852.000000	0.002125  
1851.000000	0.002266  
1850.000000	0.002484  
1849.000000	0.002576  
1848.000000	0.002456  
1847.000000	0.002255  
1846.000000	0.002189  
1845.000000	0.002338  
1844.000000	0.002566  
1843.000000	0.002690  
1842.000000	0.002667  
1841.000000	0.002553  
1840.000000	0.002412  
1839.000000	0.002323  
1838.000000	0.002360  
1837.000000	0.002501  
1836.000000	0.002619  
1835.000000	0.002613  
1834.000000	0.002493  
1833.000000	0.002311  
1832.000000	0.002087  
1831.000000	0.001875  
1830.000000	0.001817  
1829.000000	0.001987  
1828.000000	0.002262  
1827.000000	0.002475  
1826.000000	0.002566  
1825.000000	0.002563  
1824.000000	0.002528  
1823.000000	0.002528  
1822.000000	0.002575  
1821.000000	0.002595  
1820.000000	0.002487  
1819.000000	0.002268  
1818.000000	0.002102  
1817.000000	0.002124  
1816.000000	0.002290  
1815.000000	0.002453  
1814.000000	0.002522  
1813.000000	0.002495  
1812.000000	0.002419  
1811.000000	0.002381  
1810.000000	0.002457  
1809.000000	0.002631  
1808.000000	0.002813  
1807.000000	0.002923  
1806.000000	0.002937  
1805.000000	0.002893  
1804.000000	0.002857  
1803.000000	0.002880  
1802.000000	0.002965  
1801.000000	0.003062  
1800.000000	0.003131  
1799.000000	0.003175  
1798.000000	0.003183  
1797.000000	0.003138  
1796.000000	0.003061  
1795.000000	0.003002  
1794.000000	0.002995  
1793.000000	0.003019  
1792.000000	0.003018  
1791.000000	0.002985  
1790.000000	0.002949  
1789.000000	0.002924  
1788.000000	0.002913  
1787.000000	0.002933  
1786.000000	0.002995  
1785.000000	0.003068  
1784.000000	0.003090  
1783.000000	0.003038  
1782.000000	0.002982  
1781.000000	0.003033  
1780.000000	0.003229  
1779.000000	0.003479  
1778.000000	0.003659  
1777.000000	0.003730  
1776.000000	0.003728  
1775.000000	0.003687  
1774.000000	0.003622  
1773.000000	0.003548  
1772.000000	0.003468  
1771.000000	0.003388  
1770.000000	0.003354  
1769.000000	0.003414  
1768.000000	0.003555  
1767.000000	0.003713  
1766.000000	0.003843  
1765.000000	0.003976  
1764.000000	0.004164  
1763.000000	0.004422  
1762.000000	0.004724  
1761.000000	0.005022  
1760.000000	0.005283  
1759.000000	0.005509  
1758.000000	0.005772  
1757.000000	0.006158  
1756.000000	0.006657  
1755.000000	0.007197  
1754.000000	0.007828  
1753.000000	0.008762  
1752.000000	0.010190  
1751.000000	0.012081  
1750.000000	0.014368  
1749.000000	0.017197  
1748.000000	0.020629  
1747.000000	0.024412  
1746.000000	0.028286  
1745.000000	0.032127  
1744.000000	0.035630  
1743.000000	0.038244  
1742.000000	0.039570  
1741.000000	0.039455  
1740.000000	0.037834  
1739.000000	0.035088  
1738.000000	0.032074  
1737.000000	0.029226  
1736.000000	0.026256  
1735.000000	0.022642  
1734.000000	0.018760  
1733.000000	0.015740  
1732.000000	0.013769  
1731.000000	0.012309  
1730.000000	0.011102  
1729.000000	0.010143  
1728.000000	0.009415  
1727.000000	0.008835  
1726.000000	0.008335  
1725.000000	0.007878  
1724.000000	0.007422  
1723.000000	0.006961  
1722.000000	0.006545  
1721.000000	0.006204  
1720.000000	0.005909  
1719.000000	0.005660  
1718.000000	0.005494  
1717.000000	0.005329  
1716.000000	0.005126  
1715.000000	0.004990  
1714.000000	0.004947  
1713.000000	0.004920  
1712.000000	0.004832  
1711.000000	0.004673  
1710.000000	0.004494  
1709.000000	0.004325  
1708.000000	0.004157  
1707.000000	0.004013  
1706.000000	0.003961  
1705.000000	0.004014  
1704.000000	0.004161  
1703.000000	0.004397  
1702.000000	0.004687  
1701.000000	0.004819  
1700.000000	0.004648  
1699.000000	0.004423  
1698.000000	0.004341  
1697.000000	0.004308  
1696.000000	0.004219  
1695.000000	0.004150  
1694.000000	0.004134  
1693.000000	0.004100  
1692.000000	0.004025  
1691.000000	0.003944  
1690.000000	0.003913  
1689.000000	0.003922  
1688.000000	0.003932  
1687.000000	0.003919  
1686.000000	0.003904  
1685.000000	0.003885  
1684.000000	0.003850  
1683.000000	0.003842  
1682.000000	0.003881  
1681.000000	0.003938  
1680.000000	0.003952  
1679.000000	0.003902  
1678.000000	0.003785  
1677.000000	0.003637  
1676.000000	0.003518  
1675.000000	0.003525  
1674.000000	0.003675  
1673.000000	0.003877  
1672.000000	0.004050  
1671.000000	0.004155  
1670.000000	0.004177  
1669.000000	0.004149  
1668.000000	0.004111  
1667.000000	0.004076  
1666.000000	0.004081  
1665.000000	0.004160  
1664.000000	0.004308  
1663.000000	0.004471  
1662.000000	0.004586  
1661.000000	0.004651  
1660.000000	0.004685  
1659.000000	0.004686  
1658.000000	0.004609  
1657.000000	0.004476  
1656.000000	0.004320  
1655.000000	0.004230  
1654.000000	0.004304  
1653.000000	0.004587  
1652.000000	0.004879  
1651.000000	0.004949  
1650.000000	0.004940  
1649.000000	0.004981  
1648.000000	0.005092  
1647.000000	0.005108  
1646.000000	0.004966  
1645.000000	0.004762  
1644.000000	0.004572  
1643.000000	0.004428  
1642.000000	0.004393  
1641.000000	0.004452  
1640.000000	0.004538  
1639.000000	0.004586  
1638.000000	0.004595  
1637.000000	0.004592  
1636.000000	0.004574  
1635.000000	0.004536  
1634.000000	0.004511  
1633.000000	0.004513  
1632.000000	0.004522  
1631.000000	0.004515  
1630.000000	0.004476  
1629.000000	0.004444  
1628.000000	0.004451  
1627.000000	0.004488  
1626.000000	0.004537  
1625.000000	0.004598  
1624.000000	0.004647  
1623.000000	0.004619  
1622.000000	0.004530  
1621.000000	0.004488  
1620.000000	0.004537  
1619.000000	0.004621  
1618.000000	0.004661  
1617.000000	0.004667  
1616.000000	0.004730  
1615.000000	0.004835  
1614.000000	0.004915  
1613.000000	0.004972  
1612.000000	0.005040  
1611.000000	0.005125  
1610.000000	0.005213  
1609.000000	0.005294  
1608.000000	0.005340  
1607.000000	0.005301  
1606.000000	0.005186  
1605.000000	0.005074  
1604.000000	0.005016  
1603.000000	0.004973  
1602.000000	0.004890  
1601.000000	0.004776  
1600.000000	0.004658  
1599.000000	0.004531  
1598.000000	0.004396  
1597.000000	0.004298  
1596.000000	0.004284  
1595.000000	0.004340  
1594.000000	0.004411  
1593.000000	0.004474  
1592.000000	0.004549  
1591.000000	0.004634  
1590.000000	0.004697  
1589.000000	0.004715  
1588.000000	0.004689  
1587.000000	0.004627  
1586.000000	0.004556  
1585.000000	0.004515  
1584.000000	0.004512  
1583.000000	0.004517  
1582.000000	0.004505  
1581.000000	0.004503  
1580.000000	0.004556  
1579.000000	0.004662  
1578.000000	0.004772  
1577.000000	0.004817  
1576.000000	0.004766  
1575.000000	0.004676  
1574.000000	0.004649  
1573.000000	0.004735  
1572.000000	0.004881  
1571.000000	0.004976  
1570.000000	0.004953  
1569.000000	0.004900  
1568.000000	0.004896  
1567.000000	0.004893  
1566.000000	0.004814  
1565.000000	0.004681  
1564.000000	0.004511  
1563.000000	0.004338  
1562.000000	0.004168  
1561.000000	0.004056  
1560.000000	0.004096  
1559.000000	0.004167  
1558.000000	0.004136  
1557.000000	0.004258  
1556.000000	0.004568  
1555.000000	0.004824  
1554.000000	0.005004  
1553.000000	0.004993  
1552.000000	0.004838  
1551.000000	0.004583  
1550.000000	0.004367  
1549.000000	0.004281  
1548.000000	0.004313  
1547.000000	0.004385  
1546.000000	0.004479  
1545.000000	0.004577  
1544.000000	0.004620  
1543.000000	0.004597  
1542.000000	0.004610  
1541.000000	0.004677  
1540.000000	0.004681  
1539.000000	0.004653  
1538.000000	0.004697  
1537.000000	0.004793  
1536.000000	0.004877  
1535.000000	0.004916  
1534.000000	0.004856  
1533.000000	0.004705  
1532.000000	0.004552  
1531.000000	0.004470  
1530.000000	0.004432  
1529.000000	0.004414  
1528.000000	0.004435  
1527.000000	0.004561  
1526.000000	0.004819  
1525.000000	0.005108  
1524.000000	0.005285  
1523.000000	0.005330  
1522.000000	0.005342  
1521.000000	0.005394  
1520.000000	0.005453  
1519.000000	0.005473  
1518.000000	0.005484  
1517.000000	0.005539  
1516.000000	0.005639  
1515.000000	0.005797  
1514.000000	0.006036  
1513.000000	0.006321  
1512.000000	0.006531  
1511.000000	0.006609  
1510.000000	0.006655  
1509.000000	0.006837  
1508.000000	0.007174  
1507.000000	0.007503  
1506.000000	0.007841  
1505.000000	0.008182  
1504.000000	0.008334  
1503.000000	0.008287  
1502.000000	0.008204  
1501.000000	0.008135  
1500.000000	0.008080  
1499.000000	0.008088  
1498.000000	0.008392  
1497.000000	0.009027  
1496.000000	0.009602  
1495.000000	0.009865  
1494.000000	0.010001  
1493.000000	0.010179  
1492.000000	0.010324  
1491.000000	0.010342  
1490.000000	0.010384  
1489.000000	0.010619  
1488.000000	0.010978  
1487.000000	0.011356  
1486.000000	0.011769  
1485.000000	0.012262  
1484.000000	0.012813  
1483.000000	0.013437  
1482.000000	0.014259  
1481.000000	0.015306  
1480.000000	0.016417  
1479.000000	0.017537  
1478.000000	0.018884  
1477.000000	0.020642  
1476.000000	0.022714  
1475.000000	0.025148  
1474.000000	0.028687  
1473.000000	0.034157  
1472.000000	0.041018  
1471.000000	0.047912  
1470.000000	0.054330  
1469.000000	0.060273  
1468.000000	0.065520  
1467.000000	0.069895  
1466.000000	0.073547  
1465.000000	0.076594  
1464.000000	0.078823  
1463.000000	0.080238  
1462.000000	0.081223  
1461.000000	0.082065  
1460.000000	0.082844  
1459.000000	0.083646  
1458.000000	0.084515  
1457.000000	0.084717  
1456.000000	0.083455  
1455.000000	0.081238  
1454.000000	0.078770  
1453.000000	0.076113  
1452.000000	0.073270  
1451.000000	0.070456  
1450.000000	0.067846  
1449.000000	0.065232  
1448.000000	0.062382  
1447.000000	0.059457  
1446.000000	0.056664  
1445.000000	0.053863  
1444.000000	0.050839  
1443.000000	0.047626  
1442.000000	0.044439  
1441.000000	0.041481  
1440.000000	0.038825  
1439.000000	0.036371  
1438.000000	0.033872  
1437.000000	0.031217  
1436.000000	0.028772  
1435.000000	0.026900  
1434.000000	0.025374  
1433.000000	0.023792  
1432.000000	0.022065  
1431.000000	0.020370  
1430.000000	0.018880  
1429.000000	0.017630  
1428.000000	0.016634  
1427.000000	0.015891  
1426.000000	0.015309  
1425.000000	0.014777  
1424.000000	0.014280  
1423.000000	0.013864  
1422.000000	0.013520  
1421.000000	0.013178  
1420.000000	0.012822  
1419.000000	0.012503  
1418.000000	0.012242  
1417.000000	0.011996  
1416.000000	0.011757  
1415.000000	0.011550  
1414.000000	0.011366  
1413.000000	0.011162  
1412.000000	0.010923  
1411.000000	0.010672  
1410.000000	0.010446  
1409.000000	0.010279  
1408.000000	0.010203  
1407.000000	0.010226  
1406.000000	0.010307  
1405.000000	0.010406  
1404.000000	0.010542  
1403.000000	0.010743  
1402.000000	0.010971  
1401.000000	0.011173  
1400.000000	0.011370  
1399.000000	0.011599  
1398.000000	0.011849  
1397.000000	0.012102  
1396.000000	0.012383  
1395.000000	0.012722  
1394.000000	0.013113  
1393.000000	0.013542  
1392.000000	0.014015  
1391.000000	0.014581  
1390.000000	0.015334  
1389.000000	0.016458  
1388.000000	0.018177  
1387.000000	0.020486  
1386.000000	0.023066  
1385.000000	0.025670  
1384.000000	0.028375  
1383.000000	0.031406  
1382.000000	0.034900  
1381.000000	0.038785  
1380.000000	0.042691  
1379.000000	0.045904  
1378.000000	0.047666  
1377.000000	0.047647  
1376.000000	0.045956  
1375.000000	0.042922  
1374.000000	0.039165  
1373.000000	0.035531  
1372.000000	0.032571  
1371.000000	0.030352  
1370.000000	0.028802  
1369.000000	0.027905  
1368.000000	0.027526  
1367.000000	0.027297  
1366.000000	0.026800  
1365.000000	0.025792  
1364.000000	0.024293  
1363.000000	0.022560  
1362.000000	0.020971  
1361.000000	0.019784  
1360.000000	0.019004  
1359.000000	0.018484  
1358.000000	0.018091  
1357.000000	0.017775  
1356.000000	0.017562  
1355.000000	0.017478  
1354.000000	0.017479  
1353.000000	0.017471  
1352.000000	0.017398  
1351.000000	0.017276  
1350.000000	0.017136  
1349.000000	0.016986  
1348.000000	0.016808  
1347.000000	0.016577  
1346.000000	0.016307  
1345.000000	0.016065  
1344.000000	0.015911  
1343.000000	0.015830  
1342.000000	0.015744  
1341.000000	0.015593  
1340.000000	0.015374  
1339.000000	0.015096  
1338.000000	0.014770  
1337.000000	0.014427  
1336.000000	0.014105  
1335.000000	0.013821  
1334.000000	0.013554  
1333.000000	0.013289  
1332.000000	0.013061  
1331.000000	0.012907  
1330.000000	0.012807  
1329.000000	0.012711  
1328.000000	0.012610  
1327.000000	0.012527  
1326.000000	0.012473  
1325.000000	0.012455  
1324.000000	0.012493  
1323.000000	0.012591  
1322.000000	0.012712  
1321.000000	0.012806  
1320.000000	0.012856  
1319.000000	0.012882  
1318.000000	0.012911  
1317.000000	0.012961  
1316.000000	0.013042  
1315.000000	0.013159  
1314.000000	0.013311  
1313.000000	0.013478  
1312.000000	0.013643  
1311.000000	0.013797  
1310.000000	0.013941  
1309.000000	0.014079  
1308.000000	0.014215  
1307.000000	0.014341  
1306.000000	0.014436  
1305.000000	0.014484  
1304.000000	0.014484  
1303.000000	0.014444  
1302.000000	0.014379  
1301.000000	0.014310  
1300.000000	0.014250  
1299.000000	0.014185  
1298.000000	0.014087  
1297.000000	0.013941  
1296.000000	0.013764  
1295.000000	0.013577  
1294.000000	0.013372  
1293.000000	0.013134  
1292.000000	0.012885  
1291.000000	0.012695  
1290.000000	0.012628  
1289.000000	0.012680  
1288.000000	0.012785  
1287.000000	0.012877  
1286.000000	0.012946  
1285.000000	0.013023  
1284.000000	0.013130  
1283.000000	0.013248  
1282.000000	0.013353  
1281.000000	0.013447  
1280.000000	0.013542  
1279.000000	0.013636  
1278.000000	0.013726  
1277.000000	0.013825  
1276.000000	0.013950  
1275.000000	0.014088  
1274.000000	0.014208  
1273.000000	0.014296  
1272.000000	0.014368  
1271.000000	0.014437  
1270.000000	0.014503  
1269.000000	0.014576  
1268.000000	0.014664  
1267.000000	0.014746  
1266.000000	0.014771  
1265.000000	0.014717  
1264.000000	0.014629  
1263.000000	0.014576  
1262.000000	0.014594  
1261.000000	0.014666  
1260.000000	0.014746  
1259.000000	0.014795  
1258.000000	0.014805  
1257.000000	0.014803  
1256.000000	0.014819  
1255.000000	0.014866  
1254.000000	0.014949  
1253.000000	0.015089  
1252.000000	0.015301  
1251.000000	0.015552  
1250.000000	0.015773  
1249.000000	0.015933  
1248.000000	0.016073  
1247.000000	0.016248  
1246.000000	0.016460  
1245.000000	0.016659  
1244.000000	0.016787  
1243.000000	0.016817  
1242.000000	0.016756  
1241.000000	0.016644  
1240.000000	0.016513  
1239.000000	0.016363  
1238.000000	0.016169  
1237.000000	0.015934  
1236.000000	0.015706  
1235.000000	0.015521  
1234.000000	0.015350  
1233.000000	0.015132  
1232.000000	0.014853  
1231.000000	0.014555  
1230.000000	0.014282  
1229.000000	0.014041  
1228.000000	0.013840  
1227.000000	0.013706  
1226.000000	0.013649  
1225.000000	0.013628  
1224.000000	0.013590  
1223.000000	0.013525  
1222.000000	0.013460  
1221.000000	0.013408  
1220.000000	0.013348  
1219.000000	0.013276  
1218.000000	0.013235  
1217.000000	0.013279  
1216.000000	0.013408  
1215.000000	0.013556  
1214.000000	0.013646  
1213.000000	0.013647  
1212.000000	0.013601  
1211.000000	0.013599  
1210.000000	0.013703  
1209.000000	0.013879  
1208.000000	0.014023  
1207.000000	0.014074  
1206.000000	0.014087  
1205.000000	0.014171  
1204.000000	0.014359  
1203.000000	0.014587  
1202.000000	0.014795  
1201.000000	0.014998  
1200.000000	0.015244  
1199.000000	0.015545  
1198.000000	0.015885  
1197.000000	0.016254  
1196.000000	0.016655  
1195.000000	0.017082  
1194.000000	0.017535  
1193.000000	0.018027  
1192.000000	0.018546  
1191.000000	0.019028  
1190.000000	0.019413  
1189.000000	0.019717  
1188.000000	0.020026  
1187.000000	0.020407  
1186.000000	0.020864  
1185.000000	0.021365  
1184.000000	0.021886  
1183.000000	0.022416  
1182.000000	0.022946  
1181.000000	0.023467  
1180.000000	0.023955  
1179.000000	0.024380  
1178.000000	0.024732  
1177.000000	0.025034  
1176.000000	0.025308  
1175.000000	0.025529  
1174.000000	0.025662  
1173.000000	0.025708  
1172.000000	0.025704  
1171.000000	0.025659  
1170.000000	0.025544  
1169.000000	0.025325  
1168.000000	0.025004  
1167.000000	0.024614  
1166.000000	0.024193  
1165.000000	0.023764  
1164.000000	0.023302  
1163.000000	0.022761  
1162.000000	0.022143  
1161.000000	0.021528  
1160.000000	0.021003  
1159.000000	0.020569  
1158.000000	0.020148  
1157.000000	0.019691  
1156.000000	0.019220  
1155.000000	0.018774  
1154.000000	0.018350  
1153.000000	0.017928  
1152.000000	0.017513  
1151.000000	0.017118  
1150.000000	0.016757  
1149.000000	0.016455  
1148.000000	0.016245  
1147.000000	0.016106  
1146.000000	0.015950  
1145.000000	0.015688  
1144.000000	0.015315  
1143.000000	0.014898  
1142.000000	0.014495  
1141.000000	0.014124  
1140.000000	0.013772  
1139.000000	0.013435  
1138.000000	0.013128  
1137.000000	0.012890  
1136.000000	0.012739  
1135.000000	0.012620  
1134.000000	0.012437  
1133.000000	0.012171  
1132.000000	0.011911  
1131.000000	0.011759  
1130.000000	0.011728  
1129.000000	0.011771  
1128.000000	0.011862  
1127.000000	0.012000  
1126.000000	0.012164  
1125.000000	0.012320  
1124.000000	0.012465  
1123.000000	0.012607  
1122.000000	0.012729  
1121.000000	0.012804  
1120.000000	0.012846  
1119.000000	0.012880  
1118.000000	0.012885  
1117.000000	0.012822  
1116.000000	0.012701  
1115.000000	0.012575  
1114.000000	0.012458  
1113.000000	0.012312  
1112.000000	0.012122  
1111.000000	0.011925  
1110.000000	0.011745  
1109.000000	0.011570  
1108.000000	0.011415  
1107.000000	0.011355  
1106.000000	0.011442  
1105.000000	0.011612  
1104.000000	0.011728  
1103.000000	0.011715  
1102.000000	0.011630  
1101.000000	0.011591  
1100.000000	0.011656  
1099.000000	0.011793  
1098.000000	0.011925  
1097.000000	0.012027  
1096.000000	0.012147  
1095.000000	0.012319  
1094.000000	0.012490  
1093.000000	0.012566  
1092.000000	0.012512  
1091.000000	0.012382  
1090.000000	0.012228  
1089.000000	0.012041  
1088.000000	0.011806  
1087.000000	0.011565  
1086.000000	0.011407  
1085.000000	0.011373  
1084.000000	0.011416  
1083.000000	0.011434  
1082.000000	0.011355  
1081.000000	0.011198  
1080.000000	0.011073  
1079.000000	0.011099  
1078.000000	0.011303  
1077.000000	0.011611  
1076.000000	0.011931  
1075.000000	0.012227  
1074.000000	0.012499  
1073.000000	0.012730  
1072.000000	0.012879  
1071.000000	0.012938  
1070.000000	0.012959  
1069.000000	0.013009  
1068.000000	0.013112  
1067.000000	0.013224  
1066.000000	0.013284  
1065.000000	0.013266  
1064.000000	0.013192  
1063.000000	0.013086  
1062.000000	0.012935  
1061.000000	0.012719  
1060.000000	0.012458  
1059.000000	0.012204  
1058.000000	0.011992  
1057.000000	0.011834  
1056.000000	0.011749  
1055.000000	0.011753  
1054.000000	0.011786  
1053.000000	0.011704  
1052.000000	0.011397  
1051.000000	0.010948  
1050.000000	0.010603  
1049.000000	0.010537  
1048.000000	0.010692  
1047.000000	0.010874  
1046.000000	0.010939  
1045.000000	0.010891  
1044.000000	0.010828  
1043.000000	0.010857  
1042.000000	0.011020  
1041.000000	0.011269  
1040.000000	0.011493  
1039.000000	0.011601  
1038.000000	0.011582  
1037.000000	0.011506  
1036.000000	0.011454  
1035.000000	0.011478  
1034.000000	0.011595  
1033.000000	0.011793  
1032.000000	0.012012  
1031.000000	0.012160  
1030.000000	0.012183  
1029.000000	0.012124  
1028.000000	0.012074  
1027.000000	0.012086  
1026.000000	0.012133  
1025.000000	0.012165  
1024.000000	0.012149  
1023.000000	0.012081  
1022.000000	0.011970  
1021.000000	0.011830  
1020.000000	0.011667  
1019.000000	0.011472  
1018.000000	0.011258  
1017.000000	0.011085  
1016.000000	0.011024  
1015.000000	0.011066  
1014.000000	0.011110  
1013.000000	0.011060  
1012.000000	0.010921  
1011.000000	0.010778  
1010.000000	0.010692  
1009.000000	0.010654  
1008.000000	0.010623  
1007.000000	0.010582  
1006.000000	0.010550  
1005.000000	0.010548  
1004.000000	0.010575  
1003.000000	0.010610  
1002.000000	0.010634  
1001.000000	0.010633  
1000.000000	0.010571  
999.000000	 0.010400  
998.000000	 0.010118  
997.000000	 0.009829  
996.000000	 0.009685  
995.000000	 0.009748  
994.000000	 0.009932  
993.000000	 0.010083  
992.000000	 0.010111  
991.000000	 0.010035  
990.000000	 0.009945  
989.000000	 0.009927  
988.000000	 0.010011  
987.000000	 0.010136  
986.000000	 0.010208  
985.000000	 0.010205  
984.000000	 0.010198  
983.000000	 0.010260  
982.000000	 0.010373  
981.000000	 0.010470  
980.000000	 0.010540  
979.000000	 0.010634  
978.000000	 0.010795  
977.000000	 0.011001  
976.000000	 0.011199  
975.000000	 0.011343  
974.000000	 0.011425  
973.000000	 0.011485  
972.000000	 0.011598  
971.000000	 0.011810  
970.000000	 0.012075  
969.000000	 0.012295  
968.000000	 0.012409  
967.000000	 0.012434  
966.000000	 0.012407  
965.000000	 0.012330  
964.000000	 0.012192  
963.000000	 0.012010  
962.000000	 0.011841  
961.000000	 0.011733  
960.000000	 0.011690  
959.000000	 0.011666  
958.000000	 0.011622  
957.000000	 0.011564  
956.000000	 0.011536  
955.000000	 0.011552  
954.000000	 0.011569  
953.000000	 0.011536  
952.000000	 0.011469  
951.000000	 0.011431  
950.000000	 0.011454  
949.000000	 0.011504  
948.000000	 0.011531  
947.000000	 0.011523  
946.000000	 0.011493  
945.000000	 0.011455  
944.000000	 0.011414  
943.000000	 0.011381  
942.000000	 0.011362  
941.000000	 0.011328  
940.000000	 0.011221  
939.000000	 0.010986  
938.000000	 0.010640  
937.000000	 0.010283  
936.000000	 0.010020  
935.000000	 0.009872  
934.000000	 0.009792  
933.000000	 0.009757  
932.000000	 0.009812  
931.000000	 0.009966  
930.000000	 0.010117  
929.000000	 0.010138  
928.000000	 0.010026  
927.000000	 0.009910  
926.000000	 0.009903  
925.000000	 0.010000  
924.000000	 0.010134  
923.000000	 0.010264  
922.000000	 0.010372  
921.000000	 0.010424  
920.000000	 0.010382  
919.000000	 0.010267  
918.000000	 0.010155  
917.000000	 0.010118  
916.000000	 0.010157  
915.000000	 0.010217  
914.000000	 0.010231  
913.000000	 0.010171  
912.000000	 0.010056  
911.000000	 0.009938  
910.000000	 0.009880  
909.000000	 0.009922  
908.000000	 0.010048  
907.000000	 0.010160  
906.000000	 0.010139  
905.000000	 0.009960  
904.000000	 0.009732  
903.000000	 0.009602  
902.000000	 0.009615  
901.000000	 0.009696  
900.000000	 0.009762  
899.000000	 0.009809  
898.000000	 0.009876  
897.000000	 0.009979  
896.000000	 0.010086  
895.000000	 0.010161  
894.000000	 0.010184  
893.000000	 0.010169  
892.000000	 0.010147  
891.000000	 0.010158  
890.000000	 0.010219  
889.000000	 0.010317  
888.000000	 0.010412  
887.000000	 0.010471  
886.000000	 0.010484  
885.000000	 0.010458  
884.000000	 0.010410  
883.000000	 0.010345  
882.000000	 0.010276  
881.000000	 0.010236  
880.000000	 0.010261  
879.000000	 0.010343  
878.000000	 0.010425  
877.000000	 0.010448  
876.000000	 0.010412  
875.000000	 0.010356  
874.000000	 0.010303  
873.000000	 0.010228  
872.000000	 0.010092  
871.000000	 0.009905  
870.000000	 0.009766  
869.000000	 0.009792  
868.000000	 0.009982  
867.000000	 0.010163  
866.000000	 0.010128  
865.000000	 0.009846  
864.000000	 0.009498  
863.000000	 0.009290  
862.000000	 0.009283  
861.000000	 0.009417  
860.000000	 0.009617  
859.000000	 0.009817  
858.000000	 0.009936  
857.000000	 0.009927  
856.000000	 0.009859  
855.000000	 0.009872  
854.000000	 0.010044  
853.000000	 0.010326  
852.000000	 0.010632  
851.000000	 0.010921  
850.000000	 0.011183  
849.000000	 0.011388  
848.000000	 0.011491  
847.000000	 0.011488  
846.000000	 0.011437  
845.000000	 0.011417  
844.000000	 0.011443  
843.000000	 0.011437  
842.000000	 0.011313  
841.000000	 0.011086  
840.000000	 0.010874  
839.000000	 0.010779  
838.000000	 0.010787  
837.000000	 0.010803  
836.000000	 0.010734  
835.000000	 0.010529  
834.000000	 0.010205  
833.000000	 0.009865  
832.000000	 0.009654  
831.000000	 0.009620  
830.000000	 0.009659  
829.000000	 0.009645  
828.000000	 0.009610  
827.000000	 0.009689  
826.000000	 0.009921  
825.000000	 0.010185  
824.000000	 0.010353  
823.000000	 0.010387  
822.000000	 0.010320  
821.000000	 0.010239  
820.000000	 0.010288  
819.000000	 0.010565  
818.000000	 0.011001  
817.000000	 0.011417  
816.000000	 0.011687  
815.000000	 0.011794  
814.000000	 0.011749  
813.000000	 0.011557  
812.000000	 0.011307  
811.000000	 0.011185  
810.000000	 0.011332  
809.000000	 0.011713  
808.000000	 0.012165  
807.000000	 0.012531  
806.000000	 0.012720  
805.000000	 0.012693  
804.000000	 0.012465  
803.000000	 0.012103  
802.000000	 0.011695  
801.000000	 0.011307  
800.000000	 0.010972  
799.000000	 0.010690  
798.000000	 0.010434  
797.000000	 0.010190  
796.000000	 0.009989  
795.000000	 0.009866  
794.000000	 0.009800  
793.000000	 0.009735  
792.000000	 0.009685  
791.000000	 0.009731  
790.000000	 0.009897  
789.000000	 0.010080  
788.000000	 0.010166  
787.000000	 0.010184  
786.000000	 0.010270  
785.000000	 0.010503  
784.000000	 0.010820  
783.000000	 0.011106  
782.000000	 0.011343  
781.000000	 0.011621  
780.000000	 0.012020  
779.000000	 0.012504  
778.000000	 0.012951  
777.000000	 0.013290  
776.000000	 0.013569  
775.000000	 0.013866  
774.000000	 0.014176  
773.000000	 0.014432  
772.000000	 0.014608  
771.000000	 0.014764  
770.000000	 0.014976  
769.000000	 0.015245  
768.000000	 0.015497  
767.000000	 0.015618  
766.000000	 0.015528  
765.000000	 0.015232  
764.000000	 0.014845  
763.000000	 0.014529  
762.000000	 0.014399  
761.000000	 0.014471  
760.000000	 0.014681  
759.000000	 0.014917  
758.000000	 0.015087  
757.000000	 0.015186  
756.000000	 0.015305  
755.000000	 0.015517  
754.000000	 0.015788  
753.000000	 0.016036  
752.000000	 0.016245  
751.000000	 0.016457  
750.000000	 0.016681  
749.000000	 0.016890  
748.000000	 0.017124  
747.000000	 0.017530  
746.000000	 0.018277  
745.000000	 0.019436  
744.000000	 0.020935  
743.000000	 0.022539  
742.000000	 0.023897  
741.000000	 0.024730  
740.000000	 0.025029  
739.000000	 0.025038  
738.000000	 0.024992  
737.000000	 0.024935  
736.000000	 0.024817  
735.000000	 0.024649  
734.000000	 0.024518  
733.000000	 0.024506  
732.000000	 0.024638  
731.000000	 0.024901  
730.000000	 0.025278  
729.000000	 0.025823  
728.000000	 0.026653  
727.000000	 0.027816  
726.000000	 0.029163  
725.000000	 0.030425  
724.000000	 0.031427  
723.000000	 0.032192  
722.000000	 0.032709  
721.000000	 0.032663  
720.000000	 0.031597  
719.000000	 0.029499  
718.000000	 0.026985  
717.000000	 0.024789  
716.000000	 0.023267  
715.000000	 0.022305  
714.000000	 0.021543  
713.000000	 0.020710  
712.000000	 0.019800  
711.000000	 0.018995  
710.000000	 0.018467  
709.000000	 0.018263  
708.000000	 0.018284  
707.000000	 0.018354  
706.000000	 0.018385  
705.000000	 0.018466  
704.000000	 0.018722  
703.000000	 0.019123  
702.000000	 0.019464  
701.000000	 0.019573  
700.000000	 0.019479  
699.000000	 0.019278  
698.000000	 0.018930  
697.000000	 0.018307  
696.000000	 0.017457  
695.000000	 0.016721  
694.000000	 0.016392  
693.000000	 0.016304  
692.000000	 0.015952  
691.000000	 0.015012  
690.000000	 0.013711  
689.000000	 0.012566  
688.000000	 0.011800  
687.000000	 0.011204  
686.000000	 0.010543  
685.000000	 0.009888  
684.000000	 0.009460  
683.000000	 0.009289  
682.000000	 0.009234  
681.000000	 0.009223  
680.000000	 0.009297  
679.000000	 0.009424  
678.000000	 0.009518  
677.000000	 0.009664  
676.000000	 0.009792  
675.000000	 0.009726  
674.000000	 0.009427  
673.000000	 0.008885  
672.000000	 0.007593  
671.000000	 0.004259  
670.000000	 -0.002211 
669.000000	 -0.011542 
668.000000	 -0.018209 
667.000000	 -0.014214 
666.000000	 -0.004625 
665.000000	 0.002549  
664.000000	 0.006337  
663.000000	 0.008098  
662.000000	 0.008843  
661.000000	 0.008859  
660.000000	 0.008362  
659.000000	 0.007826  
658.000000	 0.007532  
657.000000	 0.007309  
656.000000	 0.006724  
655.000000	 0.005849  
654.000000	 0.005281  
653.000000	 0.005400  
652.000000	 0.005933  
651.000000	 0.006344  
650.000000	 0.006422  

