PE IR                   SPECTRUM    ASCII       PEDS        1.60        
  -1
NB4-05~1.ASC
17/04/10
13:21:07.00
17/04/10
13:21:07.00
Admin

650.000000
6









SPECTRUM ONE,CPU32 MAIN 00.02.5000 17-APRIL-2002 13:00:00
MIR TGS
MIR
OPTKBR
68128
0.200000

4.000000
STRONG
RATIO
SPECTRUM
MAGNITUDE

DOUBLE

COMBINED


0


#HDR
-1
-1
#GR
CM-1
A
0.00000011920928955078
0.0
4000.000000
-1.000000
3351
8
0.218278
-0.007696
#DATA
4000.000000	0.001011  
3999.000000	0.001047  
3998.000000	0.001120  
3997.000000	0.001233  
3996.000000	0.001375  
3995.000000	0.001526  
3994.000000	0.001659  
3993.000000	0.001739  
3992.000000	0.001738  
3991.000000	0.001654  
3990.000000	0.001518  
3989.000000	0.001372  
3988.000000	0.001232  
3987.000000	0.001102  
3986.000000	0.001005  
3985.000000	0.000974  
3984.000000	0.001006  
3983.000000	0.001037  
3982.000000	0.000995  
3981.000000	0.000877  
3980.000000	0.000758  
3979.000000	0.000720  
3978.000000	0.000781  
3977.000000	0.000910  
3976.000000	0.001070  
3975.000000	0.001243  
3974.000000	0.001390  
3973.000000	0.001447  
3972.000000	0.001373  
3971.000000	0.001213  
3970.000000	0.001078  
3969.000000	0.001048  
3968.000000	0.001092  
3967.000000	0.001113  
3966.000000	0.001058  
3965.000000	0.000976  
3964.000000	0.000962  
3963.000000	0.001048  
3962.000000	0.001183  
3961.000000	0.001290  
3960.000000	0.001344  
3959.000000	0.001361  
3958.000000	0.001355  
3957.000000	0.001311  
3956.000000	0.001213  
3955.000000	0.001084  
3954.000000	0.000984  
3953.000000	0.000964  
3952.000000	0.001025  
3951.000000	0.001118  
3950.000000	0.001187  
3949.000000	0.001228  
3948.000000	0.001282  
3947.000000	0.001372  
3946.000000	0.001453  
3945.000000	0.001439  
3944.000000	0.001293  
3943.000000	0.001077  
3942.000000	0.000898  
3941.000000	0.000821  
3940.000000	0.000838  
3939.000000	0.000924  
3938.000000	0.001067  
3937.000000	0.001246  
3936.000000	0.001411  
3935.000000	0.001507  
3934.000000	0.001519  
3933.000000	0.001479  
3932.000000	0.001422  
3931.000000	0.001360  
3930.000000	0.001307  
3929.000000	0.001294  
3928.000000	0.001351  
3927.000000	0.001464  
3926.000000	0.001572  
3925.000000	0.001629  
3924.000000	0.001656  
3923.000000	0.001710  
3922.000000	0.001813  
3921.000000	0.001930  
3920.000000	0.001982  
3919.000000	0.001900  
3918.000000	0.001685  
3917.000000	0.001431  
3916.000000	0.001262  
3915.000000	0.001237  
3914.000000	0.001320  
3913.000000	0.001419  
3912.000000	0.001450  
3911.000000	0.001389  
3910.000000	0.001290  
3909.000000	0.001238  
3908.000000	0.001287  
3907.000000	0.001423  
3906.000000	0.001580  
3905.000000	0.001694  
3904.000000	0.001747  
3903.000000	0.001735  
3902.000000	0.001644  
3901.000000	0.001499  
3900.000000	0.001403  
3899.000000	0.001452  
3898.000000	0.001620  
3897.000000	0.001776  
3896.000000	0.001820  
3895.000000	0.001749  
3894.000000	0.001616  
3893.000000	0.001471  
3892.000000	0.001360  
3891.000000	0.001339  
3890.000000	0.001411  
3889.000000	0.001501  
3888.000000	0.001557  
3887.000000	0.001585  
3886.000000	0.001630  
3885.000000	0.001700  
3884.000000	0.001711  
3883.000000	0.001554  
3882.000000	0.001249  
3881.000000	0.000961  
3880.000000	0.000886  
3879.000000	0.001072  
3878.000000	0.001378  
3877.000000	0.001646  
3876.000000	0.001827  
3875.000000	0.001965  
3874.000000	0.002129  
3873.000000	0.002321  
3872.000000	0.002445  
3871.000000	0.002431  
3870.000000	0.002350  
3869.000000	0.002328  
3868.000000	0.002348  
3867.000000	0.002302  
3866.000000	0.002161  
3865.000000	0.001980  
3864.000000	0.001824  
3863.000000	0.001721  
3862.000000	0.001659  
3861.000000	0.001607  
3860.000000	0.001542  
3859.000000	0.001480  
3858.000000	0.001476  
3857.000000	0.001572  
3856.000000	0.001727  
3855.000000	0.001824  
3854.000000	0.001845  
3853.000000	0.001955  
3852.000000	0.002143  
3851.000000	0.002199  
3850.000000	0.002104  
3849.000000	0.002013  
3848.000000	0.002027  
3847.000000	0.002128  
3846.000000	0.002251  
3845.000000	0.002376  
3844.000000	0.002531  
3843.000000	0.002736  
3842.000000	0.002955  
3841.000000	0.003104  
3840.000000	0.003106  
3839.000000	0.002947  
3838.000000	0.002686  
3837.000000	0.002424  
3836.000000	0.002246  
3835.000000	0.002200  
3834.000000	0.002267  
3833.000000	0.002363  
3832.000000	0.002401  
3831.000000	0.002372  
3830.000000	0.002312  
3829.000000	0.002238  
3828.000000	0.002131  
3827.000000	0.002003  
3826.000000	0.001940  
3825.000000	0.002043  
3824.000000	0.002342  
3823.000000	0.002745  
3822.000000	0.003052  
3821.000000	0.003124  
3820.000000	0.002992  
3819.000000	0.002700  
3818.000000	0.002303  
3817.000000	0.001944  
3816.000000	0.001784  
3815.000000	0.001829  
3814.000000	0.001899  
3813.000000	0.001848  
3812.000000	0.001702  
3811.000000	0.001550  
3810.000000	0.001427  
3809.000000	0.001330  
3808.000000	0.001303  
3807.000000	0.001458  
3806.000000	0.001833  
3805.000000	0.002298  
3804.000000	0.002666  
3803.000000	0.002791  
3802.000000	0.002654  
3801.000000	0.002436  
3800.000000	0.002274  
3799.000000	0.002124  
3798.000000	0.001954  
3797.000000	0.001819  
3796.000000	0.001777  
3795.000000	0.001814  
3794.000000	0.001847  
3793.000000	0.001822  
3792.000000	0.001753  
3791.000000	0.001674  
3790.000000	0.001609  
3789.000000	0.001569  
3788.000000	0.001557  
3787.000000	0.001555  
3786.000000	0.001531  
3785.000000	0.001481  
3784.000000	0.001438  
3783.000000	0.001431  
3782.000000	0.001447  
3781.000000	0.001449  
3780.000000	0.001428  
3779.000000	0.001429  
3778.000000	0.001490  
3777.000000	0.001567  
3776.000000	0.001581  
3775.000000	0.001500  
3774.000000	0.001353  
3773.000000	0.001199  
3772.000000	0.001114  
3771.000000	0.001190  
3770.000000	0.001472  
3769.000000	0.001862  
3768.000000	0.002134  
3767.000000	0.002107  
3766.000000	0.001806  
3765.000000	0.001440  
3764.000000	0.001212  
3763.000000	0.001174  
3762.000000	0.001277  
3761.000000	0.001466  
3760.000000	0.001695  
3759.000000	0.001923  
3758.000000	0.002112  
3757.000000	0.002231  
3756.000000	0.002269  
3755.000000	0.002280  
3754.000000	0.002412  
3753.000000	0.002821  
3752.000000	0.003432  
3751.000000	0.003866  
3750.000000	0.003835  
3749.000000	0.003439  
3748.000000	0.002951  
3747.000000	0.002595  
3746.000000	0.002471  
3745.000000	0.002567  
3744.000000	0.002816  
3743.000000	0.003038  
3742.000000	0.003064  
3741.000000	0.003010  
3740.000000	0.003126  
3739.000000	0.003494  
3738.000000	0.003920  
3737.000000	0.004087  
3736.000000	0.003838  
3735.000000	0.003341  
3734.000000	0.002916  
3733.000000	0.002723  
3732.000000	0.002719  
3731.000000	0.002770  
3730.000000	0.002768  
3729.000000	0.002682  
3728.000000	0.002533  
3727.000000	0.002363  
3726.000000	0.002220  
3725.000000	0.002138  
3724.000000	0.002126  
3723.000000	0.002143  
3722.000000	0.002098  
3721.000000	0.001908  
3720.000000	0.001591  
3719.000000	0.001289  
3718.000000	0.001160  
3717.000000	0.001239  
3716.000000	0.001412  
3715.000000	0.001517  
3714.000000	0.001481  
3713.000000	0.001355  
3712.000000	0.001259  
3711.000000	0.001267  
3710.000000	0.001358  
3709.000000	0.001484  
3708.000000	0.001641  
3707.000000	0.001838  
3706.000000	0.002036  
3705.000000	0.002128  
3704.000000	0.001995  
3703.000000	0.001631  
3702.000000	0.001217  
3701.000000	0.001002  
3700.000000	0.001059  
3699.000000	0.001244  
3698.000000	0.001373  
3697.000000	0.001390  
3696.000000	0.001383  
3695.000000	0.001460  
3694.000000	0.001650  
3693.000000	0.001885  
3692.000000	0.002038  
3691.000000	0.002021  
3690.000000	0.001883  
3689.000000	0.001790  
3688.000000	0.001806  
3687.000000	0.001801  
3686.000000	0.001667  
3685.000000	0.001472  
3684.000000	0.001370  
3683.000000	0.001414  
3682.000000	0.001506  
3681.000000	0.001515  
3680.000000	0.001443  
3679.000000	0.001424  
3678.000000	0.001581  
3677.000000	0.001905  
3676.000000	0.002269  
3675.000000	0.002604  
3674.000000	0.002890  
3673.000000	0.003070  
3672.000000	0.003123  
3671.000000	0.003043  
3670.000000	0.002840  
3669.000000	0.002602  
3668.000000	0.002388  
3667.000000	0.002195  
3666.000000	0.002010  
3665.000000	0.001800  
3664.000000	0.001517  
3663.000000	0.001149  
3662.000000	0.000753  
3661.000000	0.000427  
3660.000000	0.000237  
3659.000000	0.000204  
3658.000000	0.000338  
3657.000000	0.000665  
3656.000000	0.001185  
3655.000000	0.001772  
3654.000000	0.002213  
3653.000000	0.002376  
3652.000000	0.002269  
3651.000000	0.002002  
3650.000000	0.001731  
3649.000000	0.001577  
3648.000000	0.001561  
3647.000000	0.001625  
3646.000000	0.001702  
3645.000000	0.001740  
3644.000000	0.001724  
3643.000000	0.001703  
3642.000000	0.001737  
3641.000000	0.001835  
3640.000000	0.001920  
3639.000000	0.001917  
3638.000000	0.001836  
3637.000000	0.001754  
3636.000000	0.001745  
3635.000000	0.001834  
3634.000000	0.001991  
3633.000000	0.002147  
3632.000000	0.002224  
3631.000000	0.002195  
3630.000000	0.002121  
3629.000000	0.002127  
3628.000000	0.002262  
3627.000000	0.002374  
3626.000000	0.002337  
3625.000000	0.002238  
3624.000000	0.002227  
3623.000000	0.002318  
3622.000000	0.002381  
3621.000000	0.002275  
3620.000000	0.001999  
3619.000000	0.001722  
3618.000000	0.001595  
3617.000000	0.001603  
3616.000000	0.001637  
3615.000000	0.001633  
3614.000000	0.001625  
3613.000000	0.001697  
3612.000000	0.001890  
3611.000000	0.002153  
3610.000000	0.002370  
3609.000000	0.002427  
3608.000000	0.002283  
3607.000000	0.001997  
3606.000000	0.001655  
3605.000000	0.001332  
3604.000000	0.001102  
3603.000000	0.001038  
3602.000000	0.001184  
3601.000000	0.001517  
3600.000000	0.001945  
3599.000000	0.002338  
3598.000000	0.002577  
3597.000000	0.002596  
3596.000000	0.002409  
3595.000000	0.002130  
3594.000000	0.001908  
3593.000000	0.001801  
3592.000000	0.001746  
3591.000000	0.001656  
3590.000000	0.001521  
3589.000000	0.001410  
3588.000000	0.001393  
3587.000000	0.001471  
3586.000000	0.001574  
3585.000000	0.001614  
3584.000000	0.001559  
3583.000000	0.001449  
3582.000000	0.001367  
3581.000000	0.001386  
3580.000000	0.001512  
3579.000000	0.001654  
3578.000000	0.001677  
3577.000000	0.001524  
3576.000000	0.001278  
3575.000000	0.001077  
3574.000000	0.000972  
3573.000000	0.000907  
3572.000000	0.000824  
3571.000000	0.000781  
3570.000000	0.000910  
3569.000000	0.001252  
3568.000000	0.001625  
3567.000000	0.001775  
3566.000000	0.001682  
3565.000000	0.001540  
3564.000000	0.001488  
3563.000000	0.001513  
3562.000000	0.001529  
3561.000000	0.001502  
3560.000000	0.001484  
3559.000000	0.001545  
3558.000000	0.001675  
3557.000000	0.001788  
3556.000000	0.001797  
3555.000000	0.001682  
3554.000000	0.001494  
3553.000000	0.001314  
3552.000000	0.001203  
3551.000000	0.001162  
3550.000000	0.001129  
3549.000000	0.001030  
3548.000000	0.000852  
3547.000000	0.000672  
3546.000000	0.000609  
3545.000000	0.000722  
3544.000000	0.000945  
3543.000000	0.001163  
3542.000000	0.001314  
3541.000000	0.001420  
3540.000000	0.001518  
3539.000000	0.001586  
3538.000000	0.001552  
3537.000000	0.001377  
3536.000000	0.001125  
3535.000000	0.000926  
3534.000000	0.000881  
3533.000000	0.001004  
3532.000000	0.001250  
3531.000000	0.001539  
3530.000000	0.001785  
3529.000000	0.001912  
3528.000000	0.001898  
3527.000000	0.001783  
3526.000000	0.001620  
3525.000000	0.001435  
3524.000000	0.001236  
3523.000000	0.001071  
3522.000000	0.001013  
3521.000000	0.001086  
3520.000000	0.001230  
3519.000000	0.001357  
3518.000000	0.001432  
3517.000000	0.001484  
3516.000000	0.001554  
3515.000000	0.001660  
3514.000000	0.001795  
3513.000000	0.001928  
3512.000000	0.002014  
3511.000000	0.002010  
3510.000000	0.001914  
3509.000000	0.001768  
3508.000000	0.001625  
3507.000000	0.001514  
3506.000000	0.001451  
3505.000000	0.001439  
3504.000000	0.001459  
3503.000000	0.001474  
3502.000000	0.001457  
3501.000000	0.001420  
3500.000000	0.001402  
3499.000000	0.001442  
3498.000000	0.001557  
3497.000000	0.001712  
3496.000000	0.001833  
3495.000000	0.001858  
3494.000000	0.001778  
3493.000000	0.001624  
3492.000000	0.001425  
3491.000000	0.001206  
3490.000000	0.001026  
3489.000000	0.000965  
3488.000000	0.001052  
3487.000000	0.001245  
3486.000000	0.001476  
3485.000000	0.001698  
3484.000000	0.001860  
3483.000000	0.001883  
3482.000000	0.001725  
3481.000000	0.001455  
3480.000000	0.001218  
3479.000000	0.001105  
3478.000000	0.001091  
3477.000000	0.001088  
3476.000000	0.001042  
3475.000000	0.000973  
3474.000000	0.000938  
3473.000000	0.000962  
3472.000000	0.001004  
3471.000000	0.001005  
3470.000000	0.000957  
3469.000000	0.000913  
3468.000000	0.000935  
3467.000000	0.001041  
3466.000000	0.001194  
3465.000000	0.001327  
3464.000000	0.001359  
3463.000000	0.001234  
3462.000000	0.000984  
3461.000000	0.000740  
3460.000000	0.000640  
3459.000000	0.000724  
3458.000000	0.000928  
3457.000000	0.001157  
3456.000000	0.001338  
3455.000000	0.001429  
3454.000000	0.001434  
3453.000000	0.001421  
3452.000000	0.001476  
3451.000000	0.001609  
3450.000000	0.001733  
3449.000000	0.001754  
3448.000000	0.001673  
3447.000000	0.001587  
3446.000000	0.001589  
3445.000000	0.001686  
3444.000000	0.001804  
3443.000000	0.001849  
3442.000000	0.001780  
3441.000000	0.001663  
3440.000000	0.001631  
3439.000000	0.001760  
3438.000000	0.001975  
3437.000000	0.002088  
3436.000000	0.001947  
3435.000000	0.001573  
3434.000000	0.001161  
3433.000000	0.000944  
3432.000000	0.001018  
3431.000000	0.001276  
3430.000000	0.001502  
3429.000000	0.001546  
3428.000000	0.001405  
3427.000000	0.001176  
3426.000000	0.000970  
3425.000000	0.000857  
3424.000000	0.000857  
3423.000000	0.000943  
3422.000000	0.001061  
3421.000000	0.001173  
3420.000000	0.001274  
3419.000000	0.001363  
3418.000000	0.001427  
3417.000000	0.001463  
3416.000000	0.001489  
3415.000000	0.001521  
3414.000000	0.001555  
3413.000000	0.001587  
3412.000000	0.001638  
3411.000000	0.001733  
3410.000000	0.001840  
3409.000000	0.001879  
3408.000000	0.001794  
3407.000000	0.001606  
3406.000000	0.001408  
3405.000000	0.001291  
3404.000000	0.001288  
3403.000000	0.001370  
3402.000000	0.001495  
3401.000000	0.001628  
3400.000000	0.001729  
3399.000000	0.001739  
3398.000000	0.001636  
3397.000000	0.001500  
3396.000000	0.001472  
3395.000000	0.001634  
3394.000000	0.001923  
3393.000000	0.002174  
3392.000000	0.002248  
3391.000000	0.002121  
3390.000000	0.001875  
3389.000000	0.001639  
3388.000000	0.001500  
3387.000000	0.001449  
3386.000000	0.001413  
3385.000000	0.001366  
3384.000000	0.001373  
3383.000000	0.001504  
3382.000000	0.001729  
3381.000000	0.001925  
3380.000000	0.001994  
3379.000000	0.001923  
3378.000000	0.001754  
3377.000000	0.001528  
3376.000000	0.001286  
3375.000000	0.001087  
3374.000000	0.000995  
3373.000000	0.001032  
3372.000000	0.001167  
3371.000000	0.001351  
3370.000000	0.001548  
3369.000000	0.001742  
3368.000000	0.001912  
3367.000000	0.002031  
3366.000000	0.002084  
3365.000000	0.002088  
3364.000000	0.002068  
3363.000000	0.002034  
3362.000000	0.001989  
3361.000000	0.001954  
3360.000000	0.001966  
3359.000000	0.002019  
3358.000000	0.002056  
3357.000000	0.002034  
3356.000000	0.001971  
3355.000000	0.001902  
3354.000000	0.001823  
3353.000000	0.001705  
3352.000000	0.001571  
3351.000000	0.001482  
3350.000000	0.001458  
3349.000000	0.001452  
3348.000000	0.001429  
3347.000000	0.001428  
3346.000000	0.001501  
3345.000000	0.001623  
3344.000000	0.001697  
3343.000000	0.001666  
3342.000000	0.001571  
3341.000000	0.001490  
3340.000000	0.001448  
3339.000000	0.001414  
3338.000000	0.001381  
3337.000000	0.001398  
3336.000000	0.001505  
3335.000000	0.001662  
3334.000000	0.001764  
3333.000000	0.001751  
3332.000000	0.001659  
3331.000000	0.001576  
3330.000000	0.001560  
3329.000000	0.001620  
3328.000000	0.001728  
3327.000000	0.001820  
3326.000000	0.001813  
3325.000000	0.001677  
3324.000000	0.001489  
3323.000000	0.001383  
3322.000000	0.001422  
3321.000000	0.001553  
3320.000000	0.001684  
3319.000000	0.001786  
3318.000000	0.001879  
3317.000000	0.001969  
3316.000000	0.002018  
3315.000000	0.001988  
3314.000000	0.001882  
3313.000000	0.001745  
3312.000000	0.001638  
3311.000000	0.001608  
3310.000000	0.001655  
3309.000000	0.001716  
3308.000000	0.001693  
3307.000000	0.001551  
3306.000000	0.001377  
3305.000000	0.001331  
3304.000000	0.001490  
3303.000000	0.001777  
3302.000000	0.002030  
3301.000000	0.002148  
3300.000000	0.002136  
3299.000000	0.002039  
3298.000000	0.001886  
3297.000000	0.001726  
3296.000000	0.001635  
3295.000000	0.001650  
3294.000000	0.001717  
3293.000000	0.001755  
3292.000000	0.001755  
3291.000000	0.001768  
3290.000000	0.001798  
3289.000000	0.001777  
3288.000000	0.001666  
3287.000000	0.001509  
3286.000000	0.001383  
3285.000000	0.001304  
3284.000000	0.001245  
3283.000000	0.001210  
3282.000000	0.001235  
3281.000000	0.001334  
3280.000000	0.001457  
3279.000000	0.001539  
3278.000000	0.001553  
3277.000000	0.001541  
3276.000000	0.001573  
3275.000000	0.001693  
3274.000000	0.001886  
3273.000000	0.002081  
3272.000000	0.002198  
3271.000000	0.002187  
3270.000000	0.002053  
3269.000000	0.001834  
3268.000000	0.001582  
3267.000000	0.001342  
3266.000000	0.001165  
3265.000000	0.001125  
3264.000000	0.001277  
3263.000000	0.001580  
3262.000000	0.001892  
3261.000000	0.002086  
3260.000000	0.002155  
3259.000000	0.002186  
3258.000000	0.002239  
3257.000000	0.002273  
3256.000000	0.002219  
3255.000000	0.002081  
3254.000000	0.001948  
3253.000000	0.001924  
3252.000000	0.002037  
3251.000000	0.002209  
3250.000000	0.002325  
3249.000000	0.002328  
3248.000000	0.002274  
3247.000000	0.002240  
3246.000000	0.002222  
3245.000000	0.002147  
3244.000000	0.001998  
3243.000000	0.001862  
3242.000000	0.001828  
3241.000000	0.001879  
3240.000000	0.001913  
3239.000000	0.001861  
3238.000000	0.001735  
3237.000000	0.001596  
3236.000000	0.001497  
3235.000000	0.001452  
3234.000000	0.001440  
3233.000000	0.001433  
3232.000000	0.001445  
3231.000000	0.001506  
3230.000000	0.001609  
3229.000000	0.001700  
3228.000000	0.001746  
3227.000000	0.001789  
3226.000000	0.001888  
3225.000000	0.002040  
3224.000000	0.002180  
3223.000000	0.002245  
3222.000000	0.002209  
3221.000000	0.002074  
3220.000000	0.001882  
3219.000000	0.001721  
3218.000000	0.001673  
3217.000000	0.001745  
3216.000000	0.001879  
3215.000000	0.002017  
3214.000000	0.002136  
3213.000000	0.002227  
3212.000000	0.002270  
3211.000000	0.002254  
3210.000000	0.002195  
3209.000000	0.002134  
3208.000000	0.002117  
3207.000000	0.002169  
3206.000000	0.002277  
3205.000000	0.002392  
3204.000000	0.002480  
3203.000000	0.002558  
3202.000000	0.002645  
3201.000000	0.002699  
3200.000000	0.002633  
3199.000000	0.002416  
3198.000000	0.002106  
3197.000000	0.001787  
3196.000000	0.001497  
3195.000000	0.001250  
3194.000000	0.001078  
3193.000000	0.001027  
3192.000000	0.001108  
3191.000000	0.001297  
3190.000000	0.001553  
3189.000000	0.001827  
3188.000000	0.002054  
3187.000000	0.002188  
3186.000000	0.002245  
3185.000000	0.002283  
3184.000000	0.002325  
3183.000000	0.002322  
3182.000000	0.002225  
3181.000000	0.002058  
3180.000000	0.001903  
3179.000000	0.001799  
3178.000000	0.001726  
3177.000000	0.001676  
3176.000000	0.001715  
3175.000000	0.001900  
3174.000000	0.002163  
3173.000000	0.002346  
3172.000000	0.002348  
3171.000000	0.002222  
3170.000000	0.002100  
3169.000000	0.002060  
3168.000000	0.002081  
3167.000000	0.002110  
3166.000000	0.002115  
3165.000000	0.002105  
3164.000000	0.002100  
3163.000000	0.002119  
3162.000000	0.002152  
3161.000000	0.002174  
3160.000000	0.002178  
3159.000000	0.002198  
3158.000000	0.002274  
3157.000000	0.002398  
3156.000000	0.002516  
3155.000000	0.002585  
3154.000000	0.002614  
3153.000000	0.002639  
3152.000000	0.002669  
3151.000000	0.002656  
3150.000000	0.002537  
3149.000000	0.002322  
3148.000000	0.002101  
3147.000000	0.001974  
3146.000000	0.001945  
3145.000000	0.001950  
3144.000000	0.001950  
3143.000000	0.001970  
3142.000000	0.002024  
3141.000000	0.002078  
3140.000000	0.002102  
3139.000000	0.002138  
3138.000000	0.002255  
3137.000000	0.002436  
3136.000000	0.002573  
3135.000000	0.002553  
3134.000000	0.002363  
3133.000000	0.002108  
3132.000000	0.001947  
3131.000000	0.001978  
3130.000000	0.002156  
3129.000000	0.002325  
3128.000000	0.002360  
3127.000000	0.002265  
3126.000000	0.002133  
3125.000000	0.002041  
3124.000000	0.002019  
3123.000000	0.002093  
3122.000000	0.002268  
3121.000000	0.002480  
3120.000000	0.002606  
3119.000000	0.002556  
3118.000000	0.002344  
3117.000000	0.002078  
3116.000000	0.001898  
3115.000000	0.001901  
3114.000000	0.002077  
3113.000000	0.002309  
3112.000000	0.002463  
3111.000000	0.002502  
3110.000000	0.002482  
3109.000000	0.002455  
3108.000000	0.002412  
3107.000000	0.002332  
3106.000000	0.002233  
3105.000000	0.002160  
3104.000000	0.002153  
3103.000000	0.002232  
3102.000000	0.002378  
3101.000000	0.002513  
3100.000000	0.002535  
3099.000000	0.002406  
3098.000000	0.002206  
3097.000000	0.002062  
3096.000000	0.002052  
3095.000000	0.002158  
3094.000000	0.002298  
3093.000000	0.002400  
3092.000000	0.002444  
3091.000000	0.002464  
3090.000000	0.002500  
3089.000000	0.002547  
3088.000000	0.002573  
3087.000000	0.002576  
3086.000000	0.002597  
3085.000000	0.002655  
3084.000000	0.002705  
3083.000000	0.002680  
3082.000000	0.002586  
3081.000000	0.002507  
3080.000000	0.002539  
3079.000000	0.002711  
3078.000000	0.002963  
3077.000000	0.003185  
3076.000000	0.003280  
3075.000000	0.003222  
3074.000000	0.003069  
3073.000000	0.002911  
3072.000000	0.002826  
3071.000000	0.002850  
3070.000000	0.002971  
3069.000000	0.003121  
3068.000000	0.003216  
3067.000000	0.003220  
3066.000000	0.003179  
3065.000000	0.003189  
3064.000000	0.003314  
3063.000000	0.003533  
3062.000000	0.003746  
3061.000000	0.003841  
3060.000000	0.003778  
3059.000000	0.003618  
3058.000000	0.003456  
3057.000000	0.003339  
3056.000000	0.003268  
3055.000000	0.003269  
3054.000000	0.003383  
3053.000000	0.003583  
3052.000000	0.003744  
3051.000000	0.003760  
3050.000000	0.003667  
3049.000000	0.003602  
3048.000000	0.003662  
3047.000000	0.003825  
3046.000000	0.004009  
3045.000000	0.004143  
3044.000000	0.004191  
3043.000000	0.004144  
3042.000000	0.004037  
3041.000000	0.003945  
3040.000000	0.003937  
3039.000000	0.004027  
3038.000000	0.004166  
3037.000000	0.004290  
3036.000000	0.004355  
3035.000000	0.004366  
3034.000000	0.004361  
3033.000000	0.004384  
3032.000000	0.004465  
3031.000000	0.004614  
3030.000000	0.004812  
3029.000000	0.005002  
3028.000000	0.005136  
3027.000000	0.005221  
3026.000000	0.005326  
3025.000000	0.005514  
3024.000000	0.005790  
3023.000000	0.006096  
3022.000000	0.006345  
3021.000000	0.006452  
3020.000000	0.006393  
3019.000000	0.006256  
3018.000000	0.006214  
3017.000000	0.006387  
3016.000000	0.006728  
3015.000000	0.007068  
3014.000000	0.007282  
3013.000000	0.007367  
3012.000000	0.007392  
3011.000000	0.007423  
3010.000000	0.007501  
3009.000000	0.007647  
3008.000000	0.007861  
3007.000000	0.008111  
3006.000000	0.008334  
3005.000000	0.008454  
3004.000000	0.008414  
3003.000000	0.008235  
3002.000000	0.008050  
3001.000000	0.008042  
3000.000000	0.008291  
2999.000000	0.008708  
2998.000000	0.009107  
2997.000000	0.009360  
2996.000000	0.009462  
2995.000000	0.009502  
2994.000000	0.009596  
2993.000000	0.009840  
2992.000000	0.010270  
2991.000000	0.010838  
2990.000000	0.011442  
2989.000000	0.012004  
2988.000000	0.012530  
2987.000000	0.013108  
2986.000000	0.013826  
2985.000000	0.014713  
2984.000000	0.015728  
2983.000000	0.016823  
2982.000000	0.017997  
2981.000000	0.019296  
2980.000000	0.020769  
2979.000000	0.022436  
2978.000000	0.024306  
2977.000000	0.026427  
2976.000000	0.028880  
2975.000000	0.031743  
2974.000000	0.035035  
2973.000000	0.038709  
2972.000000	0.042680  
2971.000000	0.046885  
2970.000000	0.051343  
2969.000000	0.056154  
2968.000000	0.061401  
2967.000000	0.067018  
2966.000000	0.072775  
2965.000000	0.078422  
2964.000000	0.083851  
2963.000000	0.089095  
2962.000000	0.094192  
2961.000000	0.099090  
2960.000000	0.103677  
2959.000000	0.107835  
2958.000000	0.111441  
2957.000000	0.114345  
2956.000000	0.116419  
2955.000000	0.117592  
2954.000000	0.117853  
2953.000000	0.117225  
2952.000000	0.115791  
2951.000000	0.113727  
2950.000000	0.111289  
2949.000000	0.108751  
2948.000000	0.106348  
2947.000000	0.104250  
2946.000000	0.102597  
2945.000000	0.101538  
2944.000000	0.101232  
2943.000000	0.101807  
2942.000000	0.103324  
2941.000000	0.105790  
2940.000000	0.109186  
2939.000000	0.113481  
2938.000000	0.118605  
2937.000000	0.124431  
2936.000000	0.130798  
2935.000000	0.137549  
2934.000000	0.144574  
2933.000000	0.151850  
2932.000000	0.159419  
2931.000000	0.167297  
2930.000000	0.175365  
2929.000000	0.183386  
2928.000000	0.191093  
2927.000000	0.198246  
2926.000000	0.204625  
2925.000000	0.210031  
2924.000000	0.214275  
2923.000000	0.217117  
2922.000000	0.218278  
2921.000000	0.217650  
2920.000000	0.215477  
2919.000000	0.212220  
2918.000000	0.208228  
2917.000000	0.203627  
2916.000000	0.198500  
2915.000000	0.193017  
2914.000000	0.187368  
2913.000000	0.181668  
2912.000000	0.176022  
2911.000000	0.170611  
2910.000000	0.165615  
2909.000000	0.161054  
2908.000000	0.156748  
2907.000000	0.152460  
2906.000000	0.148065  
2905.000000	0.143616  
2904.000000	0.139270  
2903.000000	0.135153  
2902.000000	0.131278  
2901.000000	0.127559  
2900.000000	0.123894  
2899.000000	0.120230  
2898.000000	0.116566  
2897.000000	0.112938  
2896.000000	0.109395  
2895.000000	0.105971  
2894.000000	0.102640  
2893.000000	0.099315  
2892.000000	0.095922  
2891.000000	0.092473  
2890.000000	0.089091  
2889.000000	0.085944  
2888.000000	0.083170  
2887.000000	0.080823  
2886.000000	0.078882  
2885.000000	0.077307  
2884.000000	0.076100  
2883.000000	0.075315  
2882.000000	0.075027  
2881.000000	0.075293  
2880.000000	0.076170  
2879.000000	0.077733  
2878.000000	0.080045  
2877.000000	0.083057  
2876.000000	0.086554  
2875.000000	0.090185  
2874.000000	0.093551  
2873.000000	0.096307  
2872.000000	0.098243  
2871.000000	0.099336  
2870.000000	0.099745  
2869.000000	0.099749  
2868.000000	0.099668  
2867.000000	0.099803  
2866.000000	0.100400  
2865.000000	0.101632  
2864.000000	0.103583  
2863.000000	0.106236  
2862.000000	0.109498  
2861.000000	0.113271  
2860.000000	0.117488  
2859.000000	0.122076  
2858.000000	0.126850  
2857.000000	0.131470  
2856.000000	0.135492  
2855.000000	0.138437  
2854.000000	0.139847  
2853.000000	0.139394  
2852.000000	0.137015  
2851.000000	0.132955  
2850.000000	0.127621  
2849.000000	0.121393  
2848.000000	0.114558  
2847.000000	0.107380  
2846.000000	0.100140  
2845.000000	0.093068  
2844.000000	0.086245  
2843.000000	0.079625  
2842.000000	0.073165  
2841.000000	0.066904  
2840.000000	0.060948  
2839.000000	0.055402  
2838.000000	0.050344  
2837.000000	0.045824  
2836.000000	0.041830  
2835.000000	0.038271  
2834.000000	0.035043  
2833.000000	0.032109  
2832.000000	0.029509  
2831.000000	0.027283  
2830.000000	0.025402  
2829.000000	0.023780  
2828.000000	0.022333  
2827.000000	0.021020  
2826.000000	0.019836  
2825.000000	0.018780  
2824.000000	0.017842  
2823.000000	0.017013  
2822.000000	0.016297  
2821.000000	0.015685  
2820.000000	0.015135  
2819.000000	0.014589  
2818.000000	0.014026  
2817.000000	0.013474  
2816.000000	0.012968  
2815.000000	0.012504  
2814.000000	0.012056  
2813.000000	0.011614  
2812.000000	0.011190  
2811.000000	0.010794  
2810.000000	0.010435  
2809.000000	0.010135  
2808.000000	0.009927  
2807.000000	0.009821  
2806.000000	0.009771  
2805.000000	0.009696  
2804.000000	0.009526  
2803.000000	0.009244  
2802.000000	0.008898  
2801.000000	0.008575  
2800.000000	0.008338  
2799.000000	0.008190  
2798.000000	0.008081  
2797.000000	0.007975  
2796.000000	0.007873  
2795.000000	0.007777  
2794.000000	0.007647  
2793.000000	0.007416  
2792.000000	0.007060  
2791.000000	0.006655  
2790.000000	0.006330  
2789.000000	0.006160  
2788.000000	0.006116  
2787.000000	0.006107  
2786.000000	0.006071  
2785.000000	0.006007  
2784.000000	0.005930  
2783.000000	0.005837  
2782.000000	0.005719  
2781.000000	0.005606  
2780.000000	0.005546  
2779.000000	0.005548  
2778.000000	0.005551  
2777.000000	0.005471  
2776.000000	0.005274  
2775.000000	0.005011  
2774.000000	0.004778  
2773.000000	0.004658  
2772.000000	0.004658  
2771.000000	0.004718  
2770.000000	0.004762  
2769.000000	0.004751  
2768.000000	0.004689  
2767.000000	0.004600  
2766.000000	0.004510  
2765.000000	0.004456  
2764.000000	0.004470  
2763.000000	0.004545  
2762.000000	0.004616  
2761.000000	0.004614  
2760.000000	0.004529  
2759.000000	0.004422  
2758.000000	0.004356  
2757.000000	0.004349  
2756.000000	0.004374  
2755.000000	0.004403  
2754.000000	0.004423  
2753.000000	0.004426  
2752.000000	0.004402  
2751.000000	0.004347  
2750.000000	0.004283  
2749.000000	0.004239  
2748.000000	0.004224  
2747.000000	0.004208  
2746.000000	0.004162  
2745.000000	0.004102  
2744.000000	0.004078  
2743.000000	0.004124  
2742.000000	0.004223  
2741.000000	0.004341  
2740.000000	0.004459  
2739.000000	0.004575  
2738.000000	0.004665  
2737.000000	0.004708  
2736.000000	0.004725  
2735.000000	0.004779  
2734.000000	0.004901  
2733.000000	0.005041  
2732.000000	0.005106  
2731.000000	0.005062  
2730.000000	0.004966  
2729.000000	0.004914  
2728.000000	0.004952  
2727.000000	0.005024  
2726.000000	0.005026  
2725.000000	0.004904  
2724.000000	0.004712  
2723.000000	0.004565  
2722.000000	0.004528  
2721.000000	0.004580  
2720.000000	0.004658  
2719.000000	0.004726  
2718.000000	0.004760  
2717.000000	0.004736  
2716.000000	0.004643  
2715.000000	0.004512  
2714.000000	0.004389  
2713.000000	0.004284  
2712.000000	0.004184  
2711.000000	0.004088  
2710.000000	0.004020  
2709.000000	0.003989  
2708.000000	0.003978  
2707.000000	0.003978  
2706.000000	0.003987  
2705.000000	0.003990  
2704.000000	0.003947  
2703.000000	0.003843  
2702.000000	0.003709  
2701.000000	0.003592  
2700.000000	0.003503  
2699.000000	0.003431  
2698.000000	0.003390  
2697.000000	0.003415  
2696.000000	0.003515  
2695.000000	0.003648  
2694.000000	0.003753  
2693.000000	0.003793  
2692.000000	0.003777  
2691.000000	0.003749  
2690.000000	0.003770  
2689.000000	0.003880  
2688.000000	0.004060  
2687.000000	0.004227  
2686.000000	0.004298  
2685.000000	0.004263  
2684.000000	0.004197  
2683.000000	0.004184  
2682.000000	0.004239  
2681.000000	0.004316  
2680.000000	0.004362  
2679.000000	0.004361  
2678.000000	0.004335  
2677.000000	0.004326  
2676.000000	0.004374  
2675.000000	0.004484  
2674.000000	0.004602  
2673.000000	0.004647  
2672.000000	0.004580  
2671.000000	0.004434  
2670.000000	0.004281  
2669.000000	0.004189  
2668.000000	0.004202  
2667.000000	0.004325  
2666.000000	0.004508  
2665.000000	0.004657  
2664.000000	0.004701  
2663.000000	0.004635  
2662.000000	0.004485  
2661.000000	0.004276  
2660.000000	0.004041  
2659.000000	0.003846  
2658.000000	0.003743  
2657.000000	0.003719  
2656.000000	0.003724  
2655.000000	0.003734  
2654.000000	0.003753  
2653.000000	0.003769  
2652.000000	0.003763  
2651.000000	0.003761  
2650.000000	0.003821  
2649.000000	0.003939  
2648.000000	0.004033  
2647.000000	0.004034  
2646.000000	0.003956  
2645.000000	0.003861  
2644.000000	0.003783  
2643.000000	0.003733  
2642.000000	0.003726  
2641.000000	0.003767  
2640.000000	0.003816  
2639.000000	0.003816  
2638.000000	0.003750  
2637.000000	0.003643  
2636.000000	0.003543  
2635.000000	0.003497  
2634.000000	0.003542  
2633.000000	0.003665  
2632.000000	0.003786  
2631.000000	0.003810  
2630.000000	0.003708  
2629.000000	0.003542  
2628.000000	0.003414  
2627.000000	0.003400  
2626.000000	0.003505  
2625.000000	0.003648  
2624.000000	0.003707  
2623.000000	0.003619  
2622.000000	0.003425  
2621.000000	0.003221  
2620.000000	0.003067  
2619.000000	0.002977  
2618.000000	0.002956  
2617.000000	0.003018  
2616.000000	0.003152  
2615.000000	0.003320  
2614.000000	0.003485  
2613.000000	0.003621  
2612.000000	0.003708  
2611.000000	0.003741  
2610.000000	0.003743  
2609.000000	0.003747  
2608.000000	0.003762  
2607.000000	0.003771  
2606.000000	0.003765  
2605.000000	0.003737  
2604.000000	0.003673  
2603.000000	0.003572  
2602.000000	0.003484  
2601.000000	0.003490  
2600.000000	0.003606  
2599.000000	0.003741  
2598.000000	0.003762  
2597.000000	0.003621  
2596.000000	0.003393  
2595.000000	0.003196  
2594.000000	0.003064  
2593.000000	0.002929  
2592.000000	0.002728  
2591.000000	0.002513  
2590.000000	0.002402  
2589.000000	0.002441  
2588.000000	0.002542  
2587.000000	0.002604  
2586.000000	0.002624  
2585.000000	0.002658  
2584.000000	0.002703  
2583.000000	0.002701  
2582.000000	0.002626  
2581.000000	0.002531  
2580.000000	0.002483  
2579.000000	0.002514  
2578.000000	0.002626  
2577.000000	0.002786  
2576.000000	0.002895  
2575.000000	0.002841  
2574.000000	0.002620  
2573.000000	0.002391  
2572.000000	0.002328  
2571.000000	0.002433  
2570.000000	0.002542  
2569.000000	0.002504  
2568.000000	0.002317  
2567.000000	0.002089  
2566.000000	0.001912  
2565.000000	0.001808  
2564.000000	0.001772  
2563.000000	0.001803  
2562.000000	0.001898  
2561.000000	0.002030  
2560.000000	0.002155  
2559.000000	0.002241  
2558.000000	0.002285  
2557.000000	0.002308  
2556.000000	0.002330  
2555.000000	0.002359  
2554.000000	0.002385  
2553.000000	0.002407  
2552.000000	0.002464  
2551.000000	0.002594  
2550.000000	0.002780  
2549.000000	0.002929  
2548.000000	0.002948  
2547.000000	0.002796  
2546.000000	0.002489  
2545.000000	0.002082  
2544.000000	0.001699  
2543.000000	0.001502  
2542.000000	0.001559  
2541.000000	0.001743  
2540.000000	0.001854  
2539.000000	0.001847  
2538.000000	0.001853  
2537.000000	0.001972  
2536.000000	0.002114  
2535.000000	0.002112  
2534.000000	0.001937  
2533.000000	0.001720  
2532.000000	0.001603  
2531.000000	0.001613  
2530.000000	0.001675  
2529.000000	0.001698  
2528.000000	0.001656  
2527.000000	0.001615  
2526.000000	0.001665  
2525.000000	0.001822  
2524.000000	0.002010  
2523.000000	0.002149  
2522.000000	0.002221  
2521.000000	0.002232  
2520.000000	0.002163  
2519.000000	0.002032  
2518.000000	0.001950  
2517.000000	0.002027  
2516.000000	0.002231  
2515.000000	0.002415  
2514.000000	0.002470  
2513.000000	0.002404  
2512.000000	0.002270  
2511.000000	0.002100  
2510.000000	0.001934  
2509.000000	0.001834  
2508.000000	0.001842  
2507.000000	0.001938  
2506.000000	0.002072  
2505.000000	0.002190  
2504.000000	0.002228  
2503.000000	0.002138  
2502.000000	0.001962  
2501.000000	0.001839  
2500.000000	0.001872  
2499.000000	0.002003  
2498.000000	0.002055  
2497.000000	0.001897  
2496.000000	0.001568  
2495.000000	0.001238  
2494.000000	0.001093  
2493.000000	0.001213  
2492.000000	0.001534  
2491.000000	0.001906  
2490.000000	0.002196  
2489.000000	0.002354  
2488.000000	0.002396  
2487.000000	0.002338  
2486.000000	0.002175  
2485.000000	0.001908  
2484.000000	0.001597  
2483.000000	0.001369  
2482.000000	0.001351  
2481.000000	0.001581  
2480.000000	0.001959  
2479.000000	0.002300  
2478.000000	0.002452  
2477.000000	0.002385  
2476.000000	0.002190  
2475.000000	0.001991  
2474.000000	0.001846  
2473.000000	0.001728  
2472.000000	0.001595  
2471.000000	0.001453  
2470.000000	0.001333  
2469.000000	0.001242  
2468.000000	0.001189  
2467.000000	0.001233  
2466.000000	0.001431  
2465.000000	0.001710  
2464.000000	0.001896  
2463.000000	0.001889  
2462.000000	0.001770  
2461.000000	0.001672  
2460.000000	0.001639  
2459.000000	0.001664  
2458.000000	0.001784  
2457.000000	0.002006  
2456.000000	0.002189  
2455.000000	0.002150  
2454.000000	0.001885  
2453.000000	0.001584  
2452.000000	0.001389  
2451.000000	0.001245  
2450.000000	0.001065  
2449.000000	0.000912  
2448.000000	0.000935  
2447.000000	0.001165  
2446.000000	0.001475  
2445.000000	0.001709  
2444.000000	0.001806  
2443.000000	0.001806  
2442.000000	0.001800  
2441.000000	0.001849  
2440.000000	0.001919  
2439.000000	0.001919  
2438.000000	0.001823  
2437.000000	0.001723  
2436.000000	0.001717  
2435.000000	0.001770  
2434.000000	0.001755  
2433.000000	0.001625  
2432.000000	0.001479  
2431.000000	0.001435  
2430.000000	0.001501  
2429.000000	0.001586  
2428.000000	0.001614  
2427.000000	0.001588  
2426.000000	0.001566  
2425.000000	0.001592  
2424.000000	0.001654  
2423.000000	0.001700  
2422.000000	0.001684  
2421.000000	0.001612  
2420.000000	0.001540  
2419.000000	0.001522  
2418.000000	0.001569  
2417.000000	0.001644  
2416.000000	0.001699  
2415.000000	0.001726  
2414.000000	0.001756  
2413.000000	0.001824  
2412.000000	0.001916  
2411.000000	0.001984  
2410.000000	0.002000  
2409.000000	0.001993  
2408.000000	0.002012  
2407.000000	0.002049  
2406.000000	0.002033  
2405.000000	0.001911  
2404.000000	0.001707  
2403.000000	0.001505  
2402.000000	0.001364  
2401.000000	0.001281  
2400.000000	0.001235  
2399.000000	0.001252  
2398.000000	0.001381  
2397.000000	0.001610  
2396.000000	0.001842  
2395.000000	0.001971  
2394.000000	0.001981  
2393.000000	0.001954  
2392.000000	0.001983  
2391.000000	0.002096  
2390.000000	0.002254  
2389.000000	0.002399  
2388.000000	0.002510  
2387.000000	0.002648  
2386.000000	0.002916  
2385.000000	0.003344  
2384.000000	0.003800  
2383.000000	0.004055  
2382.000000	0.003954  
2381.000000	0.003546  
2380.000000	0.003021  
2379.000000	0.002548  
2378.000000	0.002164  
2377.000000	0.001806  
2376.000000	0.001444  
2375.000000	0.001170  
2374.000000	0.001144  
2373.000000	0.001446  
2372.000000	0.001997  
2371.000000	0.002640  
2370.000000	0.003232  
2369.000000	0.003638  
2368.000000	0.003714  
2367.000000	0.003438  
2366.000000	0.003004  
2365.000000	0.002662  
2364.000000	0.002462  
2363.000000	0.002332  
2362.000000	0.002269  
2361.000000	0.002351  
2360.000000	0.002617  
2359.000000	0.002917  
2358.000000	0.003021  
2357.000000	0.002853  
2356.000000	0.002478  
2355.000000	0.002070  
2354.000000	0.001712  
2353.000000	0.001551  
2352.000000	0.001731  
2351.000000	0.002170  
2350.000000	0.002605  
2349.000000	0.002729  
2348.000000	0.002494  
2347.000000	0.002145  
2346.000000	0.002118  
2345.000000	0.002703  
2344.000000	0.003525  
2343.000000	0.003975  
2342.000000	0.003659  
2341.000000	0.002927  
2340.000000	0.002476  
2339.000000	0.002500  
2338.000000	0.002583  
2337.000000	0.002301  
2336.000000	0.001846  
2335.000000	0.001586  
2334.000000	0.001611  
2333.000000	0.001647  
2332.000000	0.001679  
2331.000000	0.001864  
2330.000000	0.002439  
2329.000000	0.003142  
2328.000000	0.003724  
2327.000000	0.003991  
2326.000000	0.004008  
2325.000000	0.003875  
2324.000000	0.003613  
2323.000000	0.003236  
2322.000000	0.002785  
2321.000000	0.002441  
2320.000000	0.002407  
2319.000000	0.002683  
2318.000000	0.003085  
2317.000000	0.003262  
2316.000000	0.003105  
2315.000000	0.002706  
2314.000000	0.002471  
2313.000000	0.002625  
2312.000000	0.003150  
2311.000000	0.003673  
2310.000000	0.003979  
2309.000000	0.004056  
2308.000000	0.004105  
2307.000000	0.004142  
2306.000000	0.004086  
2305.000000	0.003846  
2304.000000	0.003525  
2303.000000	0.003245  
2302.000000	0.003086  
2301.000000	0.002981  
2300.000000	0.002917  
2299.000000	0.002924  
2298.000000	0.003094  
2297.000000	0.003373  
2296.000000	0.003601  
2295.000000	0.003605  
2294.000000	0.003410  
2293.000000	0.003170  
2292.000000	0.003010  
2291.000000	0.002908  
2290.000000	0.002795  
2289.000000	0.002668  
2288.000000	0.002523  
2287.000000	0.002284  
2286.000000	0.001884  
2285.000000	0.001445  
2284.000000	0.001214  
2283.000000	0.001288  
2282.000000	0.001485  
2281.000000	0.001565  
2280.000000	0.001516  
2279.000000	0.001523  
2278.000000	0.001685  
2277.000000	0.001890  
2276.000000	0.002011  
2275.000000	0.002110  
2274.000000	0.002364  
2273.000000	0.002796  
2272.000000	0.003201  
2271.000000	0.003361  
2270.000000	0.003272  
2269.000000	0.003073  
2268.000000	0.002824  
2267.000000	0.002465  
2266.000000	0.002018  
2265.000000	0.001675  
2264.000000	0.001610  
2263.000000	0.001761  
2262.000000	0.001935  
2261.000000	0.002051  
2260.000000	0.002161  
2259.000000	0.002289  
2258.000000	0.002382  
2257.000000	0.002453  
2256.000000	0.002578  
2255.000000	0.002719  
2254.000000	0.002691  
2253.000000	0.002420  
2252.000000	0.002104  
2251.000000	0.001986  
2250.000000	0.002048  
2249.000000	0.002058  
2248.000000	0.001860  
2247.000000	0.001496  
2246.000000	0.001082  
2245.000000	0.000736  
2244.000000	0.000611  
2243.000000	0.000836  
2242.000000	0.001339  
2241.000000	0.001833  
2240.000000	0.002058  
2239.000000	0.001997  
2238.000000	0.001803  
2237.000000	0.001604  
2236.000000	0.001441  
2235.000000	0.001334  
2234.000000	0.001316  
2233.000000	0.001400  
2232.000000	0.001545  
2231.000000	0.001658  
2230.000000	0.001639  
2229.000000	0.001463  
2228.000000	0.001252  
2227.000000	0.001199  
2226.000000	0.001360  
2225.000000	0.001531  
2224.000000	0.001409  
2223.000000	0.000907  
2222.000000	0.000290  
2221.000000	-0.000023 
2220.000000	0.000189  
2219.000000	0.000771  
2218.000000	0.001347  
2217.000000	0.001674  
2216.000000	0.001840  
2215.000000	0.002085  
2214.000000	0.002472  
2213.000000	0.002814  
2212.000000	0.002924  
2211.000000	0.002825  
2210.000000	0.002624  
2209.000000	0.002307  
2208.000000	0.001804  
2207.000000	0.001213  
2206.000000	0.000817  
2205.000000	0.000844  
2204.000000	0.001259  
2203.000000	0.001848  
2202.000000	0.002402  
2201.000000	0.002796  
2200.000000	0.003001  
2199.000000	0.003097  
2198.000000	0.003205  
2197.000000	0.003341  
2196.000000	0.003362  
2195.000000	0.003121  
2194.000000	0.002651  
2193.000000	0.002138  
2192.000000	0.001728  
2191.000000	0.001429  
2190.000000	0.001215  
2189.000000	0.001145  
2188.000000	0.001296  
2187.000000	0.001605  
2186.000000	0.001832  
2185.000000	0.001738  
2184.000000	0.001346  
2183.000000	0.000987  
2182.000000	0.001049  
2181.000000	0.001633  
2180.000000	0.002453  
2179.000000	0.003099  
2178.000000	0.003370  
2177.000000	0.003369  
2176.000000	0.003295  
2175.000000	0.003175  
2174.000000	0.002838  
2173.000000	0.002217  
2172.000000	0.001591  
2171.000000	0.001396  
2170.000000	0.001723  
2169.000000	0.002104  
2168.000000	0.001979  
2167.000000	0.001361  
2166.000000	0.000858  
2165.000000	0.000981  
2164.000000	0.001559  
2163.000000	0.002000  
2162.000000	0.001991  
2161.000000	0.001732  
2160.000000	0.001551  
2159.000000	0.001524  
2158.000000	0.001561  
2157.000000	0.001653  
2156.000000	0.001831  
2155.000000	0.002031  
2154.000000	0.002150  
2153.000000	0.002198  
2152.000000	0.002285  
2151.000000	0.002433  
2150.000000	0.002484  
2149.000000	0.002240  
2148.000000	0.001708  
2147.000000	0.001172  
2146.000000	0.000978  
2145.000000	0.001238  
2144.000000	0.001756  
2143.000000	0.002201  
2142.000000	0.002341  
2141.000000	0.002120  
2140.000000	0.001642  
2139.000000	0.001129  
2138.000000	0.000853  
2137.000000	0.000969  
2136.000000	0.001360  
2135.000000	0.001690  
2134.000000	0.001685  
2133.000000	0.001369  
2132.000000	0.001026  
2131.000000	0.000944  
2130.000000	0.001196  
2129.000000	0.001625  
2128.000000	0.002000  
2127.000000	0.002186  
2126.000000	0.002166  
2125.000000	0.001994  
2124.000000	0.001757  
2123.000000	0.001590  
2122.000000	0.001634  
2121.000000	0.001912  
2120.000000	0.002241  
2119.000000	0.002365  
2118.000000	0.002195  
2117.000000	0.001920  
2116.000000	0.001843  
2115.000000	0.002077  
2114.000000	0.002401  
2113.000000	0.002454  
2112.000000	0.002099  
2111.000000	0.001574  
2110.000000	0.001277  
2109.000000	0.001373  
2108.000000	0.001653  
2107.000000	0.001797  
2106.000000	0.001686  
2105.000000	0.001438  
2104.000000	0.001192  
2103.000000	0.000984  
2102.000000	0.000807  
2101.000000	0.000680  
2100.000000	0.000591  
2099.000000	0.000475  
2098.000000	0.000303  
2097.000000	0.000171  
2096.000000	0.000215  
2095.000000	0.000452  
2094.000000	0.000769  
2093.000000	0.001045  
2092.000000	0.001231  
2091.000000	0.001305  
2090.000000	0.001238  
2089.000000	0.001068  
2088.000000	0.000965  
2087.000000	0.001121  
2086.000000	0.001552  
2085.000000	0.002010  
2084.000000	0.002171  
2083.000000	0.001929  
2082.000000	0.001490  
2081.000000	0.001199  
2080.000000	0.001252  
2079.000000	0.001562  
2078.000000	0.001858  
2077.000000	0.001910  
2076.000000	0.001706  
2075.000000	0.001458  
2074.000000	0.001411  
2073.000000	0.001611  
2072.000000	0.001880  
2071.000000	0.002025  
2070.000000	0.002019  
2069.000000	0.001942  
2068.000000	0.001816  
2067.000000	0.001620  
2066.000000	0.001440  
2065.000000	0.001453  
2064.000000	0.001710  
2063.000000	0.002043  
2062.000000	0.002247  
2061.000000	0.002261  
2060.000000	0.002133  
2059.000000	0.001910  
2058.000000	0.001658  
2057.000000	0.001504  
2056.000000	0.001503  
2055.000000	0.001509  
2054.000000	0.001314  
2053.000000	0.000921  
2052.000000	0.000545  
2051.000000	0.000368  
2050.000000	0.000418  
2049.000000	0.000701  
2048.000000	0.001235  
2047.000000	0.001854  
2046.000000	0.002147  
2045.000000	0.001839  
2044.000000	0.001161  
2043.000000	0.000646  
2042.000000	0.000584  
2041.000000	0.000832  
2040.000000	0.001158  
2039.000000	0.001535  
2038.000000	0.001984  
2037.000000	0.002329  
2036.000000	0.002344  
2035.000000	0.002092  
2034.000000	0.001907  
2033.000000	0.002006  
2032.000000	0.002259  
2031.000000	0.002364  
2030.000000	0.002129  
2029.000000	0.001553  
2028.000000	0.000782  
2027.000000	0.000047  
2026.000000	-0.000428 
2025.000000	-0.000580 
2024.000000	-0.000502 
2023.000000	-0.000241 
2022.000000	0.000286  
2021.000000	0.001060  
2020.000000	0.001751  
2019.000000	0.001964  
2018.000000	0.001668  
2017.000000	0.001207  
2016.000000	0.000865  
2015.000000	0.000650  
2014.000000	0.000570  
2013.000000	0.000808  
2012.000000	0.001351  
2011.000000	0.001670  
2010.000000	0.001167  
2009.000000	-0.000052 
2008.000000	-0.001134 
2007.000000	-0.001371 
2006.000000	-0.000873 
2005.000000	-0.000234 
2004.000000	0.000206  
2003.000000	0.000554  
2002.000000	0.001016  
2001.000000	0.001605  
2000.000000	0.002130  
1999.000000	0.002309  
1998.000000	0.001958  
1997.000000	0.001206  
1996.000000	0.000509  
1995.000000	0.000276  
1994.000000	0.000518  
1993.000000	0.000920  
1992.000000	0.001235  
1991.000000	0.001468  
1990.000000	0.001685  
1989.000000	0.001860  
1988.000000	0.001975  
1987.000000	0.002084  
1986.000000	0.002191  
1985.000000	0.002227  
1984.000000	0.002225  
1983.000000	0.002325  
1982.000000	0.002506  
1981.000000	0.002500  
1980.000000	0.002126  
1979.000000	0.001596  
1978.000000	0.001253  
1977.000000	0.001099  
1976.000000	0.000855  
1975.000000	0.000435  
1974.000000	0.000035  
1973.000000	-0.000208 
1972.000000	-0.000348 
1971.000000	-0.000399 
1970.000000	-0.000243 
1969.000000	0.000149  
1968.000000	0.000602  
1967.000000	0.000942  
1966.000000	0.001184  
1965.000000	0.001400  
1964.000000	0.001565  
1963.000000	0.001632  
1962.000000	0.001604  
1961.000000	0.001482  
1960.000000	0.001261  
1959.000000	0.001054  
1958.000000	0.001040  
1957.000000	0.001204  
1956.000000	0.001259  
1955.000000	0.000973  
1954.000000	0.000495  
1953.000000	0.000203  
1952.000000	0.000301  
1951.000000	0.000690  
1950.000000	0.001155  
1949.000000	0.001520  
1948.000000	0.001679  
1947.000000	0.001633  
1946.000000	0.001534  
1945.000000	0.001548  
1944.000000	0.001655  
1943.000000	0.001683  
1942.000000	0.001563  
1941.000000	0.001411  
1940.000000	0.001315  
1939.000000	0.001234  
1938.000000	0.001174  
1937.000000	0.001272  
1936.000000	0.001593  
1935.000000	0.001974  
1934.000000	0.002192  
1933.000000	0.002222  
1932.000000	0.002220  
1931.000000	0.002267  
1930.000000	0.002276  
1929.000000	0.002150  
1928.000000	0.001913  
1927.000000	0.001655  
1926.000000	0.001420  
1925.000000	0.001240  
1924.000000	0.001172  
1923.000000	0.001266  
1922.000000	0.001499  
1921.000000	0.001809  
1920.000000	0.002127  
1919.000000	0.002360  
1918.000000	0.002413  
1917.000000	0.002328  
1916.000000	0.002259  
1915.000000	0.002240  
1914.000000	0.002125  
1913.000000	0.001796  
1912.000000	0.001369  
1911.000000	0.001102  
1910.000000	0.001096  
1909.000000	0.001212  
1908.000000	0.001290  
1907.000000	0.001329  
1906.000000	0.001383  
1905.000000	0.001431  
1904.000000	0.001431  
1903.000000	0.001424  
1902.000000	0.001499  
1901.000000	0.001665  
1900.000000	0.001830  
1899.000000	0.001902  
1898.000000	0.001869  
1897.000000	0.001789  
1896.000000	0.001729  
1895.000000	0.001735  
1894.000000	0.001813  
1893.000000	0.001935  
1892.000000	0.002062  
1891.000000	0.002161  
1890.000000	0.002204  
1889.000000	0.002193  
1888.000000	0.002163  
1887.000000	0.002117  
1886.000000	0.002028  
1885.000000	0.001896  
1884.000000	0.001777  
1883.000000	0.001713  
1882.000000	0.001685  
1881.000000	0.001654  
1880.000000	0.001615  
1879.000000	0.001576  
1878.000000	0.001513  
1877.000000	0.001423  
1876.000000	0.001392  
1875.000000	0.001527  
1874.000000	0.001806  
1873.000000	0.002073  
1872.000000	0.002192  
1871.000000	0.002152  
1870.000000	0.002004  
1869.000000	0.001791  
1868.000000	0.001605  
1867.000000	0.001557  
1866.000000	0.001638  
1865.000000	0.001746  
1864.000000	0.001815  
1863.000000	0.001856  
1862.000000	0.001889  
1861.000000	0.001882  
1860.000000	0.001826  
1859.000000	0.001804  
1858.000000	0.001903  
1857.000000	0.002080  
1856.000000	0.002188  
1855.000000	0.002121  
1854.000000	0.001907  
1853.000000	0.001677  
1852.000000	0.001568  
1851.000000	0.001618  
1850.000000	0.001725  
1849.000000	0.001718  
1848.000000	0.001536  
1847.000000	0.001317  
1846.000000	0.001272  
1845.000000	0.001467  
1844.000000	0.001742  
1843.000000	0.001905  
1842.000000	0.001920  
1841.000000	0.001860  
1840.000000	0.001817  
1839.000000	0.001857  
1838.000000	0.001974  
1837.000000	0.002070  
1836.000000	0.002051  
1835.000000	0.001935  
1834.000000	0.001813  
1833.000000	0.001707  
1832.000000	0.001550  
1831.000000	0.001336  
1830.000000	0.001204  
1829.000000	0.001290  
1828.000000	0.001521  
1827.000000	0.001723  
1826.000000	0.001813  
1825.000000	0.001803  
1824.000000	0.001768  
1823.000000	0.001795  
1822.000000	0.001899  
1821.000000	0.001977  
1820.000000	0.001886  
1819.000000	0.001620  
1818.000000	0.001373  
1817.000000	0.001344  
1816.000000	0.001519  
1815.000000	0.001716  
1814.000000	0.001795  
1813.000000	0.001748  
1812.000000	0.001647  
1811.000000	0.001592  
1810.000000	0.001655  
1809.000000	0.001823  
1808.000000	0.002004  
1807.000000	0.002103  
1806.000000	0.002087  
1805.000000	0.002000  
1804.000000	0.001925  
1803.000000	0.001929  
1802.000000	0.002020  
1801.000000	0.002137  
1800.000000	0.002228  
1799.000000	0.002285  
1798.000000	0.002312  
1797.000000	0.002295  
1796.000000	0.002241  
1795.000000	0.002182  
1794.000000	0.002143  
1793.000000	0.002095  
1792.000000	0.002002  
1791.000000	0.001908  
1790.000000	0.001878  
1789.000000	0.001902  
1788.000000	0.001935  
1787.000000	0.001957  
1786.000000	0.001982  
1785.000000	0.002020  
1784.000000	0.002037  
1783.000000	0.001995  
1782.000000	0.001912  
1781.000000	0.001858  
1780.000000	0.001905  
1779.000000	0.002049  
1778.000000	0.002213  
1777.000000	0.002311  
1776.000000	0.002304  
1775.000000	0.002212  
1774.000000	0.002091  
1773.000000	0.001979  
1772.000000	0.001875  
1771.000000	0.001795  
1770.000000	0.001779  
1769.000000	0.001853  
1768.000000	0.001987  
1767.000000	0.002112  
1766.000000	0.002190  
1765.000000	0.002235  
1764.000000	0.002287  
1763.000000	0.002367  
1762.000000	0.002482  
1761.000000	0.002631  
1760.000000	0.002780  
1759.000000	0.002881  
1758.000000	0.002935  
1757.000000	0.002992  
1756.000000	0.003094  
1755.000000	0.003243  
1754.000000	0.003443  
1753.000000	0.003751  
1752.000000	0.004229  
1751.000000	0.004870  
1750.000000	0.005662  
1749.000000	0.006652  
1748.000000	0.007842  
1747.000000	0.009143  
1746.000000	0.010465  
1745.000000	0.011730  
1744.000000	0.012785  
1743.000000	0.013437  
1742.000000	0.013593  
1741.000000	0.013244  
1740.000000	0.012394  
1739.000000	0.011222  
1738.000000	0.010046  
1737.000000	0.009005  
1736.000000	0.007998  
1735.000000	0.006876  
1734.000000	0.005754  
1733.000000	0.004972  
1732.000000	0.004501  
1731.000000	0.004138  
1730.000000	0.003851  
1729.000000	0.003683  
1728.000000	0.003618  
1727.000000	0.003586  
1726.000000	0.003538  
1725.000000	0.003447  
1724.000000	0.003306  
1723.000000	0.003136  
1722.000000	0.002984  
1721.000000	0.002870  
1720.000000	0.002794  
1719.000000	0.002745  
1718.000000	0.002703  
1717.000000	0.002639  
1716.000000	0.002575  
1715.000000	0.002546  
1714.000000	0.002557  
1713.000000	0.002576  
1712.000000	0.002559  
1711.000000	0.002498  
1710.000000	0.002432  
1709.000000	0.002396  
1708.000000	0.002393  
1707.000000	0.002432  
1706.000000	0.002512  
1705.000000	0.002604  
1704.000000	0.002690  
1703.000000	0.002784  
1702.000000	0.002879  
1701.000000	0.002872  
1700.000000	0.002699  
1699.000000	0.002572  
1698.000000	0.002564  
1697.000000	0.002595  
1696.000000	0.002606  
1695.000000	0.002647  
1694.000000	0.002697  
1693.000000	0.002668  
1692.000000	0.002581  
1691.000000	0.002507  
1690.000000	0.002500  
1689.000000	0.002549  
1688.000000	0.002595  
1687.000000	0.002617  
1686.000000	0.002637  
1685.000000	0.002666  
1684.000000	0.002639  
1683.000000	0.002631  
1682.000000	0.002671  
1681.000000	0.002711  
1680.000000	0.002720  
1679.000000	0.002681  
1678.000000	0.002582  
1677.000000	0.002433  
1676.000000	0.002284  
1675.000000	0.002229  
1674.000000	0.002323  
1673.000000	0.002470  
1672.000000	0.002570  
1671.000000	0.002605  
1670.000000	0.002604  
1669.000000	0.002621  
1668.000000	0.002666  
1667.000000	0.002693  
1666.000000	0.002707  
1665.000000	0.002746  
1664.000000	0.002810  
1663.000000	0.002844  
1662.000000	0.002834  
1661.000000	0.002831  
1660.000000	0.002861  
1659.000000	0.002891  
1658.000000	0.002877  
1657.000000	0.002798  
1656.000000	0.002696  
1655.000000	0.002633  
1654.000000	0.002635  
1653.000000	0.002699  
1652.000000	0.002963  
1651.000000	0.003125  
1650.000000	0.003124  
1649.000000	0.003132  
1648.000000	0.003178  
1647.000000	0.003101  
1646.000000	0.002904  
1645.000000	0.002749  
1644.000000	0.002642  
1643.000000	0.002579  
1642.000000	0.002592  
1641.000000	0.002657  
1640.000000	0.002694  
1639.000000	0.002671  
1638.000000	0.002643  
1637.000000	0.002674  
1636.000000	0.002721  
1635.000000	0.002737  
1634.000000	0.002759  
1633.000000	0.002773  
1632.000000	0.002778  
1631.000000	0.002784  
1630.000000	0.002793  
1629.000000	0.002806  
1628.000000	0.002815  
1627.000000	0.002819  
1626.000000	0.002840  
1625.000000	0.002910  
1624.000000	0.003016  
1623.000000	0.003105  
1622.000000	0.003170  
1621.000000	0.003246  
1620.000000	0.003343  
1619.000000	0.003453  
1618.000000	0.003553  
1617.000000	0.003626  
1616.000000	0.003697  
1615.000000	0.003777  
1614.000000	0.003847  
1613.000000	0.003929  
1612.000000	0.004031  
1611.000000	0.004131  
1610.000000	0.004218  
1609.000000	0.004298  
1608.000000	0.004350  
1607.000000	0.004335  
1606.000000	0.004256  
1605.000000	0.004162  
1604.000000	0.004078  
1603.000000	0.003986  
1602.000000	0.003880  
1601.000000	0.003772  
1600.000000	0.003659  
1599.000000	0.003517  
1598.000000	0.003364  
1597.000000	0.003258  
1596.000000	0.003236  
1595.000000	0.003276  
1594.000000	0.003339  
1593.000000	0.003410  
1592.000000	0.003493  
1591.000000	0.003572  
1590.000000	0.003617  
1589.000000	0.003612  
1588.000000	0.003555  
1587.000000	0.003464  
1586.000000	0.003378  
1585.000000	0.003336  
1584.000000	0.003340  
1583.000000	0.003358  
1582.000000	0.003364  
1581.000000	0.003358  
1580.000000	0.003359  
1579.000000	0.003390  
1578.000000	0.003443  
1577.000000	0.003438  
1576.000000	0.003306  
1575.000000	0.003167  
1574.000000	0.003149  
1573.000000	0.003261  
1572.000000	0.003427  
1571.000000	0.003516  
1570.000000	0.003448  
1569.000000	0.003334  
1568.000000	0.003309  
1567.000000	0.003321  
1566.000000	0.003287  
1565.000000	0.003186  
1564.000000	0.003025  
1563.000000	0.002829  
1562.000000	0.002647  
1561.000000	0.002575  
1560.000000	0.002712  
1559.000000	0.002776  
1558.000000	0.002710  
1557.000000	0.002874  
1556.000000	0.003135  
1555.000000	0.003392  
1554.000000	0.003596  
1553.000000	0.003675  
1552.000000	0.003583  
1551.000000	0.003364  
1550.000000	0.003142  
1549.000000	0.003037  
1548.000000	0.003045  
1547.000000	0.003098  
1546.000000	0.003186  
1545.000000	0.003312  
1544.000000	0.003404  
1543.000000	0.003437  
1542.000000	0.003500  
1541.000000	0.003622  
1540.000000	0.003639  
1539.000000	0.003608  
1538.000000	0.003667  
1537.000000	0.003744  
1536.000000	0.003800  
1535.000000	0.003815  
1534.000000	0.003742  
1533.000000	0.003595  
1532.000000	0.003488  
1531.000000	0.003457  
1530.000000	0.003464  
1529.000000	0.003484  
1528.000000	0.003515  
1527.000000	0.003583  
1526.000000	0.003726  
1525.000000	0.003910  
1524.000000	0.004034  
1523.000000	0.004063  
1522.000000	0.004086  
1521.000000	0.004203  
1520.000000	0.004380  
1519.000000	0.004490  
1518.000000	0.004539  
1517.000000	0.004596  
1516.000000	0.004692  
1515.000000	0.004837  
1514.000000	0.005040  
1513.000000	0.005287  
1512.000000	0.005493  
1511.000000	0.005583  
1510.000000	0.005617  
1509.000000	0.005764  
1508.000000	0.006103  
1507.000000	0.006479  
1506.000000	0.006884  
1505.000000	0.007330  
1504.000000	0.007539  
1503.000000	0.007520  
1502.000000	0.007438  
1501.000000	0.007389  
1500.000000	0.007366  
1499.000000	0.007414  
1498.000000	0.007708  
1497.000000	0.008283  
1496.000000	0.008814  
1495.000000	0.009066  
1494.000000	0.009182  
1493.000000	0.009330  
1492.000000	0.009463  
1491.000000	0.009487  
1490.000000	0.009520  
1489.000000	0.009746  
1488.000000	0.010105  
1487.000000	0.010467  
1486.000000	0.010858  
1485.000000	0.011346  
1484.000000	0.011903  
1483.000000	0.012520  
1482.000000	0.013296  
1481.000000	0.014271  
1480.000000	0.015321  
1479.000000	0.016414  
1478.000000	0.017764  
1477.000000	0.019545  
1476.000000	0.021636  
1475.000000	0.024062  
1474.000000	0.027571  
1473.000000	0.033038  
1472.000000	0.039950  
1471.000000	0.046895  
1470.000000	0.053331  
1469.000000	0.059283  
1468.000000	0.064585  
1467.000000	0.069069  
1466.000000	0.072881  
1465.000000	0.076138  
1464.000000	0.078615  
1463.000000	0.080261  
1462.000000	0.081415  
1461.000000	0.082377  
1460.000000	0.083263  
1459.000000	0.084180  
1458.000000	0.085120  
1457.000000	0.085375  
1456.000000	0.084261  
1455.000000	0.082229  
1454.000000	0.079825  
1453.000000	0.077146  
1452.000000	0.074250  
1451.000000	0.071425  
1450.000000	0.068852  
1449.000000	0.066305  
1448.000000	0.063494  
1447.000000	0.060508  
1446.000000	0.057537  
1445.000000	0.054475  
1444.000000	0.051160  
1443.000000	0.047660  
1442.000000	0.044208  
1441.000000	0.041007  
1440.000000	0.038127  
1439.000000	0.035450  
1438.000000	0.032677  
1437.000000	0.029660  
1436.000000	0.026869  
1435.000000	0.024793  
1434.000000	0.023168  
1433.000000	0.021539  
1432.000000	0.019779  
1431.000000	0.018037  
1430.000000	0.016471  
1429.000000	0.015148  
1428.000000	0.014128  
1427.000000	0.013398  
1426.000000	0.012809  
1425.000000	0.012218  
1424.000000	0.011644  
1423.000000	0.011197  
1422.000000	0.010854  
1421.000000	0.010495  
1420.000000	0.010080  
1419.000000	0.009686  
1418.000000	0.009403  
1417.000000	0.009225  
1416.000000	0.009120  
1415.000000	0.009069  
1414.000000	0.009018  
1413.000000	0.008911  
1412.000000	0.008754  
1411.000000	0.008579  
1410.000000	0.008393  
1409.000000	0.008217  
1408.000000	0.008122  
1407.000000	0.008141  
1406.000000	0.008195  
1405.000000	0.008195  
1404.000000	0.008188  
1403.000000	0.008264  
1402.000000	0.008379  
1401.000000	0.008435  
1400.000000	0.008436  
1399.000000	0.008470  
1398.000000	0.008584  
1397.000000	0.008753  
1396.000000	0.008970  
1395.000000	0.009257  
1394.000000	0.009628  
1393.000000	0.010091  
1392.000000	0.010667  
1391.000000	0.011387  
1390.000000	0.012321  
1389.000000	0.013646  
1388.000000	0.015606  
1387.000000	0.018200  
1386.000000	0.021065  
1385.000000	0.023916  
1384.000000	0.026839  
1383.000000	0.030099  
1382.000000	0.033870  
1381.000000	0.038102  
1380.000000	0.042418  
1379.000000	0.046043  
1378.000000	0.048135  
1377.000000	0.048315  
1376.000000	0.046682  
1375.000000	0.043542  
1374.000000	0.039498  
1373.000000	0.035457  
1372.000000	0.032092  
1371.000000	0.029562  
1370.000000	0.027826  
1369.000000	0.026835  
1368.000000	0.026406  
1367.000000	0.026127  
1366.000000	0.025548  
1365.000000	0.024390  
1364.000000	0.022632  
1363.000000	0.020539  
1362.000000	0.018579  
1361.000000	0.017102  
1360.000000	0.016120  
1359.000000	0.015460  
1358.000000	0.014967  
1357.000000	0.014584  
1356.000000	0.014325  
1355.000000	0.014208  
1354.000000	0.014194  
1353.000000	0.014200  
1352.000000	0.014155  
1351.000000	0.014052  
1350.000000	0.013919  
1349.000000	0.013793  
1348.000000	0.013679  
1347.000000	0.013541  
1346.000000	0.013353  
1345.000000	0.013152  
1344.000000	0.013022  
1343.000000	0.012997  
1342.000000	0.013030  
1341.000000	0.013034  
1340.000000	0.012947  
1339.000000	0.012745  
1338.000000	0.012446  
1337.000000	0.012104  
1336.000000	0.011768  
1335.000000	0.011458  
1334.000000	0.011164  
1333.000000	0.010880  
1332.000000	0.010644  
1331.000000	0.010481  
1330.000000	0.010360  
1329.000000	0.010225  
1328.000000	0.010075  
1327.000000	0.009949  
1326.000000	0.009860  
1325.000000	0.009787  
1324.000000	0.009718  
1323.000000	0.009669  
1322.000000	0.009654  
1321.000000	0.009665  
1320.000000	0.009692  
1319.000000	0.009727  
1318.000000	0.009770  
1317.000000	0.009826  
1316.000000	0.009907  
1315.000000	0.010020  
1314.000000	0.010151  
1313.000000	0.010283  
1312.000000	0.010414  
1311.000000	0.010554  
1310.000000	0.010706  
1309.000000	0.010853  
1308.000000	0.010978  
1307.000000	0.011071  
1306.000000	0.011125  
1305.000000	0.011137  
1304.000000	0.011105  
1303.000000	0.011029  
1302.000000	0.010927  
1301.000000	0.010838  
1300.000000	0.010795  
1299.000000	0.010790  
1298.000000	0.010779  
1297.000000	0.010722  
1296.000000	0.010615  
1295.000000	0.010467  
1294.000000	0.010277  
1293.000000	0.010047  
1292.000000	0.009807  
1291.000000	0.009607  
1290.000000	0.009482  
1289.000000	0.009428  
1288.000000	0.009424  
1287.000000	0.009444  
1286.000000	0.009473  
1285.000000	0.009507  
1284.000000	0.009532  
1283.000000	0.009533  
1282.000000	0.009507  
1281.000000	0.009478  
1280.000000	0.009474  
1279.000000	0.009489  
1278.000000	0.009503  
1277.000000	0.009523  
1276.000000	0.009582  
1275.000000	0.009681  
1274.000000	0.009773  
1273.000000	0.009819  
1272.000000	0.009833  
1271.000000	0.009847  
1270.000000	0.009865  
1269.000000	0.009864  
1268.000000	0.009840  
1267.000000	0.009793  
1266.000000	0.009708  
1265.000000	0.009565  
1264.000000	0.009389  
1263.000000	0.009248  
1262.000000	0.009199  
1261.000000	0.009241  
1260.000000	0.009321  
1259.000000	0.009372  
1258.000000	0.009360  
1257.000000	0.009288  
1256.000000	0.009183  
1255.000000	0.009076  
1254.000000	0.009016  
1253.000000	0.009057  
1252.000000	0.009210  
1251.000000	0.009397  
1250.000000	0.009504  
1249.000000	0.009495  
1248.000000	0.009443  
1247.000000	0.009431  
1246.000000	0.009474  
1245.000000	0.009534  
1244.000000	0.009577  
1243.000000	0.009581  
1242.000000	0.009525  
1241.000000	0.009413  
1240.000000	0.009297  
1239.000000	0.009227  
1238.000000	0.009183  
1237.000000	0.009109  
1236.000000	0.008992  
1235.000000	0.008872  
1234.000000	0.008769  
1233.000000	0.008659  
1232.000000	0.008519  
1231.000000	0.008361  
1230.000000	0.008207  
1229.000000	0.008071  
1228.000000	0.007976  
1227.000000	0.007953  
1226.000000	0.007992  
1225.000000	0.008031  
1224.000000	0.008026  
1223.000000	0.007996  
1222.000000	0.007981  
1221.000000	0.007962  
1220.000000	0.007890  
1219.000000	0.007770  
1218.000000	0.007678  
1217.000000	0.007684  
1216.000000	0.007788  
1215.000000	0.007927  
1214.000000	0.008031  
1213.000000	0.008058  
1212.000000	0.008011  
1211.000000	0.007947  
1210.000000	0.007932  
1209.000000	0.007972  
1208.000000	0.008005  
1207.000000	0.007983  
1206.000000	0.007940  
1205.000000	0.007946  
1204.000000	0.008008  
1203.000000	0.008063  
1202.000000	0.008072  
1201.000000	0.008066  
1200.000000	0.008099  
1199.000000	0.008190  
1198.000000	0.008324  
1197.000000	0.008485  
1196.000000	0.008654  
1195.000000	0.008820  
1194.000000	0.008990  
1193.000000	0.009187  
1192.000000	0.009397  
1191.000000	0.009561  
1190.000000	0.009647  
1189.000000	0.009700  
1188.000000	0.009793  
1187.000000	0.009948  
1186.000000	0.010125  
1185.000000	0.010296  
1184.000000	0.010469  
1183.000000	0.010659  
1182.000000	0.010862  
1181.000000	0.011060  
1180.000000	0.011235  
1179.000000	0.011373  
1178.000000	0.011487  
1177.000000	0.011624  
1176.000000	0.011817  
1175.000000	0.012043  
1174.000000	0.012248  
1173.000000	0.012409  
1172.000000	0.012535  
1171.000000	0.012627  
1170.000000	0.012667  
1169.000000	0.012649  
1168.000000	0.012580  
1167.000000	0.012464  
1166.000000	0.012303  
1165.000000	0.012124  
1164.000000	0.011954  
1163.000000	0.011788  
1162.000000	0.011612  
1161.000000	0.011449  
1160.000000	0.011343  
1159.000000	0.011282  
1158.000000	0.011204  
1157.000000	0.011073  
1156.000000	0.010910  
1155.000000	0.010738  
1154.000000	0.010537  
1153.000000	0.010291  
1152.000000	0.010023  
1151.000000	0.009781  
1150.000000	0.009602  
1149.000000	0.009516  
1148.000000	0.009527  
1147.000000	0.009584  
1146.000000	0.009590  
1145.000000	0.009482  
1144.000000	0.009282  
1143.000000	0.009053  
1142.000000	0.008840  
1141.000000	0.008657  
1140.000000	0.008503  
1139.000000	0.008365  
1138.000000	0.008239  
1137.000000	0.008149  
1136.000000	0.008112  
1135.000000	0.008072  
1134.000000	0.007946  
1133.000000	0.007742  
1132.000000	0.007571  
1131.000000	0.007516  
1130.000000	0.007535  
1129.000000	0.007553  
1128.000000	0.007567  
1127.000000	0.007611  
1126.000000	0.007659  
1125.000000	0.007663  
1124.000000	0.007637  
1123.000000	0.007637  
1122.000000	0.007673  
1121.000000	0.007708  
1120.000000	0.007726  
1119.000000	0.007738  
1118.000000	0.007740  
1117.000000	0.007727  
1116.000000	0.007726  
1115.000000	0.007764  
1114.000000	0.007798  
1113.000000	0.007755  
1112.000000	0.007636  
1111.000000	0.007505  
1110.000000	0.007379  
1109.000000	0.007220  
1108.000000	0.007043  
1107.000000	0.006959  
1106.000000	0.007037  
1105.000000	0.007195  
1104.000000	0.007279  
1103.000000	0.007232  
1102.000000	0.007135  
1101.000000	0.007108  
1100.000000	0.007198  
1099.000000	0.007362  
1098.000000	0.007522  
1097.000000	0.007639  
1096.000000	0.007733  
1095.000000	0.007830  
1094.000000	0.007909  
1093.000000	0.007930  
1092.000000	0.007902  
1091.000000	0.007871  
1090.000000	0.007832  
1089.000000	0.007714  
1088.000000	0.007487  
1087.000000	0.007238  
1086.000000	0.007098  
1085.000000	0.007111  
1084.000000	0.007207  
1083.000000	0.007282  
1082.000000	0.007281  
1081.000000	0.007228  
1080.000000	0.007201  
1079.000000	0.007274  
1078.000000	0.007454  
1077.000000	0.007674  
1076.000000	0.007872  
1075.000000	0.008051  
1074.000000	0.008237  
1073.000000	0.008405  
1072.000000	0.008487  
1071.000000	0.008458  
1070.000000	0.008380  
1069.000000	0.008339  
1068.000000	0.008358  
1067.000000	0.008388  
1066.000000	0.008376  
1065.000000	0.008328  
1064.000000	0.008296  
1063.000000	0.008303  
1062.000000	0.008304  
1061.000000	0.008238  
1060.000000	0.008111  
1059.000000	0.007998  
1058.000000	0.007961  
1057.000000	0.007989  
1056.000000	0.008046  
1055.000000	0.008124  
1054.000000	0.008203  
1053.000000	0.008188  
1052.000000	0.007967  
1051.000000	0.007584  
1050.000000	0.007274  
1049.000000	0.007239  
1048.000000	0.007432  
1047.000000	0.007637  
1046.000000	0.007706  
1045.000000	0.007669  
1044.000000	0.007643  
1043.000000	0.007716  
1042.000000	0.007896  
1041.000000	0.008120  
1040.000000	0.008283  
1039.000000	0.008307  
1038.000000	0.008205  
1037.000000	0.008075  
1036.000000	0.008011  
1035.000000	0.008039  
1034.000000	0.008142  
1033.000000	0.008289  
1032.000000	0.008431  
1031.000000	0.008503  
1030.000000	0.008479  
1029.000000	0.008417  
1028.000000	0.008404  
1027.000000	0.008471  
1026.000000	0.008578  
1025.000000	0.008665  
1024.000000	0.008697  
1023.000000	0.008658  
1022.000000	0.008552  
1021.000000	0.008410  
1020.000000	0.008274  
1019.000000	0.008166  
1018.000000	0.008099  
1017.000000	0.008103  
1016.000000	0.008199  
1015.000000	0.008347  
1014.000000	0.008448  
1013.000000	0.008429  
1012.000000	0.008307  
1011.000000	0.008163  
1010.000000	0.008075  
1009.000000	0.008065  
1008.000000	0.008108  
1007.000000	0.008148  
1006.000000	0.008146  
1005.000000	0.008101  
1004.000000	0.008052  
1003.000000	0.008040  
1002.000000	0.008082  
1001.000000	0.008156  
1000.000000	0.008191  
999.000000	 0.008093  
998.000000	 0.007835  
997.000000	 0.007526  
996.000000	 0.007347  
995.000000	 0.007390  
994.000000	 0.007573  
993.000000	 0.007735  
992.000000	 0.007787  
991.000000	 0.007766  
990.000000	 0.007771  
989.000000	 0.007867  
988.000000	 0.008033  
987.000000	 0.008168  
986.000000	 0.008180  
985.000000	 0.008086  
984.000000	 0.008010  
983.000000	 0.008057  
982.000000	 0.008208  
981.000000	 0.008360  
980.000000	 0.008451  
979.000000	 0.008509  
978.000000	 0.008592  
977.000000	 0.008721  
976.000000	 0.008862  
975.000000	 0.008966  
974.000000	 0.009002  
973.000000	 0.008988  
972.000000	 0.008995  
971.000000	 0.009095  
970.000000	 0.009300  
969.000000	 0.009541  
968.000000	 0.009732  
967.000000	 0.009828  
966.000000	 0.009836  
965.000000	 0.009774  
964.000000	 0.009646  
963.000000	 0.009466  
962.000000	 0.009290  
961.000000	 0.009199  
960.000000	 0.009222  
959.000000	 0.009297  
958.000000	 0.009325  
957.000000	 0.009274  
956.000000	 0.009201  
955.000000	 0.009174  
954.000000	 0.009188  
953.000000	 0.009196  
952.000000	 0.009175  
951.000000	 0.009154  
950.000000	 0.009151  
949.000000	 0.009148  
948.000000	 0.009118  
947.000000	 0.009068  
946.000000	 0.009045  
945.000000	 0.009083  
944.000000	 0.009179  
943.000000	 0.009295  
942.000000	 0.009393  
941.000000	 0.009445  
940.000000	 0.009423  
939.000000	 0.009302  
938.000000	 0.009087  
937.000000	 0.008841  
936.000000	 0.008631  
935.000000	 0.008475  
934.000000	 0.008357  
933.000000	 0.008287  
932.000000	 0.008311  
931.000000	 0.008425  
930.000000	 0.008534  
929.000000	 0.008541  
928.000000	 0.008457  
927.000000	 0.008391  
926.000000	 0.008417  
925.000000	 0.008506  
924.000000	 0.008586  
923.000000	 0.008633  
922.000000	 0.008666  
921.000000	 0.008678  
920.000000	 0.008629  
919.000000	 0.008515  
918.000000	 0.008408  
917.000000	 0.008390  
916.000000	 0.008471  
915.000000	 0.008570  
914.000000	 0.008607  
913.000000	 0.008568  
912.000000	 0.008483  
911.000000	 0.008380  
910.000000	 0.008296  
909.000000	 0.008293  
908.000000	 0.008401  
907.000000	 0.008543  
906.000000	 0.008577  
905.000000	 0.008450  
904.000000	 0.008274  
903.000000	 0.008199  
902.000000	 0.008258  
901.000000	 0.008361  
900.000000	 0.008435  
899.000000	 0.008503  
898.000000	 0.008624  
897.000000	 0.008801  
896.000000	 0.008966  
895.000000	 0.009056  
894.000000	 0.009078  
893.000000	 0.009088  
892.000000	 0.009129  
891.000000	 0.009201  
890.000000	 0.009279  
889.000000	 0.009357  
888.000000	 0.009436  
887.000000	 0.009494  
886.000000	 0.009480  
885.000000	 0.009357  
884.000000	 0.009139  
883.000000	 0.008876  
882.000000	 0.008637  
881.000000	 0.008486  
880.000000	 0.008462  
879.000000	 0.008555  
878.000000	 0.008712  
877.000000	 0.008875  
876.000000	 0.008998  
875.000000	 0.009027  
874.000000	 0.008911  
873.000000	 0.008640  
872.000000	 0.008277  
871.000000	 0.007943  
870.000000	 0.007781  
869.000000	 0.007899  
868.000000	 0.008267  
867.000000	 0.008670  
866.000000	 0.008848  
865.000000	 0.008719  
864.000000	 0.008439  
863.000000	 0.008224  
862.000000	 0.008156  
861.000000	 0.008196  
860.000000	 0.008296  
859.000000	 0.008427  
858.000000	 0.008519  
857.000000	 0.008504  
856.000000	 0.008433  
855.000000	 0.008473  
854.000000	 0.008742  
853.000000	 0.009172  
852.000000	 0.009585  
851.000000	 0.009857  
850.000000	 0.009992  
849.000000	 0.010048  
848.000000	 0.010049  
847.000000	 0.009976  
846.000000	 0.009823  
845.000000	 0.009621  
844.000000	 0.009413  
843.000000	 0.009225  
842.000000	 0.009077  
841.000000	 0.008994  
840.000000	 0.008985  
839.000000	 0.009022  
838.000000	 0.009056  
837.000000	 0.009053  
836.000000	 0.008978  
835.000000	 0.008784  
834.000000	 0.008473  
833.000000	 0.008162  
832.000000	 0.008019  
831.000000	 0.008089  
830.000000	 0.008233  
829.000000	 0.008298  
828.000000	 0.008310  
827.000000	 0.008432  
826.000000	 0.008740  
825.000000	 0.009123  
824.000000	 0.009404  
823.000000	 0.009492  
822.000000	 0.009423  
821.000000	 0.009319  
820.000000	 0.009325  
819.000000	 0.009521  
818.000000	 0.009871  
817.000000	 0.010265  
816.000000	 0.010602  
815.000000	 0.010805  
814.000000	 0.010815  
813.000000	 0.010627  
812.000000	 0.010345  
811.000000	 0.010161  
810.000000	 0.010218  
809.000000	 0.010527  
808.000000	 0.010986  
807.000000	 0.011449  
806.000000	 0.011776  
805.000000	 0.011860  
804.000000	 0.011671  
803.000000	 0.011270  
802.000000	 0.010784  
801.000000	 0.010338  
800.000000	 0.009985  
799.000000	 0.009694  
798.000000	 0.009407  
797.000000	 0.009121  
796.000000	 0.008886  
795.000000	 0.008721  
794.000000	 0.008575  
793.000000	 0.008429  
792.000000	 0.008378  
791.000000	 0.008525  
790.000000	 0.008800  
789.000000	 0.008976  
788.000000	 0.008918  
787.000000	 0.008758  
786.000000	 0.008761  
785.000000	 0.009051  
784.000000	 0.009512  
783.000000	 0.009946  
782.000000	 0.010271  
781.000000	 0.010550  
780.000000	 0.010869  
779.000000	 0.011224  
778.000000	 0.011540  
777.000000	 0.011784  
776.000000	 0.012020  
775.000000	 0.012340  
774.000000	 0.012753  
773.000000	 0.013176  
772.000000	 0.013531  
771.000000	 0.013812  
770.000000	 0.014045  
769.000000	 0.014226  
768.000000	 0.014313  
767.000000	 0.014262  
766.000000	 0.014048  
765.000000	 0.013684  
764.000000	 0.013258  
763.000000	 0.012928  
762.000000	 0.012815  
761.000000	 0.012883  
760.000000	 0.012965  
759.000000	 0.012934  
758.000000	 0.012842  
757.000000	 0.012860  
756.000000	 0.013079  
755.000000	 0.013423  
754.000000	 0.013730  
753.000000	 0.013904  
752.000000	 0.013953  
751.000000	 0.013937  
750.000000	 0.013910  
749.000000	 0.013929  
748.000000	 0.014074  
747.000000	 0.014464  
746.000000	 0.015241  
745.000000	 0.016481  
744.000000	 0.018074  
743.000000	 0.019684  
742.000000	 0.020910  
741.000000	 0.021524  
740.000000	 0.021585  
739.000000	 0.021318  
738.000000	 0.020920  
737.000000	 0.020479  
736.000000	 0.020010  
735.000000	 0.019530  
734.000000	 0.019123  
733.000000	 0.018939  
732.000000	 0.019087  
731.000000	 0.019500  
730.000000	 0.019973  
729.000000	 0.020409  
728.000000	 0.020960  
727.000000	 0.021854  
726.000000	 0.023109  
725.000000	 0.024483  
724.000000	 0.025679  
723.000000	 0.026523  
722.000000	 0.026895  
721.000000	 0.026569  
720.000000	 0.025305  
719.000000	 0.023208  
718.000000	 0.020818  
717.000000	 0.018760  
716.000000	 0.017364  
715.000000	 0.016534  
714.000000	 0.015902  
713.000000	 0.015174  
712.000000	 0.014325  
711.000000	 0.013523  
710.000000	 0.012929  
709.000000	 0.012604  
708.000000	 0.012504  
707.000000	 0.012517  
706.000000	 0.012578  
705.000000	 0.012746  
704.000000	 0.013106  
703.000000	 0.013588  
702.000000	 0.013976  
701.000000	 0.014140  
700.000000	 0.014165  
699.000000	 0.014131  
698.000000	 0.013879  
697.000000	 0.013174  
696.000000	 0.012107  
695.000000	 0.011156  
694.000000	 0.010703  
693.000000	 0.010594  
692.000000	 0.010312  
691.000000	 0.009551  
690.000000	 0.008541  
689.000000	 0.007746  
688.000000	 0.007307  
687.000000	 0.006936  
686.000000	 0.006365  
685.000000	 0.005722  
684.000000	 0.005344  
683.000000	 0.005347  
682.000000	 0.005558  
681.000000	 0.005775  
680.000000	 0.005934  
679.000000	 0.006022  
678.000000	 0.006039  
677.000000	 0.006101  
676.000000	 0.006267  
675.000000	 0.006413  
674.000000	 0.006382  
673.000000	 0.006160  
672.000000	 0.005586  
671.000000	 0.004084  
670.000000	 0.001024  
669.000000	 -0.003623 
668.000000	 -0.007696 
667.000000	 -0.006586 
666.000000	 -0.001940 
665.000000	 0.001907  
664.000000	 0.004089  
663.000000	 0.005228  
662.000000	 0.005722  
661.000000	 0.005585  
660.000000	 0.005065  
659.000000	 0.004759  
658.000000	 0.004902  
657.000000	 0.005035  
656.000000	 0.004559  
655.000000	 0.003571  
654.000000	 0.002846  
653.000000	 0.002968  
652.000000	 0.003714  
651.000000	 0.004378  
650.000000	 0.004523  

