PE IR                   SPECTRUM    ASCII       PEDS        1.60        
  -1
NB4-15~2.ASC
17/04/10
13:37:57.00
17/04/10
13:37:57.00
Admin

650.000000
6









SPECTRUM ONE,CPU32 MAIN 00.02.5000 17-APRIL-2002 13:00:00
MIR TGS
MIR
OPTKBR
68128
0.200000

4.000000
STRONG
RATIO
SPECTRUM
MAGNITUDE

DOUBLE

COMBINED


0


#HDR
-1
-1
#GR
CM-1
A
0.00000011920928955078
0.0
4000.000000
-1.000000
3351
8
0.213597
-0.015209
#DATA
4000.000000	0.001696  
3999.000000	0.001664  
3998.000000	0.001721  
3997.000000	0.001853  
3996.000000	0.002044  
3995.000000	0.002226  
3994.000000	0.002314  
3993.000000	0.002269  
3992.000000	0.002130  
3991.000000	0.001992  
3990.000000	0.001932  
3989.000000	0.001943  
3988.000000	0.001950  
3987.000000	0.001901  
3986.000000	0.001827  
3985.000000	0.001804  
3984.000000	0.001843  
3983.000000	0.001861  
3982.000000	0.001762  
3981.000000	0.001550  
3980.000000	0.001345  
3979.000000	0.001279  
3978.000000	0.001385  
3977.000000	0.001599  
3976.000000	0.001827  
3975.000000	0.002019  
3974.000000	0.002155  
3973.000000	0.002204  
3972.000000	0.002137  
3971.000000	0.001972  
3970.000000	0.001785  
3969.000000	0.001656  
3968.000000	0.001604  
3967.000000	0.001583  
3966.000000	0.001553  
3965.000000	0.001523  
3964.000000	0.001540  
3963.000000	0.001634  
3962.000000	0.001782  
3961.000000	0.001923  
3960.000000	0.002005  
3959.000000	0.002018  
3958.000000	0.001984  
3957.000000	0.001936  
3956.000000	0.001893  
3955.000000	0.001860  
3954.000000	0.001838  
3953.000000	0.001831  
3952.000000	0.001844  
3951.000000	0.001870  
3950.000000	0.001898  
3949.000000	0.001938  
3948.000000	0.002020  
3947.000000	0.002148  
3946.000000	0.002260  
3945.000000	0.002259  
3944.000000	0.002095  
3943.000000	0.001829  
3942.000000	0.001599  
3941.000000	0.001493  
3940.000000	0.001512  
3939.000000	0.001621  
3938.000000	0.001790  
3937.000000	0.001979  
3936.000000	0.002127  
3935.000000	0.002187  
3934.000000	0.002170  
3933.000000	0.002131  
3932.000000	0.002121  
3931.000000	0.002150  
3930.000000	0.002203  
3929.000000	0.002272  
3928.000000	0.002358  
3927.000000	0.002453  
3926.000000	0.002528  
3925.000000	0.002563  
3924.000000	0.002576  
3923.000000	0.002593  
3922.000000	0.002620  
3921.000000	0.002639  
3920.000000	0.002614  
3919.000000	0.002521  
3918.000000	0.002381  
3917.000000	0.002260  
3916.000000	0.002211  
3915.000000	0.002219  
3914.000000	0.002216  
3913.000000	0.002144  
3912.000000	0.002005  
3911.000000	0.001869  
3910.000000	0.001826  
3909.000000	0.001927  
3908.000000	0.002142  
3907.000000	0.002382  
3906.000000	0.002552  
3905.000000	0.002613  
3904.000000	0.002606  
3903.000000	0.002564  
3902.000000	0.002457  
3901.000000	0.002278  
3900.000000	0.002125  
3899.000000	0.002123  
3898.000000	0.002275  
3897.000000	0.002460  
3896.000000	0.002571  
3895.000000	0.002581  
3894.000000	0.002514  
3893.000000	0.002405  
3892.000000	0.002314  
3891.000000	0.002316  
3890.000000	0.002389  
3889.000000	0.002422  
3888.000000	0.002358  
3887.000000	0.002242  
3886.000000	0.002185  
3885.000000	0.002266  
3884.000000	0.002418  
3883.000000	0.002474  
3882.000000	0.002350  
3881.000000	0.002132  
3880.000000	0.002037  
3879.000000	0.002177  
3878.000000	0.002450  
3877.000000	0.002714  
3876.000000	0.002899  
3875.000000	0.003017  
3874.000000	0.003135  
3873.000000	0.003282  
3872.000000	0.003391  
3871.000000	0.003396  
3870.000000	0.003352  
3869.000000	0.003356  
3868.000000	0.003365  
3867.000000	0.003289  
3866.000000	0.003124  
3865.000000	0.002939  
3864.000000	0.002804  
3863.000000	0.002746  
3862.000000	0.002739  
3861.000000	0.002731  
3860.000000	0.002675  
3859.000000	0.002570  
3858.000000	0.002465  
3857.000000	0.002434  
3856.000000	0.002515  
3855.000000	0.002593  
3854.000000	0.002520  
3853.000000	0.002457  
3852.000000	0.002563  
3851.000000	0.002710  
3850.000000	0.002836  
3849.000000	0.002985  
3848.000000	0.003186  
3847.000000	0.003396  
3846.000000	0.003555  
3845.000000	0.003669  
3844.000000	0.003801  
3843.000000	0.003994  
3842.000000	0.004204  
3841.000000	0.004311  
3840.000000	0.004207  
3839.000000	0.003912  
3838.000000	0.003574  
3837.000000	0.003352  
3836.000000	0.003295  
3835.000000	0.003357  
3834.000000	0.003468  
3833.000000	0.003558  
3832.000000	0.003584  
3831.000000	0.003543  
3830.000000	0.003457  
3829.000000	0.003340  
3828.000000	0.003196  
3827.000000	0.003046  
3826.000000	0.002951  
3825.000000	0.002993  
3824.000000	0.003230  
3823.000000	0.003641  
3822.000000	0.004046  
3821.000000	0.004246  
3820.000000	0.004153  
3819.000000	0.003722  
3818.000000	0.003055  
3817.000000	0.002442  
3816.000000	0.002178  
3815.000000	0.002290  
3814.000000	0.002525  
3813.000000	0.002656  
3812.000000	0.002644  
3811.000000	0.002545  
3810.000000	0.002405  
3809.000000	0.002265  
3808.000000	0.002220  
3807.000000	0.002401  
3806.000000	0.002824  
3805.000000	0.003312  
3804.000000	0.003643  
3803.000000	0.003672  
3802.000000	0.003433  
3801.000000	0.003193  
3800.000000	0.003109  
3799.000000	0.003080  
3798.000000	0.003007  
3797.000000	0.002904  
3796.000000	0.002832  
3795.000000	0.002788  
3794.000000	0.002710  
3793.000000	0.002566  
3792.000000	0.002401  
3791.000000	0.002287  
3790.000000	0.002270  
3789.000000	0.002350  
3788.000000	0.002481  
3787.000000	0.002591  
3786.000000	0.002626  
3785.000000	0.002599  
3784.000000	0.002565  
3783.000000	0.002551  
3782.000000	0.002528  
3781.000000	0.002453  
3780.000000	0.002349  
3779.000000	0.002308  
3778.000000	0.002370  
3777.000000	0.002454  
3776.000000	0.002463  
3775.000000	0.002383  
3774.000000	0.002278  
3773.000000	0.002226  
3772.000000	0.002284  
3771.000000	0.002482  
3770.000000	0.002813  
3769.000000	0.003174  
3768.000000	0.003355  
3767.000000	0.003196  
3766.000000	0.002759  
3765.000000	0.002305  
3764.000000	0.002083  
3763.000000	0.002148  
3762.000000	0.002409  
3761.000000	0.002723  
3760.000000	0.002969  
3759.000000	0.003121  
3758.000000	0.003218  
3757.000000	0.003275  
3756.000000	0.003276  
3755.000000	0.003277  
3754.000000	0.003450  
3753.000000	0.003950  
3752.000000	0.004657  
3751.000000	0.005171  
3750.000000	0.005240  
3749.000000	0.004945  
3748.000000	0.004489  
3747.000000	0.004055  
3746.000000	0.003773  
3745.000000	0.003718  
3744.000000	0.003891  
3743.000000	0.004114  
3742.000000	0.004195  
3741.000000	0.004194  
3740.000000	0.004315  
3739.000000	0.004692  
3738.000000	0.005229  
3737.000000	0.005623  
3736.000000	0.005586  
3735.000000	0.005151  
3734.000000	0.004643  
3733.000000	0.004326  
3732.000000	0.004241  
3731.000000	0.004272  
3730.000000	0.004288  
3729.000000	0.004212  
3728.000000	0.004035  
3727.000000	0.003816  
3726.000000	0.003657  
3725.000000	0.003609  
3724.000000	0.003614  
3723.000000	0.003550  
3722.000000	0.003346  
3721.000000	0.003011  
3720.000000	0.002626  
3719.000000	0.002304  
3718.000000	0.002133  
3717.000000	0.002122  
3716.000000	0.002194  
3715.000000	0.002282  
3714.000000	0.002402  
3713.000000	0.002611  
3712.000000	0.002889  
3711.000000	0.003126  
3710.000000	0.003214  
3709.000000	0.003161  
3708.000000	0.003100  
3707.000000	0.003164  
3706.000000	0.003354  
3705.000000	0.003510  
3704.000000	0.003429  
3703.000000	0.003048  
3702.000000	0.002559  
3701.000000	0.002253  
3700.000000	0.002228  
3699.000000	0.002346  
3698.000000	0.002440  
3697.000000	0.002467  
3696.000000	0.002502  
3695.000000	0.002636  
3694.000000	0.002874  
3693.000000	0.003116  
3692.000000	0.003192  
3691.000000	0.003000  
3690.000000	0.002650  
3689.000000	0.002415  
3688.000000	0.002399  
3687.000000	0.002436  
3686.000000	0.002381  
3685.000000	0.002281  
3684.000000	0.002278  
3683.000000	0.002435  
3682.000000	0.002664  
3681.000000	0.002835  
3680.000000	0.002925  
3679.000000	0.003025  
3678.000000	0.003216  
3677.000000	0.003419  
3676.000000	0.003497  
3675.000000	0.003530  
3674.000000	0.003631  
3673.000000	0.003756  
3672.000000	0.003895  
3671.000000	0.004003  
3670.000000	0.003980  
3669.000000	0.003827  
3668.000000	0.003571  
3667.000000	0.003230  
3666.000000	0.002864  
3665.000000	0.002511  
3664.000000	0.002166  
3663.000000	0.001814  
3662.000000	0.001483  
3661.000000	0.001232  
3660.000000	0.001110  
3659.000000	0.001147  
3658.000000	0.001370  
3657.000000	0.001784  
3656.000000	0.002341  
3655.000000	0.002888  
3654.000000	0.003251  
3653.000000	0.003370  
3652.000000	0.003324  
3651.000000	0.003223  
3650.000000	0.003129  
3649.000000	0.003077  
3648.000000	0.003083  
3647.000000	0.003120  
3646.000000	0.003137  
3645.000000	0.003083  
3644.000000	0.002960  
3643.000000	0.002835  
3642.000000	0.002788  
3641.000000	0.002830  
3640.000000	0.002883  
3639.000000	0.002875  
3638.000000	0.002810  
3637.000000	0.002761  
3636.000000	0.002791  
3635.000000	0.002904  
3634.000000	0.003042  
3633.000000	0.003124  
3632.000000	0.003106  
3631.000000	0.003036  
3630.000000	0.003011  
3629.000000	0.003126  
3628.000000	0.003381  
3627.000000	0.003562  
3626.000000	0.003519  
3625.000000	0.003357  
3624.000000	0.003250  
3623.000000	0.003241  
3622.000000	0.003235  
3621.000000	0.003106  
3620.000000	0.002848  
3619.000000	0.002615  
3618.000000	0.002539  
3617.000000	0.002575  
3616.000000	0.002606  
3615.000000	0.002591  
3614.000000	0.002597  
3613.000000	0.002722  
3612.000000	0.002983  
3611.000000	0.003285  
3610.000000	0.003480  
3609.000000	0.003456  
3608.000000	0.003226  
3607.000000	0.002917  
3606.000000	0.002642  
3605.000000	0.002439  
3604.000000	0.002320  
3603.000000	0.002305  
3602.000000	0.002413  
3601.000000	0.002642  
3600.000000	0.002950  
3599.000000	0.003251  
3598.000000	0.003439  
3597.000000	0.003439  
3596.000000	0.003258  
3595.000000	0.003009  
3594.000000	0.002829  
3593.000000	0.002755  
3592.000000	0.002712  
3591.000000	0.002638  
3590.000000	0.002566  
3589.000000	0.002565  
3588.000000	0.002653  
3587.000000	0.002796  
3586.000000	0.002929  
3585.000000	0.002971  
3584.000000	0.002883  
3583.000000	0.002681  
3582.000000	0.002433  
3581.000000	0.002250  
3580.000000	0.002228  
3579.000000	0.002347  
3578.000000	0.002462  
3577.000000	0.002431  
3576.000000	0.002257  
3575.000000	0.002063  
3574.000000	0.001950  
3573.000000	0.001911  
3572.000000	0.001901  
3571.000000	0.001946  
3570.000000	0.002126  
3569.000000	0.002433  
3568.000000	0.002677  
3567.000000	0.002686  
3566.000000	0.002535  
3565.000000	0.002405  
3564.000000	0.002364  
3563.000000	0.002353  
3562.000000	0.002304  
3561.000000	0.002213  
3560.000000	0.002151  
3559.000000	0.002194  
3558.000000	0.002343  
3557.000000	0.002516  
3556.000000	0.002607  
3555.000000	0.002545  
3554.000000	0.002337  
3553.000000	0.002087  
3552.000000	0.001933  
3551.000000	0.001933  
3550.000000	0.002012  
3549.000000	0.002038  
3548.000000	0.001940  
3547.000000	0.001770  
3546.000000	0.001665  
3545.000000	0.001721  
3544.000000	0.001904  
3543.000000	0.002108  
3542.000000	0.002272  
3541.000000	0.002414  
3540.000000	0.002558  
3539.000000	0.002656  
3538.000000	0.002617  
3537.000000	0.002405  
3536.000000	0.002115  
3535.000000	0.001898  
3534.000000	0.001845  
3533.000000	0.001948  
3532.000000	0.002149  
3531.000000	0.002375  
3530.000000	0.002552  
3529.000000	0.002614  
3528.000000	0.002542  
3527.000000	0.002375  
3526.000000	0.002168  
3525.000000	0.001961  
3524.000000	0.001789  
3523.000000	0.001695  
3522.000000	0.001702  
3521.000000	0.001777  
3520.000000	0.001860  
3519.000000	0.001929  
3518.000000	0.002010  
3517.000000	0.002131  
3516.000000	0.002278  
3515.000000	0.002412  
3514.000000	0.002506  
3513.000000	0.002548  
3512.000000	0.002532  
3511.000000	0.002477  
3510.000000	0.002427  
3509.000000	0.002417  
3508.000000	0.002435  
3507.000000	0.002436  
3506.000000	0.002406  
3505.000000	0.002369  
3504.000000	0.002348  
3503.000000	0.002341  
3502.000000	0.002329  
3501.000000	0.002301  
3500.000000	0.002265  
3499.000000	0.002234  
3498.000000	0.002222  
3497.000000	0.002233  
3496.000000	0.002263  
3495.000000	0.002312  
3494.000000	0.002372  
3493.000000	0.002409  
3492.000000	0.002358  
3491.000000	0.002195  
3490.000000	0.001989  
3489.000000	0.001869  
3488.000000	0.001915  
3487.000000	0.002108  
3486.000000	0.002378  
3485.000000	0.002652  
3484.000000	0.002844  
3483.000000	0.002857  
3482.000000	0.002661  
3481.000000	0.002349  
3480.000000	0.002084  
3479.000000	0.001970  
3478.000000	0.002001  
3477.000000	0.002102  
3476.000000	0.002201  
3475.000000	0.002268  
3474.000000	0.002309  
3473.000000	0.002331  
3472.000000	0.002314  
3471.000000	0.002225  
3470.000000	0.002068  
3469.000000	0.001898  
3468.000000	0.001797  
3467.000000	0.001819  
3466.000000	0.001956  
3465.000000	0.002130  
3464.000000	0.002222  
3463.000000	0.002154  
3462.000000	0.001970  
3461.000000	0.001806  
3460.000000	0.001755  
3459.000000	0.001787  
3458.000000	0.001813  
3457.000000	0.001812  
3456.000000	0.001832  
3455.000000	0.001907  
3454.000000	0.002016  
3453.000000	0.002127  
3452.000000	0.002234  
3451.000000	0.002326  
3450.000000	0.002363  
3449.000000	0.002338  
3448.000000	0.002310  
3447.000000	0.002362  
3446.000000	0.002511  
3445.000000	0.002688  
3444.000000	0.002799  
3443.000000	0.002788  
3442.000000	0.002673  
3441.000000	0.002533  
3440.000000	0.002463  
3439.000000	0.002508  
3438.000000	0.002619  
3437.000000	0.002683  
3436.000000	0.002602  
3435.000000	0.002384  
3434.000000	0.002149  
3433.000000	0.002050  
3432.000000	0.002131  
3431.000000	0.002280  
3430.000000	0.002333  
3429.000000	0.002226  
3428.000000	0.002016  
3427.000000	0.001795  
3426.000000	0.001613  
3425.000000	0.001507  
3424.000000	0.001520  
3423.000000	0.001659  
3422.000000	0.001862  
3421.000000	0.002040  
3420.000000	0.002146  
3419.000000	0.002185  
3418.000000	0.002185  
3417.000000	0.002177  
3416.000000	0.002184  
3415.000000	0.002203  
3414.000000	0.002208  
3413.000000	0.002204  
3412.000000	0.002243  
3411.000000	0.002350  
3410.000000	0.002456  
3409.000000	0.002437  
3408.000000	0.002240  
3407.000000	0.001944  
3406.000000	0.001701  
3405.000000	0.001612  
3404.000000	0.001668  
3403.000000	0.001796  
3402.000000	0.001947  
3401.000000	0.002118  
3400.000000	0.002296  
3399.000000	0.002410  
3398.000000	0.002394  
3397.000000	0.002299  
3396.000000	0.002289  
3395.000000	0.002482  
3394.000000	0.002815  
3393.000000	0.003101  
3392.000000	0.003189  
3391.000000	0.003074  
3390.000000	0.002853  
3389.000000	0.002621  
3388.000000	0.002425  
3387.000000	0.002261  
3386.000000	0.002122  
3385.000000	0.002048  
3384.000000	0.002105  
3383.000000	0.002311  
3382.000000	0.002582  
3381.000000	0.002787  
3380.000000	0.002862  
3379.000000	0.002819  
3378.000000	0.002682  
3377.000000	0.002445  
3376.000000	0.002134  
3375.000000	0.001857  
3374.000000	0.001747  
3373.000000	0.001840  
3372.000000	0.002045  
3371.000000	0.002238  
3370.000000	0.002382  
3369.000000	0.002524  
3368.000000	0.002700  
3367.000000	0.002869  
3366.000000	0.002959  
3365.000000	0.002945  
3364.000000	0.002867  
3363.000000	0.002770  
3362.000000	0.002681  
3361.000000	0.002628  
3360.000000	0.002637  
3359.000000	0.002693  
3358.000000	0.002732  
3357.000000	0.002719  
3356.000000	0.002694  
3355.000000	0.002696  
3354.000000	0.002691  
3353.000000	0.002613  
3352.000000	0.002471  
3351.000000	0.002356  
3350.000000	0.002328  
3349.000000	0.002352  
3348.000000	0.002376  
3347.000000	0.002416  
3346.000000	0.002508  
3345.000000	0.002633  
3344.000000	0.002720  
3343.000000	0.002731  
3342.000000	0.002703  
3341.000000	0.002675  
3340.000000	0.002633  
3339.000000	0.002538  
3338.000000	0.002406  
3337.000000	0.002320  
3336.000000	0.002344  
3335.000000	0.002447  
3334.000000	0.002529  
3333.000000	0.002526  
3332.000000	0.002473  
3331.000000	0.002451  
3330.000000	0.002500  
3329.000000	0.002604  
3328.000000	0.002729  
3327.000000	0.002841  
3326.000000	0.002888  
3325.000000	0.002822  
3324.000000	0.002658  
3323.000000	0.002495  
3322.000000	0.002426  
3321.000000	0.002460  
3320.000000	0.002539  
3319.000000	0.002627  
3318.000000	0.002735  
3317.000000	0.002859  
3316.000000	0.002936  
3315.000000	0.002893  
3314.000000	0.002730  
3313.000000	0.002541  
3312.000000	0.002442  
3311.000000	0.002485  
3310.000000	0.002625  
3309.000000	0.002752  
3308.000000	0.002755  
3307.000000	0.002597  
3306.000000	0.002356  
3305.000000	0.002185  
3304.000000	0.002191  
3303.000000	0.002356  
3302.000000	0.002570  
3301.000000	0.002743  
3300.000000	0.002847  
3299.000000	0.002876  
3298.000000	0.002817  
3297.000000	0.002689  
3296.000000	0.002572  
3295.000000	0.002540  
3294.000000	0.002596  
3293.000000	0.002690  
3292.000000	0.002790  
3291.000000	0.002883  
3290.000000	0.002926  
3289.000000	0.002861  
3288.000000	0.002701  
3287.000000	0.002535  
3286.000000	0.002443  
3285.000000	0.002417  
3284.000000	0.002405  
3283.000000	0.002393  
3282.000000	0.002403  
3281.000000	0.002442  
3280.000000	0.002481  
3279.000000	0.002497  
3278.000000	0.002503  
3277.000000	0.002526  
3276.000000	0.002589  
3275.000000	0.002698  
3274.000000	0.002845  
3273.000000	0.002998  
3272.000000	0.003097  
3271.000000	0.003087  
3270.000000	0.002961  
3269.000000	0.002766  
3268.000000	0.002558  
3267.000000	0.002364  
3266.000000	0.002195  
3265.000000	0.002105  
3264.000000	0.002162  
3263.000000	0.002371  
3262.000000	0.002632  
3261.000000	0.002827  
3260.000000	0.002933  
3259.000000	0.003019  
3258.000000	0.003131  
3257.000000	0.003224  
3256.000000	0.003216  
3255.000000	0.003094  
3254.000000	0.002948  
3253.000000	0.002901  
3252.000000	0.002988  
3251.000000	0.003118  
3250.000000	0.003170  
3249.000000	0.003127  
3248.000000	0.003084  
3247.000000	0.003106  
3246.000000	0.003120  
3245.000000	0.003020  
3244.000000	0.002837  
3243.000000	0.002726  
3242.000000	0.002767  
3241.000000	0.002877  
3240.000000	0.002916  
3239.000000	0.002835  
3238.000000	0.002669  
3237.000000	0.002471  
3236.000000	0.002291  
3235.000000	0.002187  
3234.000000	0.002189  
3233.000000	0.002274  
3232.000000	0.002404  
3231.000000	0.002564  
3230.000000	0.002729  
3229.000000	0.002839  
3228.000000	0.002865  
3227.000000	0.002866  
3226.000000	0.002932  
3225.000000	0.003073  
3224.000000	0.003219  
3223.000000	0.003304  
3222.000000	0.003304  
3221.000000	0.003202  
3220.000000	0.002994  
3219.000000	0.002742  
3218.000000	0.002565  
3217.000000	0.002548  
3216.000000	0.002672  
3215.000000	0.002857  
3214.000000	0.003040  
3213.000000	0.003193  
3212.000000	0.003304  
3211.000000	0.003355  
3210.000000	0.003336  
3209.000000	0.003261  
3208.000000	0.003180  
3207.000000	0.003159  
3206.000000	0.003223  
3205.000000	0.003334  
3204.000000	0.003446  
3203.000000	0.003552  
3202.000000	0.003658  
3201.000000	0.003708  
3200.000000	0.003612  
3199.000000	0.003356  
3198.000000	0.003033  
3197.000000	0.002756  
3196.000000	0.002556  
3195.000000	0.002412  
3194.000000	0.002327  
3193.000000	0.002325  
3192.000000	0.002410  
3191.000000	0.002560  
3190.000000	0.002766  
3189.000000	0.003019  
3188.000000	0.003267  
3187.000000	0.003423  
3186.000000	0.003448  
3185.000000	0.003398  
3184.000000	0.003351  
3183.000000	0.003312  
3182.000000	0.003226  
3181.000000	0.003068  
3180.000000	0.002892  
3179.000000	0.002761  
3178.000000	0.002689  
3177.000000	0.002670  
3176.000000	0.002722  
3175.000000	0.002868  
3174.000000	0.003068  
3173.000000	0.003219  
3172.000000	0.003244  
3171.000000	0.003158  
3170.000000	0.003039  
3169.000000	0.002964  
3168.000000	0.002963  
3167.000000	0.003015  
3166.000000	0.003071  
3165.000000	0.003084  
3164.000000	0.003050  
3163.000000	0.003002  
3162.000000	0.002967  
3161.000000	0.002948  
3160.000000	0.002955  
3159.000000	0.003020  
3158.000000	0.003160  
3157.000000	0.003338  
3156.000000	0.003480  
3155.000000	0.003549  
3154.000000	0.003564  
3153.000000	0.003569  
3152.000000	0.003572  
3151.000000	0.003528  
3150.000000	0.003376  
3149.000000	0.003115  
3148.000000	0.002833  
3147.000000	0.002647  
3146.000000	0.002602  
3145.000000	0.002650  
3144.000000	0.002719  
3143.000000	0.002774  
3142.000000	0.002802  
3141.000000	0.002792  
3140.000000	0.002768  
3139.000000	0.002795  
3138.000000	0.002917  
3137.000000	0.003091  
3136.000000	0.003205  
3135.000000	0.003180  
3134.000000	0.003033  
3133.000000	0.002867  
3132.000000	0.002807  
3131.000000	0.002916  
3130.000000	0.003136  
3129.000000	0.003319  
3128.000000	0.003353  
3127.000000	0.003258  
3126.000000	0.003140  
3125.000000	0.003086  
3124.000000	0.003110  
3123.000000	0.003192  
3122.000000	0.003305  
3121.000000	0.003408  
3120.000000	0.003450  
3119.000000	0.003399  
3118.000000	0.003262  
3117.000000	0.003086  
3116.000000	0.002955  
3115.000000	0.002955  
3114.000000	0.003095  
3113.000000	0.003269  
3112.000000	0.003350  
3111.000000	0.003309  
3110.000000	0.003227  
3109.000000	0.003182  
3108.000000	0.003170  
3107.000000	0.003150  
3106.000000	0.003104  
3105.000000	0.003056  
3104.000000	0.003056  
3103.000000	0.003151  
3102.000000	0.003333  
3101.000000	0.003506  
3100.000000	0.003535  
3099.000000	0.003363  
3098.000000	0.003075  
3097.000000	0.002830  
3096.000000	0.002758  
3095.000000	0.002876  
3094.000000	0.003099  
3093.000000	0.003298  
3092.000000	0.003399  
3091.000000	0.003423  
3090.000000	0.003429  
3089.000000	0.003425  
3088.000000	0.003379  
3087.000000	0.003307  
3086.000000	0.003287  
3085.000000	0.003355  
3084.000000	0.003442  
3083.000000	0.003459  
3082.000000	0.003414  
3081.000000	0.003402  
3080.000000	0.003501  
3079.000000	0.003701  
3078.000000	0.003930  
3077.000000	0.004113  
3076.000000	0.004200  
3075.000000	0.004185  
3074.000000	0.004104  
3073.000000	0.004016  
3072.000000	0.003966  
3071.000000	0.003978  
3070.000000	0.004042  
3069.000000	0.004114  
3068.000000	0.004140  
3067.000000	0.004104  
3066.000000	0.004065  
3065.000000	0.004102  
3064.000000	0.004245  
3063.000000	0.004439  
3062.000000	0.004594  
3061.000000	0.004647  
3060.000000	0.004603  
3059.000000	0.004526  
3058.000000	0.004473  
3057.000000	0.004452  
3056.000000	0.004437  
3055.000000	0.004431  
3054.000000	0.004462  
3053.000000	0.004519  
3052.000000	0.004524  
3051.000000	0.004424  
3050.000000	0.004285  
3049.000000	0.004250  
3048.000000	0.004389  
3047.000000	0.004627  
3046.000000	0.004822  
3045.000000	0.004884  
3044.000000	0.004820  
3043.000000	0.004704  
3042.000000	0.004622  
3041.000000	0.004632  
3040.000000	0.004737  
3039.000000	0.004894  
3038.000000	0.005041  
3037.000000	0.005137  
3036.000000	0.005175  
3035.000000	0.005179  
3034.000000	0.005188  
3033.000000	0.005231  
3032.000000	0.005331  
3031.000000	0.005498  
3030.000000	0.005717  
3029.000000	0.005931  
3028.000000	0.006076  
3027.000000	0.006147  
3026.000000	0.006215  
3025.000000	0.006370  
3024.000000	0.006643  
3023.000000	0.007002  
3022.000000	0.007377  
3021.000000	0.007678  
3020.000000	0.007835  
3019.000000	0.007872  
3018.000000	0.007929  
3017.000000	0.008162  
3016.000000	0.008591  
3015.000000	0.009088  
3014.000000	0.009504  
3013.000000	0.009776  
3012.000000	0.009921  
3011.000000	0.009978  
3010.000000	0.009995  
3009.000000	0.010025  
3008.000000	0.010107  
3007.000000	0.010236  
3006.000000	0.010361  
3005.000000	0.010419  
3004.000000	0.010358  
3003.000000	0.010176  
3002.000000	0.009953  
3001.000000	0.009813  
3000.000000	0.009835  
2999.000000	0.009995  
2998.000000	0.010195  
2997.000000	0.010354  
2996.000000	0.010450  
2995.000000	0.010530  
2994.000000	0.010669  
2993.000000	0.010938  
2992.000000	0.011361  
2991.000000	0.011896  
2990.000000	0.012478  
2989.000000	0.013066  
2988.000000	0.013668  
2987.000000	0.014332  
2986.000000	0.015121  
2985.000000	0.016067  
2984.000000	0.017137  
2983.000000	0.018261  
2982.000000	0.019411  
2981.000000	0.020649  
2980.000000	0.022073  
2979.000000	0.023724  
2978.000000	0.025586  
2977.000000	0.027662  
2976.000000	0.030023  
2975.000000	0.032761  
2974.000000	0.035900  
2973.000000	0.039386  
2972.000000	0.043148  
2971.000000	0.047169  
2970.000000	0.051508  
2969.000000	0.056262  
2968.000000	0.061459  
2967.000000	0.066978  
2966.000000	0.072573  
2965.000000	0.078023  
2964.000000	0.083256  
2963.000000	0.088318  
2962.000000	0.093229  
2961.000000	0.097925  
2960.000000	0.102295  
2959.000000	0.106221  
2958.000000	0.109557  
2957.000000	0.112139  
2956.000000	0.113861  
2955.000000	0.114716  
2954.000000	0.114751  
2953.000000	0.114007  
2952.000000	0.112556  
2951.000000	0.110562  
2950.000000	0.108278  
2949.000000	0.105977  
2948.000000	0.103880  
2947.000000	0.102136  
2946.000000	0.100852  
2945.000000	0.100148  
2944.000000	0.100182  
2943.000000	0.101118  
2942.000000	0.103042  
2941.000000	0.105926  
2940.000000	0.109662  
2939.000000	0.114146  
2938.000000	0.119305  
2937.000000	0.125072  
2936.000000	0.131350  
2935.000000	0.138010  
2934.000000	0.144927  
2933.000000	0.152046  
2932.000000	0.159387  
2931.000000	0.166970  
2930.000000	0.174715  
2929.000000	0.182418  
2928.000000	0.189813  
2927.000000	0.196614  
2926.000000	0.202529  
2925.000000	0.207300  
2924.000000	0.210776  
2923.000000	0.212895  
2922.000000	0.213597  
2921.000000	0.212838  
2920.000000	0.210690  
2919.000000	0.207364  
2918.000000	0.203107  
2917.000000	0.198138  
2916.000000	0.192693  
2915.000000	0.187035  
2914.000000	0.181373  
2913.000000	0.175802  
2912.000000	0.170360  
2911.000000	0.165132  
2910.000000	0.160227  
2909.000000	0.155674  
2908.000000	0.151372  
2907.000000	0.147165  
2906.000000	0.142951  
2905.000000	0.138721  
2904.000000	0.134528  
2903.000000	0.130445  
2902.000000	0.126534  
2901.000000	0.122808  
2900.000000	0.119224  
2899.000000	0.115699  
2898.000000	0.112176  
2897.000000	0.108669  
2896.000000	0.105236  
2895.000000	0.101936  
2894.000000	0.098773  
2893.000000	0.095689  
2892.000000	0.092591  
2891.000000	0.089426  
2890.000000	0.086256  
2889.000000	0.083246  
2888.000000	0.080562  
2887.000000	0.078271  
2886.000000	0.076352  
2885.000000	0.074783  
2884.000000	0.073596  
2883.000000	0.072871  
2882.000000	0.072681  
2881.000000	0.073070  
2880.000000	0.074057  
2879.000000	0.075664  
2878.000000	0.077921  
2877.000000	0.080801  
2876.000000	0.084133  
2875.000000	0.087580  
2874.000000	0.090739  
2873.000000	0.093296  
2872.000000	0.095105  
2871.000000	0.096174  
2870.000000	0.096641  
2869.000000	0.096748  
2868.000000	0.096786  
2867.000000	0.097019  
2866.000000	0.097652  
2865.000000	0.098878  
2864.000000	0.100864  
2863.000000	0.103670  
2862.000000	0.107204  
2861.000000	0.111299  
2860.000000	0.115808  
2859.000000	0.120581  
2858.000000	0.125390  
2857.000000	0.129894  
2856.000000	0.133690  
2855.000000	0.136332  
2854.000000	0.137384  
2853.000000	0.136564  
2852.000000	0.133898  
2851.000000	0.129696  
2850.000000	0.124341  
2849.000000	0.118143  
2848.000000	0.111350  
2847.000000	0.104229  
2846.000000	0.097069  
2845.000000	0.090102  
2844.000000	0.083411  
2843.000000	0.076956  
2842.000000	0.070693  
2841.000000	0.064673  
2840.000000	0.059020  
2839.000000	0.053828  
2838.000000	0.049124  
2837.000000	0.044906  
2836.000000	0.041163  
2835.000000	0.037848  
2834.000000	0.034869  
2833.000000	0.032147  
2832.000000	0.029686  
2831.000000	0.027547  
2830.000000	0.025762  
2829.000000	0.024276  
2828.000000	0.022983  
2827.000000	0.021789  
2826.000000	0.020657  
2825.000000	0.019599  
2824.000000	0.018641  
2823.000000	0.017795  
2822.000000	0.017058  
2821.000000	0.016420  
2820.000000	0.015874  
2819.000000	0.015392  
2818.000000	0.014936  
2817.000000	0.014471  
2816.000000	0.013995  
2815.000000	0.013522  
2814.000000	0.013059  
2813.000000	0.012592  
2812.000000	0.012113  
2811.000000	0.011644  
2810.000000	0.011232  
2809.000000	0.010921  
2808.000000	0.010717  
2807.000000	0.010591  
2806.000000	0.010499  
2805.000000	0.010396  
2804.000000	0.010238  
2803.000000	0.009988  
2802.000000	0.009653  
2801.000000	0.009299  
2800.000000	0.009015  
2799.000000	0.008847  
2798.000000	0.008770  
2797.000000	0.008727  
2796.000000	0.008682  
2795.000000	0.008615  
2794.000000	0.008496  
2793.000000	0.008283  
2792.000000	0.007966  
2791.000000	0.007600  
2790.000000	0.007283  
2789.000000	0.007090  
2788.000000	0.007033  
2787.000000	0.007065  
2786.000000	0.007115  
2785.000000	0.007119  
2784.000000	0.007049  
2783.000000	0.006915  
2782.000000	0.006765  
2781.000000	0.006652  
2780.000000	0.006601  
2779.000000	0.006592  
2778.000000	0.006563  
2777.000000	0.006451  
2776.000000	0.006235  
2775.000000	0.005965  
2774.000000	0.005746  
2773.000000	0.005661  
2772.000000	0.005708  
2771.000000	0.005801  
2770.000000	0.005847  
2769.000000	0.005808  
2768.000000	0.005695  
2767.000000	0.005538  
2766.000000	0.005375  
2765.000000	0.005264  
2764.000000	0.005257  
2763.000000	0.005351  
2762.000000	0.005474  
2761.000000	0.005545  
2760.000000	0.005529  
2759.000000	0.005444  
2758.000000	0.005331  
2757.000000	0.005226  
2756.000000	0.005156  
2755.000000	0.005132  
2754.000000	0.005137  
2753.000000	0.005132  
2752.000000	0.005090  
2751.000000	0.005020  
2750.000000	0.004965  
2749.000000	0.004964  
2748.000000	0.005010  
2747.000000	0.005047  
2746.000000	0.005028  
2745.000000	0.004960  
2744.000000	0.004900  
2743.000000	0.004897  
2742.000000	0.004951  
2741.000000	0.005037  
2740.000000	0.005137  
2739.000000	0.005240  
2738.000000	0.005326  
2737.000000	0.005393  
2736.000000	0.005466  
2735.000000	0.005581  
2734.000000	0.005728  
2733.000000	0.005840  
2732.000000	0.005848  
2731.000000	0.005747  
2730.000000	0.005608  
2729.000000	0.005530  
2728.000000	0.005556  
2727.000000	0.005641  
2726.000000	0.005688  
2725.000000	0.005635  
2724.000000	0.005504  
2723.000000	0.005369  
2722.000000	0.005280  
2721.000000	0.005251  
2720.000000	0.005276  
2719.000000	0.005338  
2718.000000	0.005398  
2717.000000	0.005413  
2716.000000	0.005382  
2715.000000	0.005343  
2714.000000	0.005297  
2713.000000	0.005193  
2712.000000	0.004998  
2711.000000	0.004776  
2710.000000	0.004639  
2709.000000	0.004623  
2708.000000	0.004667  
2707.000000	0.004689  
2706.000000	0.004668  
2705.000000	0.004619  
2704.000000	0.004535  
2703.000000	0.004403  
2702.000000	0.004240  
2701.000000	0.004100  
2700.000000	0.004021  
2699.000000	0.003998  
2698.000000	0.004013  
2697.000000	0.004064  
2696.000000	0.004162  
2695.000000	0.004301  
2694.000000	0.004456  
2693.000000	0.004589  
2692.000000	0.004669  
2691.000000	0.004693  
2690.000000	0.004699  
2689.000000	0.004748  
2688.000000	0.004864  
2687.000000	0.004990  
2686.000000	0.005044  
2685.000000	0.005006  
2684.000000	0.004946  
2683.000000	0.004949  
2682.000000	0.005025  
2681.000000	0.005116  
2680.000000	0.005157  
2679.000000	0.005130  
2678.000000	0.005065  
2677.000000	0.005019  
2676.000000	0.005048  
2675.000000	0.005154  
2674.000000	0.005272  
2673.000000	0.005318  
2672.000000	0.005260  
2671.000000	0.005141  
2670.000000	0.005034  
2669.000000	0.004992  
2668.000000	0.005038  
2667.000000	0.005158  
2666.000000	0.005301  
2665.000000	0.005394  
2664.000000	0.005393  
2663.000000	0.005298  
2662.000000	0.005130  
2661.000000	0.004918  
2660.000000	0.004712  
2659.000000	0.004568  
2658.000000	0.004500  
2657.000000	0.004465  
2656.000000	0.004428  
2655.000000	0.004406  
2654.000000	0.004433  
2653.000000	0.004484  
2652.000000	0.004502  
2651.000000	0.004472  
2650.000000	0.004434  
2649.000000	0.004421  
2648.000000	0.004424  
2647.000000	0.004425  
2646.000000	0.004421  
2645.000000	0.004408  
2644.000000	0.004379  
2643.000000	0.004355  
2642.000000	0.004385  
2641.000000	0.004478  
2640.000000	0.004562  
2639.000000	0.004539  
2638.000000	0.004381  
2637.000000	0.004156  
2636.000000	0.003970  
2635.000000	0.003909  
2634.000000	0.003996  
2633.000000	0.004173  
2632.000000	0.004340  
2631.000000	0.004420  
2630.000000	0.004402  
2629.000000	0.004322  
2628.000000	0.004235  
2627.000000	0.004197  
2626.000000	0.004241  
2625.000000	0.004331  
2624.000000	0.004365  
2623.000000	0.004259  
2622.000000	0.004037  
2621.000000	0.003796  
2620.000000	0.003619  
2619.000000	0.003528  
2618.000000	0.003522  
2617.000000	0.003600  
2616.000000	0.003736  
2615.000000	0.003868  
2614.000000	0.003949  
2613.000000	0.003975  
2612.000000	0.003974  
2611.000000	0.003964  
2610.000000	0.003964  
2609.000000	0.003995  
2608.000000	0.004071  
2607.000000	0.004175  
2606.000000	0.004269  
2605.000000	0.004309  
2604.000000	0.004262  
2603.000000	0.004129  
2602.000000	0.003981  
2601.000000	0.003927  
2600.000000	0.004009  
2599.000000	0.004131  
2598.000000	0.004137  
2597.000000	0.003985  
2596.000000	0.003795  
2595.000000	0.003711  
2594.000000	0.003720  
2593.000000	0.003669  
2592.000000	0.003455  
2591.000000	0.003153  
2590.000000	0.002945  
2589.000000	0.002927  
2588.000000	0.003048  
2587.000000	0.003204  
2586.000000	0.003344  
2585.000000	0.003454  
2584.000000	0.003495  
2583.000000	0.003417  
2582.000000	0.003244  
2581.000000	0.003086  
2580.000000	0.003052  
2579.000000	0.003158  
2578.000000	0.003335  
2577.000000	0.003496  
2576.000000	0.003583  
2575.000000	0.003572  
2574.000000	0.003482  
2573.000000	0.003370  
2572.000000	0.003287  
2571.000000	0.003226  
2570.000000	0.003136  
2569.000000	0.002989  
2568.000000	0.002825  
2567.000000	0.002702  
2566.000000	0.002632  
2565.000000	0.002577  
2564.000000	0.002511  
2563.000000	0.002458  
2562.000000	0.002459  
2561.000000	0.002525  
2560.000000	0.002633  
2559.000000	0.002758  
2558.000000	0.002894  
2557.000000	0.003042  
2556.000000	0.003178  
2555.000000	0.003243  
2554.000000	0.003182  
2553.000000	0.003027  
2552.000000	0.002907  
2551.000000	0.002960  
2550.000000	0.003193  
2549.000000	0.003464  
2548.000000	0.003599  
2547.000000	0.003526  
2546.000000	0.003282  
2545.000000	0.002959  
2544.000000	0.002673  
2543.000000	0.002523  
2542.000000	0.002522  
2541.000000	0.002569  
2540.000000	0.002554  
2539.000000	0.002483  
2538.000000	0.002461  
2537.000000	0.002547  
2536.000000	0.002669  
2535.000000	0.002713  
2534.000000	0.002646  
2533.000000	0.002534  
2532.000000	0.002465  
2531.000000	0.002475  
2530.000000	0.002518  
2529.000000	0.002502  
2528.000000	0.002383  
2527.000000	0.002249  
2526.000000	0.002256  
2525.000000	0.002457  
2524.000000	0.002753  
2523.000000	0.002997  
2522.000000	0.003116  
2521.000000	0.003092  
2520.000000	0.002924  
2519.000000	0.002673  
2518.000000	0.002504  
2517.000000	0.002561  
2516.000000	0.002809  
2515.000000	0.003061  
2514.000000	0.003164  
2513.000000	0.003114  
2512.000000	0.002990  
2511.000000	0.002846  
2510.000000	0.002699  
2509.000000	0.002577  
2508.000000	0.002524  
2507.000000	0.002580  
2506.000000	0.002742  
2505.000000	0.002933  
2504.000000	0.003019  
2503.000000	0.002922  
2502.000000	0.002720  
2501.000000	0.002598  
2500.000000	0.002656  
2499.000000	0.002793  
2498.000000	0.002795  
2497.000000	0.002531  
2496.000000	0.002058  
2495.000000	0.001588  
2494.000000	0.001358  
2493.000000	0.001485  
2492.000000	0.001906  
2491.000000	0.002430  
2490.000000	0.002868  
2489.000000	0.003121  
2488.000000	0.003171  
2487.000000	0.003043  
2486.000000	0.002781  
2485.000000	0.002446  
2484.000000	0.002104  
2483.000000	0.001840  
2482.000000	0.001758  
2481.000000	0.001926  
2480.000000	0.002294  
2479.000000	0.002688  
2478.000000	0.002926  
2477.000000	0.002936  
2476.000000	0.002774  
2475.000000	0.002551  
2474.000000	0.002356  
2473.000000	0.002239  
2472.000000	0.002194  
2471.000000	0.002166  
2470.000000	0.002095  
2469.000000	0.001979  
2468.000000	0.001908  
2467.000000	0.001990  
2466.000000	0.002234  
2465.000000	0.002506  
2464.000000	0.002632  
2463.000000	0.002558  
2462.000000	0.002380  
2461.000000	0.002219  
2460.000000	0.002126  
2459.000000	0.002112  
2458.000000	0.002212  
2457.000000	0.002419  
2456.000000	0.002597  
2455.000000	0.002570  
2454.000000	0.002322  
2453.000000	0.002029  
2452.000000	0.001859  
2451.000000	0.001803  
2450.000000	0.001758  
2449.000000	0.001708  
2448.000000	0.001745  
2447.000000	0.001927  
2446.000000	0.002187  
2445.000000	0.002383  
2444.000000	0.002421  
2443.000000	0.002324  
2442.000000	0.002221  
2441.000000	0.002240  
2440.000000	0.002370  
2439.000000	0.002469  
2438.000000	0.002422  
2437.000000	0.002279  
2436.000000	0.002172  
2435.000000	0.002142  
2434.000000	0.002103  
2433.000000	0.001983  
2432.000000	0.001823  
2431.000000	0.001725  
2430.000000	0.001731  
2429.000000	0.001807  
2428.000000	0.001906  
2427.000000	0.002007  
2426.000000	0.002114  
2425.000000	0.002225  
2424.000000	0.002323  
2423.000000	0.002387  
2422.000000	0.002416  
2421.000000	0.002442  
2420.000000	0.002494  
2419.000000	0.002557  
2418.000000	0.002576  
2417.000000	0.002515  
2416.000000	0.002403  
2415.000000	0.002318  
2414.000000	0.002323  
2413.000000	0.002431  
2412.000000	0.002596  
2411.000000	0.002742  
2410.000000	0.002822  
2409.000000	0.002838  
2408.000000	0.002826  
2407.000000	0.002792  
2406.000000	0.002703  
2405.000000	0.002528  
2404.000000	0.002296  
2403.000000	0.002083  
2402.000000	0.001950  
2401.000000	0.001905  
2400.000000	0.001929  
2399.000000	0.002020  
2398.000000	0.002187  
2397.000000	0.002401  
2396.000000	0.002593  
2395.000000	0.002709  
2394.000000	0.002768  
2393.000000	0.002840  
2392.000000	0.002972  
2391.000000	0.003139  
2390.000000	0.003278  
2389.000000	0.003367  
2388.000000	0.003473  
2387.000000	0.003724  
2386.000000	0.004209  
2385.000000	0.004861  
2384.000000	0.005431  
2383.000000	0.005608  
2382.000000	0.005214  
2381.000000	0.004329  
2380.000000	0.003240  
2379.000000	0.002276  
2378.000000	0.001618  
2377.000000	0.001254  
2376.000000	0.001106  
2375.000000	0.001188  
2374.000000	0.001581  
2373.000000	0.002264  
2372.000000	0.003055  
2371.000000	0.003773  
2370.000000	0.004359  
2369.000000	0.004767  
2368.000000	0.004873  
2367.000000	0.004636  
2366.000000	0.004243  
2365.000000	0.003886  
2364.000000	0.003523  
2363.000000	0.003063  
2362.000000	0.002647  
2361.000000	0.002663  
2360.000000	0.003451  
2359.000000	0.004704  
2358.000000	0.005537  
2357.000000	0.005323  
2356.000000	0.004314  
2355.000000	0.003252  
2354.000000	0.002411  
2353.000000	0.001871  
2352.000000	0.001836  
2351.000000	0.002380  
2350.000000	0.003183  
2349.000000	0.003674  
2348.000000	0.003592  
2347.000000	0.003137  
2346.000000	0.003027  
2345.000000	0.003799  
2344.000000	0.004959  
2343.000000	0.005601  
2342.000000	0.005090  
2341.000000	0.003864  
2340.000000	0.002877  
2339.000000	0.002518  
2338.000000	0.002345  
2337.000000	0.001877  
2336.000000	0.001316  
2335.000000	0.001045  
2334.000000	0.001111  
2333.000000	0.001307  
2332.000000	0.001730  
2331.000000	0.002465  
2330.000000	0.003507  
2329.000000	0.004475  
2328.000000	0.005347  
2327.000000	0.006016  
2326.000000	0.006387  
2325.000000	0.006305  
2324.000000	0.005819  
2323.000000	0.005171  
2322.000000	0.004527  
2321.000000	0.004097  
2320.000000	0.004124  
2319.000000	0.004662  
2318.000000	0.005402  
2317.000000	0.005748  
2316.000000	0.005463  
2315.000000	0.004740  
2314.000000	0.004198  
2313.000000	0.004182  
2312.000000	0.004692  
2311.000000	0.005301  
2310.000000	0.005767  
2309.000000	0.006018  
2308.000000	0.006184  
2307.000000	0.006211  
2306.000000	0.006046  
2305.000000	0.005709  
2304.000000	0.005413  
2303.000000	0.005268  
2302.000000	0.005255  
2301.000000	0.005214  
2300.000000	0.005120  
2299.000000	0.005021  
2298.000000	0.005036  
2297.000000	0.005139  
2296.000000	0.005246  
2295.000000	0.005222  
2294.000000	0.005077  
2293.000000	0.004895  
2292.000000	0.004744  
2291.000000	0.004559  
2290.000000	0.004262  
2289.000000	0.003898  
2288.000000	0.003569  
2287.000000	0.003269  
2286.000000	0.002895  
2285.000000	0.002470  
2284.000000	0.002175  
2283.000000	0.002137  
2282.000000	0.002237  
2281.000000	0.002301  
2280.000000	0.002342  
2279.000000	0.002508  
2278.000000	0.002799  
2277.000000	0.003032  
2276.000000	0.003113  
2275.000000	0.003207  
2274.000000	0.003528  
2273.000000	0.004027  
2272.000000	0.004413  
2271.000000	0.004457  
2270.000000	0.004201  
2269.000000	0.003842  
2268.000000	0.003480  
2267.000000	0.003072  
2266.000000	0.002619  
2265.000000	0.002281  
2264.000000	0.002226  
2263.000000	0.002411  
2262.000000	0.002619  
2261.000000	0.002717  
2260.000000	0.002734  
2259.000000	0.002732  
2258.000000	0.002720  
2257.000000	0.002764  
2256.000000	0.002992  
2255.000000	0.003382  
2254.000000	0.003666  
2253.000000	0.003599  
2252.000000	0.003279  
2251.000000	0.003021  
2250.000000	0.002979  
2249.000000	0.003003  
2248.000000	0.002881  
2247.000000	0.002558  
2246.000000	0.002132  
2245.000000	0.001744  
2244.000000	0.001525  
2243.000000	0.001530  
2242.000000	0.001703  
2241.000000	0.001930  
2240.000000	0.002148  
2239.000000	0.002334  
2238.000000	0.002425  
2237.000000	0.002340  
2236.000000	0.002117  
2235.000000	0.001917  
2234.000000	0.001873  
2233.000000	0.001971  
2232.000000	0.002092  
2231.000000	0.002109  
2230.000000	0.001959  
2229.000000	0.001689  
2228.000000	0.001457  
2227.000000	0.001405  
2226.000000	0.001514  
2225.000000	0.001621  
2224.000000	0.001582  
2223.000000	0.001360  
2222.000000	0.001027  
2221.000000	0.000762  
2220.000000	0.000795  
2219.000000	0.001183  
2218.000000	0.001681  
2217.000000	0.001985  
2216.000000	0.002115  
2215.000000	0.002355  
2214.000000	0.002794  
2213.000000	0.003164  
2212.000000	0.003239  
2211.000000	0.003153  
2210.000000	0.003136  
2209.000000	0.003113  
2208.000000	0.002832  
2207.000000	0.002296  
2206.000000	0.001834  
2205.000000	0.001736  
2204.000000	0.002010  
2203.000000	0.002507  
2202.000000	0.003098  
2201.000000	0.003652  
2200.000000	0.004013  
2199.000000	0.004115  
2198.000000	0.004061  
2197.000000	0.003998  
2196.000000	0.003946  
2195.000000	0.003801  
2194.000000	0.003490  
2193.000000	0.003056  
2192.000000	0.002599  
2191.000000	0.002170  
2190.000000	0.001766  
2189.000000	0.001424  
2188.000000	0.001274  
2187.000000	0.001433  
2186.000000	0.001866  
2185.000000	0.002368  
2184.000000	0.002705  
2183.000000	0.002767  
2182.000000	0.002609  
2181.000000	0.002413  
2180.000000	0.002366  
2179.000000	0.002505  
2178.000000	0.002682  
2177.000000	0.002753  
2176.000000	0.002763  
2175.000000	0.002809  
2174.000000	0.002776  
2173.000000	0.002444  
2172.000000	0.001907  
2171.000000	0.001622  
2170.000000	0.001866  
2169.000000	0.002326  
2168.000000	0.002454  
2167.000000	0.002154  
2166.000000	0.001854  
2165.000000	0.001905  
2164.000000	0.002155  
2163.000000	0.002232  
2162.000000	0.002040  
2161.000000	0.001822  
2160.000000	0.001845  
2159.000000	0.002136  
2158.000000	0.002517  
2157.000000	0.002809  
2156.000000	0.002947  
2155.000000	0.002949  
2154.000000	0.002843  
2153.000000	0.002673  
2152.000000	0.002541  
2151.000000	0.002539  
2150.000000	0.002598  
2149.000000	0.002512  
2148.000000	0.002194  
2147.000000	0.001842  
2146.000000	0.001759  
2145.000000	0.002032  
2144.000000	0.002473  
2143.000000	0.002824  
2142.000000	0.002907  
2141.000000	0.002644  
2140.000000	0.002093  
2139.000000	0.001507  
2138.000000	0.001228  
2137.000000	0.001429  
2136.000000	0.001951  
2135.000000	0.002449  
2134.000000	0.002659  
2133.000000	0.002569  
2132.000000	0.002364  
2131.000000	0.002253  
2130.000000	0.002315  
2129.000000	0.002470  
2128.000000	0.002602  
2127.000000	0.002657  
2126.000000	0.002616  
2125.000000	0.002449  
2124.000000	0.002180  
2123.000000	0.001973  
2122.000000	0.002039  
2121.000000	0.002410  
2120.000000	0.002852  
2119.000000	0.003054  
2118.000000	0.002904  
2117.000000	0.002592  
2116.000000	0.002436  
2115.000000	0.002592  
2114.000000	0.002879  
2113.000000	0.002937  
2112.000000	0.002614  
2111.000000	0.002162  
2110.000000	0.001969  
2109.000000	0.002121  
2108.000000	0.002336  
2107.000000	0.002341  
2106.000000	0.002164  
2105.000000	0.001992  
2104.000000	0.001893  
2103.000000	0.001784  
2102.000000	0.001617  
2101.000000	0.001427  
2100.000000	0.001237  
2099.000000	0.001032  
2098.000000	0.000848  
2097.000000	0.000778  
2096.000000	0.000860  
2095.000000	0.001024  
2094.000000	0.001197  
2093.000000	0.001381  
2092.000000	0.001591  
2091.000000	0.001766  
2090.000000	0.001811  
2089.000000	0.001734  
2088.000000	0.001699  
2087.000000	0.001889  
2086.000000	0.002296  
2085.000000	0.002678  
2084.000000	0.002766  
2083.000000	0.002517  
2082.000000	0.002160  
2081.000000	0.001982  
2080.000000	0.002081  
2079.000000	0.002332  
2078.000000	0.002509  
2077.000000	0.002463  
2076.000000	0.002235  
2075.000000	0.002049  
2074.000000	0.002135  
2073.000000	0.002503  
2072.000000	0.002898  
2071.000000	0.003048  
2070.000000	0.002904  
2069.000000	0.002607  
2068.000000	0.002300  
2067.000000	0.002056  
2066.000000	0.001955  
2065.000000	0.002061  
2064.000000	0.002317  
2063.000000	0.002566  
2062.000000	0.002709  
2061.000000	0.002750  
2060.000000	0.002687  
2059.000000	0.002491  
2058.000000	0.002237  
2057.000000	0.002113  
2056.000000	0.002182  
2055.000000	0.002237  
2054.000000	0.002034  
2053.000000	0.001634  
2052.000000	0.001352  
2051.000000	0.001389  
2050.000000	0.001690  
2049.000000	0.002139  
2048.000000	0.002709  
2047.000000	0.003269  
2046.000000	0.003434  
2045.000000	0.002897  
2044.000000	0.001885  
2043.000000	0.001054  
2042.000000	0.000867  
2041.000000	0.001236  
2040.000000	0.001804  
2039.000000	0.002365  
2038.000000	0.002852  
2037.000000	0.003102  
2036.000000	0.002985  
2035.000000	0.002701  
2034.000000	0.002667  
2033.000000	0.003003  
2032.000000	0.003341  
2031.000000	0.003258  
2030.000000	0.002698  
2029.000000	0.001900  
2028.000000	0.001099  
2027.000000	0.000445  
2026.000000	0.000068  
2025.000000	0.000009  
2024.000000	0.000140  
2023.000000	0.000340  
2022.000000	0.000685  
2021.000000	0.001266  
2020.000000	0.001893  
2019.000000	0.002210  
2018.000000	0.002106  
2017.000000	0.001807  
2016.000000	0.001524  
2015.000000	0.001257  
2014.000000	0.001041  
2013.000000	0.001091  
2012.000000	0.001431  
2011.000000	0.001608  
2010.000000	0.001114  
2009.000000	0.000075  
2008.000000	-0.000742 
2007.000000	-0.000735 
2006.000000	-0.000025 
2005.000000	0.000858  
2004.000000	0.001577  
2003.000000	0.002129  
2002.000000	0.002610  
2001.000000	0.003055  
2000.000000	0.003414  
1999.000000	0.003527  
1998.000000	0.003186  
1997.000000	0.002386  
1996.000000	0.001479  
1995.000000	0.000916  
1994.000000	0.000867  
1993.000000	0.001148  
1992.000000	0.001493  
1991.000000	0.001785  
1990.000000	0.002025  
1989.000000	0.002237  
1988.000000	0.002461  
1987.000000	0.002715  
1986.000000	0.002905  
1985.000000	0.002888  
1984.000000	0.002693  
1983.000000	0.002518  
1982.000000	0.002457  
1981.000000	0.002375  
1980.000000	0.002169  
1979.000000	0.001994  
1978.000000	0.002016  
1977.000000	0.002064  
1976.000000	0.001833  
1975.000000	0.001386  
1974.000000	0.001098  
1973.000000	0.001137  
1972.000000	0.001300  
1971.000000	0.001395  
1970.000000	0.001483  
1969.000000	0.001656  
1968.000000	0.001811  
1967.000000	0.001837  
1966.000000	0.001852  
1965.000000	0.002033  
1964.000000	0.002333  
1963.000000	0.002543  
1962.000000	0.002551  
1961.000000	0.002413  
1960.000000	0.002246  
1959.000000	0.002157  
1958.000000	0.002212  
1957.000000	0.002353  
1956.000000	0.002376  
1955.000000	0.002109  
1954.000000	0.001626  
1953.000000	0.001201  
1952.000000	0.001083  
1951.000000	0.001343  
1950.000000	0.001864  
1949.000000	0.002377  
1948.000000	0.002595  
1947.000000	0.002451  
1946.000000	0.002181  
1945.000000	0.002090  
1944.000000	0.002226  
1943.000000	0.002388  
1942.000000	0.002422  
1941.000000	0.002368  
1940.000000	0.002292  
1939.000000	0.002165  
1938.000000	0.002012  
1937.000000	0.001989  
1936.000000	0.002221  
1935.000000	0.002627  
1934.000000	0.003003  
1933.000000	0.003209  
1932.000000	0.003234  
1931.000000	0.003122  
1930.000000	0.002905  
1929.000000	0.002636  
1928.000000	0.002391  
1927.000000	0.002215  
1926.000000	0.002110  
1925.000000	0.002061  
1924.000000	0.002053  
1923.000000	0.002065  
1922.000000	0.002105  
1921.000000	0.002224  
1920.000000	0.002435  
1919.000000	0.002636  
1918.000000	0.002682  
1917.000000	0.002587  
1916.000000	0.002515  
1915.000000	0.002522  
1914.000000	0.002475  
1913.000000	0.002256  
1912.000000	0.001948  
1911.000000	0.001753  
1910.000000	0.001762  
1909.000000	0.001898  
1908.000000	0.002053  
1907.000000	0.002174  
1906.000000	0.002212  
1905.000000	0.002123  
1904.000000	0.001945  
1903.000000	0.001798  
1902.000000	0.001773  
1901.000000	0.001855  
1900.000000	0.001979  
1899.000000	0.002088  
1898.000000	0.002154  
1897.000000	0.002169  
1896.000000	0.002166  
1895.000000	0.002215  
1894.000000	0.002343  
1893.000000	0.002504  
1892.000000	0.002629  
1891.000000	0.002695  
1890.000000	0.002718  
1889.000000	0.002713  
1888.000000	0.002676  
1887.000000	0.002590  
1886.000000	0.002466  
1885.000000	0.002363  
1884.000000	0.002328  
1883.000000	0.002322  
1882.000000	0.002259  
1881.000000	0.002141  
1880.000000	0.002073  
1879.000000	0.002119  
1878.000000	0.002210  
1877.000000	0.002255  
1876.000000	0.002288  
1875.000000	0.002414  
1874.000000	0.002630  
1873.000000	0.002810  
1872.000000	0.002869  
1871.000000	0.002827  
1870.000000	0.002707  
1869.000000	0.002482  
1868.000000	0.002219  
1867.000000	0.002101  
1866.000000	0.002194  
1865.000000	0.002398  
1864.000000	0.002570  
1863.000000	0.002645  
1862.000000	0.002626  
1861.000000	0.002529  
1860.000000	0.002396  
1859.000000	0.002328  
1858.000000	0.002406  
1857.000000	0.002592  
1856.000000	0.002736  
1855.000000	0.002700  
1854.000000	0.002478  
1853.000000	0.002217  
1852.000000	0.002103  
1851.000000	0.002195  
1850.000000	0.002361  
1849.000000	0.002395  
1848.000000	0.002238  
1847.000000	0.002053  
1846.000000	0.002050  
1845.000000	0.002266  
1844.000000	0.002508  
1843.000000	0.002574  
1842.000000	0.002451  
1841.000000	0.002257  
1840.000000	0.002111  
1839.000000	0.002091  
1838.000000	0.002211  
1837.000000	0.002393  
1836.000000	0.002521  
1835.000000	0.002553  
1834.000000	0.002525  
1833.000000	0.002459  
1832.000000	0.002334  
1831.000000	0.002180  
1830.000000	0.002140  
1829.000000	0.002293  
1828.000000	0.002524  
1827.000000	0.002674  
1826.000000	0.002700  
1825.000000	0.002650  
1824.000000	0.002615  
1823.000000	0.002663  
1822.000000	0.002775  
1821.000000	0.002829  
1820.000000	0.002698  
1819.000000	0.002418  
1818.000000	0.002197  
1817.000000	0.002203  
1816.000000	0.002385  
1815.000000	0.002571  
1814.000000	0.002651  
1813.000000	0.002617  
1812.000000	0.002514  
1811.000000	0.002435  
1810.000000	0.002470  
1809.000000	0.002616  
1808.000000	0.002791  
1807.000000	0.002909  
1806.000000	0.002938  
1805.000000	0.002905  
1804.000000	0.002869  
1803.000000	0.002881  
1802.000000	0.002961  
1801.000000	0.003080  
1800.000000	0.003198  
1799.000000	0.003295  
1798.000000	0.003344  
1797.000000	0.003327  
1796.000000	0.003273  
1795.000000	0.003225  
1794.000000	0.003198  
1793.000000	0.003177  
1792.000000	0.003144  
1791.000000	0.003119  
1790.000000	0.003101  
1789.000000	0.003064  
1788.000000	0.003016  
1787.000000	0.002995  
1786.000000	0.003024  
1785.000000	0.003065  
1784.000000	0.003044  
1783.000000	0.002934  
1782.000000	0.002816  
1781.000000	0.002827  
1780.000000	0.003024  
1779.000000	0.003307  
1778.000000	0.003532  
1777.000000	0.003643  
1776.000000	0.003683  
1775.000000	0.003701  
1774.000000	0.003702  
1773.000000	0.003652  
1772.000000	0.003521  
1771.000000	0.003373  
1770.000000	0.003317  
1769.000000	0.003409  
1768.000000	0.003603  
1767.000000	0.003790  
1766.000000	0.003927  
1765.000000	0.004070  
1764.000000	0.004281  
1763.000000	0.004546  
1762.000000	0.004814  
1761.000000	0.005065  
1760.000000	0.005308  
1759.000000	0.005554  
1758.000000	0.005842  
1757.000000	0.006226  
1756.000000	0.006702  
1755.000000	0.007227  
1754.000000	0.007875  
1753.000000	0.008872  
1752.000000	0.010416  
1751.000000	0.012461  
1750.000000	0.014887  
1749.000000	0.017792  
1748.000000	0.021241  
1747.000000	0.025043  
1746.000000	0.029005  
1745.000000	0.033018  
1744.000000	0.036728  
1743.000000	0.039505  
1742.000000	0.040913  
1741.000000	0.040797  
1740.000000	0.039106  
1739.000000	0.036251  
1738.000000	0.033119  
1737.000000	0.030166  
1736.000000	0.027062  
1735.000000	0.023243  
1734.000000	0.019097  
1733.000000	0.015905  
1732.000000	0.013842  
1731.000000	0.012283  
1730.000000	0.010914  
1729.000000	0.009770  
1728.000000	0.008906  
1727.000000	0.008269  
1726.000000	0.007776  
1725.000000	0.007349  
1724.000000	0.006925  
1723.000000	0.006503  
1722.000000	0.006144  
1721.000000	0.005877  
1720.000000	0.005667  
1719.000000	0.005486  
1718.000000	0.005346  
1717.000000	0.005169  
1716.000000	0.004938  
1715.000000	0.004756  
1714.000000	0.004668  
1713.000000	0.004619  
1712.000000	0.004539  
1711.000000	0.004403  
1710.000000	0.004244  
1709.000000	0.004102  
1708.000000	0.004004  
1707.000000	0.003998  
1706.000000	0.004106  
1705.000000	0.004268  
1704.000000	0.004431  
1703.000000	0.004650  
1702.000000	0.004940  
1701.000000	0.005112  
1700.000000	0.004944  
1699.000000	0.004683  
1698.000000	0.004541  
1697.000000	0.004469  
1696.000000	0.004365  
1695.000000	0.004279  
1694.000000	0.004215  
1693.000000	0.004105  
1692.000000	0.003961  
1691.000000	0.003846  
1690.000000	0.003822  
1689.000000	0.003873  
1688.000000	0.003930  
1687.000000	0.003987  
1686.000000	0.004054  
1685.000000	0.004093  
1684.000000	0.004019  
1683.000000	0.003979  
1682.000000	0.004004  
1681.000000	0.004045  
1680.000000	0.004040  
1679.000000	0.003976  
1678.000000	0.003868  
1677.000000	0.003736  
1676.000000	0.003614  
1675.000000	0.003567  
1674.000000	0.003653  
1673.000000	0.003812  
1672.000000	0.003968  
1671.000000	0.004076  
1670.000000	0.004127  
1669.000000	0.004158  
1668.000000	0.004181  
1667.000000	0.004176  
1666.000000	0.004183  
1665.000000	0.004253  
1664.000000	0.004373  
1663.000000	0.004478  
1662.000000	0.004523  
1661.000000	0.004532  
1660.000000	0.004551  
1659.000000	0.004572  
1658.000000	0.004580  
1657.000000	0.004549  
1656.000000	0.004518  
1655.000000	0.004481  
1654.000000	0.004490  
1653.000000	0.004572  
1652.000000	0.004819  
1651.000000	0.004920  
1650.000000	0.004953  
1649.000000	0.004987  
1648.000000	0.005032  
1647.000000	0.004962  
1646.000000	0.004769  
1645.000000	0.004565  
1644.000000	0.004389  
1643.000000	0.004283  
1642.000000	0.004276  
1641.000000	0.004319  
1640.000000	0.004336  
1639.000000	0.004301  
1638.000000	0.004264  
1637.000000	0.004269  
1636.000000	0.004287  
1635.000000	0.004266  
1634.000000	0.004239  
1633.000000	0.004226  
1632.000000	0.004243  
1631.000000	0.004265  
1630.000000	0.004268  
1629.000000	0.004263  
1628.000000	0.004273  
1627.000000	0.004289  
1626.000000	0.004304  
1625.000000	0.004343  
1624.000000	0.004409  
1623.000000	0.004451  
1622.000000	0.004451  
1621.000000	0.004456  
1620.000000	0.004499  
1619.000000	0.004563  
1618.000000	0.004610  
1617.000000	0.004650  
1616.000000	0.004728  
1615.000000	0.004806  
1614.000000	0.004829  
1613.000000	0.004841  
1612.000000	0.004898  
1611.000000	0.005006  
1610.000000	0.005123  
1609.000000	0.005213  
1608.000000	0.005246  
1607.000000	0.005192  
1606.000000	0.005071  
1605.000000	0.004954  
1604.000000	0.004877  
1603.000000	0.004804  
1602.000000	0.004701  
1601.000000	0.004589  
1600.000000	0.004488  
1599.000000	0.004375  
1598.000000	0.004249  
1597.000000	0.004172  
1596.000000	0.004201  
1595.000000	0.004303  
1594.000000	0.004391  
1593.000000	0.004436  
1592.000000	0.004481  
1591.000000	0.004553  
1590.000000	0.004620  
1589.000000	0.004644  
1588.000000	0.004617  
1587.000000	0.004548  
1586.000000	0.004460  
1585.000000	0.004389  
1584.000000	0.004355  
1583.000000	0.004352  
1582.000000	0.004362  
1581.000000	0.004392  
1580.000000	0.004453  
1579.000000	0.004541  
1578.000000	0.004619  
1577.000000	0.004638  
1576.000000	0.004577  
1575.000000	0.004505  
1574.000000	0.004504  
1573.000000	0.004605  
1572.000000	0.004765  
1571.000000	0.004873  
1570.000000	0.004847  
1569.000000	0.004762  
1568.000000	0.004723  
1567.000000	0.004685  
1566.000000	0.004598  
1565.000000	0.004458  
1564.000000	0.004285  
1563.000000	0.004107  
1562.000000	0.003962  
1561.000000	0.003942  
1560.000000	0.004096  
1559.000000	0.004213  
1558.000000	0.004158  
1557.000000	0.004239  
1556.000000	0.004423  
1555.000000	0.004623  
1554.000000	0.004784  
1553.000000	0.004831  
1552.000000	0.004732  
1551.000000	0.004543  
1550.000000	0.004371  
1549.000000	0.004316  
1548.000000	0.004360  
1547.000000	0.004439  
1546.000000	0.004527  
1545.000000	0.004600  
1544.000000	0.004597  
1543.000000	0.004547  
1542.000000	0.004568  
1541.000000	0.004678  
1540.000000	0.004712  
1539.000000	0.004694  
1538.000000	0.004743  
1537.000000	0.004844  
1536.000000	0.004961  
1535.000000	0.005034  
1534.000000	0.004995  
1533.000000	0.004837  
1532.000000	0.004679  
1531.000000	0.004584  
1530.000000	0.004538  
1529.000000	0.004521  
1528.000000	0.004554  
1527.000000	0.004688  
1526.000000	0.004938  
1525.000000	0.005190  
1524.000000	0.005318  
1523.000000	0.005330  
1522.000000	0.005357  
1521.000000	0.005453  
1520.000000	0.005554  
1519.000000	0.005581  
1518.000000	0.005583  
1517.000000	0.005621  
1516.000000	0.005693  
1515.000000	0.005803  
1514.000000	0.005985  
1513.000000	0.006227  
1512.000000	0.006429  
1511.000000	0.006530  
1510.000000	0.006623  
1509.000000	0.006873  
1508.000000	0.007271  
1507.000000	0.007600  
1506.000000	0.007872  
1505.000000	0.008147  
1504.000000	0.008224  
1503.000000	0.008170  
1502.000000	0.008120  
1501.000000	0.008127  
1500.000000	0.008140  
1499.000000	0.008187  
1498.000000	0.008475  
1497.000000	0.009060  
1496.000000	0.009574  
1495.000000	0.009786  
1494.000000	0.009894  
1493.000000	0.010076  
1492.000000	0.010250  
1491.000000	0.010299  
1490.000000	0.010352  
1489.000000	0.010588  
1488.000000	0.010932  
1487.000000	0.011273  
1486.000000	0.011651  
1485.000000	0.012137  
1484.000000	0.012700  
1483.000000	0.013325  
1482.000000	0.014115  
1481.000000	0.015117  
1480.000000	0.016216  
1479.000000	0.017380  
1478.000000	0.018800  
1477.000000	0.020611  
1476.000000	0.022680  
1475.000000	0.025082  
1474.000000	0.028615  
1473.000000	0.034144  
1472.000000	0.041097  
1471.000000	0.048042  
1470.000000	0.054453  
1469.000000	0.060359  
1468.000000	0.065571  
1467.000000	0.069919  
1466.000000	0.073561  
1465.000000	0.076612  
1464.000000	0.078857  
1463.000000	0.080282  
1462.000000	0.081275  
1461.000000	0.082139  
1460.000000	0.082961  
1459.000000	0.083823  
1458.000000	0.084731  
1457.000000	0.084905  
1456.000000	0.083551  
1455.000000	0.081243  
1454.000000	0.078699  
1453.000000	0.076000  
1452.000000	0.073131  
1451.000000	0.070327  
1450.000000	0.067775  
1449.000000	0.065263  
1448.000000	0.062496  
1447.000000	0.059574  
1446.000000	0.056725  
1445.000000	0.053867  
1444.000000	0.050823  
1443.000000	0.047610  
1442.000000	0.044413  
1441.000000	0.041434  
1440.000000	0.038779  
1439.000000	0.036378  
1438.000000	0.033976  
1437.000000	0.031390  
1436.000000	0.028923  
1435.000000	0.026975  
1434.000000	0.025385  
1433.000000	0.023800  
1432.000000	0.022112  
1431.000000	0.020434  
1430.000000	0.018894  
1429.000000	0.017562  
1428.000000	0.016511  
1427.000000	0.015757  
1426.000000	0.015180  
1425.000000	0.014653  
1424.000000	0.014178  
1423.000000	0.013816  
1422.000000	0.013539  
1421.000000	0.013246  
1420.000000	0.012889  
1419.000000	0.012513  
1418.000000	0.012183  
1417.000000	0.011887  
1416.000000	0.011599  
1415.000000	0.011330  
1414.000000	0.011067  
1413.000000	0.010787  
1412.000000	0.010512  
1411.000000	0.010284  
1410.000000	0.010118  
1409.000000	0.010007  
1408.000000	0.009963  
1407.000000	0.010000  
1406.000000	0.010085  
1405.000000	0.010181  
1404.000000	0.010310  
1403.000000	0.010508  
1402.000000	0.010735  
1401.000000	0.010934  
1400.000000	0.011112  
1399.000000	0.011308  
1398.000000	0.011542  
1397.000000	0.011819  
1396.000000	0.012154  
1395.000000	0.012539  
1394.000000	0.012946  
1393.000000	0.013384  
1392.000000	0.013893  
1391.000000	0.014522  
1390.000000	0.015325  
1389.000000	0.016436  
1388.000000	0.018069  
1387.000000	0.020261  
1386.000000	0.022754  
1385.000000	0.025322  
1384.000000	0.028023  
1383.000000	0.031059  
1382.000000	0.034555  
1381.000000	0.038456  
1380.000000	0.042414  
1379.000000	0.045705  
1378.000000	0.047529  
1377.000000	0.047526  
1376.000000	0.045813  
1375.000000	0.042738  
1374.000000	0.038937  
1373.000000	0.035277  
1372.000000	0.032316  
1371.000000	0.030124  
1370.000000	0.028608  
1369.000000	0.027717  
1368.000000	0.027307  
1367.000000	0.027034  
1366.000000	0.026518  
1365.000000	0.025533  
1364.000000	0.024078  
1363.000000	0.022386  
1362.000000	0.020827  
1361.000000	0.019672  
1360.000000	0.018923  
1359.000000	0.018420  
1358.000000	0.018013  
1357.000000	0.017660  
1356.000000	0.017405  
1355.000000	0.017285  
1354.000000	0.017251  
1353.000000	0.017216  
1352.000000	0.017148  
1351.000000	0.017068  
1350.000000	0.016972  
1349.000000	0.016836  
1348.000000	0.016649  
1347.000000	0.016417  
1346.000000	0.016153  
1345.000000	0.015899  
1344.000000	0.015718  
1343.000000	0.015634  
1342.000000	0.015595  
1341.000000	0.015517  
1340.000000	0.015350  
1339.000000	0.015088  
1338.000000	0.014759  
1337.000000	0.014400  
1336.000000	0.014048  
1335.000000	0.013724  
1334.000000	0.013422  
1333.000000	0.013131  
1332.000000	0.012876  
1331.000000	0.012693  
1330.000000	0.012572  
1329.000000	0.012476  
1328.000000	0.012402  
1327.000000	0.012368  
1326.000000	0.012366  
1325.000000	0.012371  
1324.000000	0.012372  
1323.000000	0.012384  
1322.000000	0.012422  
1321.000000	0.012488  
1320.000000	0.012579  
1319.000000	0.012678  
1318.000000	0.012760  
1317.000000	0.012811  
1316.000000	0.012855  
1315.000000	0.012934  
1314.000000	0.013073  
1313.000000	0.013254  
1312.000000	0.013440  
1311.000000	0.013613  
1310.000000	0.013774  
1309.000000	0.013937  
1308.000000	0.014105  
1307.000000	0.014261  
1306.000000	0.014371  
1305.000000	0.014411  
1304.000000	0.014382  
1303.000000	0.014301  
1302.000000	0.014197  
1301.000000	0.014101  
1300.000000	0.014028  
1299.000000	0.013965  
1298.000000	0.013876  
1297.000000	0.013741  
1296.000000	0.013575  
1295.000000	0.013402  
1294.000000	0.013223  
1293.000000	0.013034  
1292.000000	0.012848  
1291.000000	0.012701  
1290.000000	0.012621  
1289.000000	0.012603  
1288.000000	0.012621  
1287.000000	0.012659  
1286.000000	0.012720  
1285.000000	0.012817  
1284.000000	0.012947  
1283.000000	0.013083  
1282.000000	0.013206  
1281.000000	0.013322  
1280.000000	0.013446  
1279.000000	0.013570  
1278.000000	0.013670  
1277.000000	0.013751  
1276.000000	0.013849  
1275.000000	0.013988  
1274.000000	0.014151  
1273.000000	0.014299  
1272.000000	0.014405  
1271.000000	0.014459  
1270.000000	0.014469  
1269.000000	0.014463  
1268.000000	0.014474  
1267.000000	0.014494  
1266.000000	0.014477  
1265.000000	0.014394  
1264.000000	0.014282  
1263.000000	0.014221  
1262.000000	0.014269  
1261.000000	0.014419  
1260.000000	0.014610  
1259.000000	0.014769  
1258.000000	0.014852  
1257.000000	0.014858  
1256.000000	0.014814  
1255.000000	0.014761  
1254.000000	0.014759  
1253.000000	0.014874  
1252.000000	0.015122  
1251.000000	0.015426  
1250.000000	0.015668  
1249.000000	0.015810  
1248.000000	0.015924  
1247.000000	0.016098  
1246.000000	0.016339  
1245.000000	0.016580  
1244.000000	0.016752  
1243.000000	0.016822  
1242.000000	0.016793  
1241.000000	0.016694  
1240.000000	0.016564  
1239.000000	0.016419  
1238.000000	0.016242  
1237.000000	0.016018  
1236.000000	0.015768  
1235.000000	0.015532  
1234.000000	0.015315  
1233.000000	0.015083  
1232.000000	0.014810  
1231.000000	0.014511  
1230.000000	0.014211  
1229.000000	0.013935  
1228.000000	0.013708  
1227.000000	0.013560  
1226.000000	0.013491  
1225.000000	0.013452  
1224.000000	0.013398  
1223.000000	0.013336  
1222.000000	0.013294  
1221.000000	0.013271  
1220.000000	0.013240  
1219.000000	0.013203  
1218.000000	0.013204  
1217.000000	0.013273  
1216.000000	0.013388  
1215.000000	0.013499  
1214.000000	0.013576  
1213.000000	0.013627  
1212.000000	0.013678  
1211.000000	0.013764  
1210.000000	0.013902  
1209.000000	0.014055  
1208.000000	0.014148  
1207.000000	0.014147  
1206.000000	0.014121  
1205.000000	0.014178  
1204.000000	0.014345  
1203.000000	0.014557  
1202.000000	0.014761  
1201.000000	0.014969  
1200.000000	0.015219  
1199.000000	0.015517  
1198.000000	0.015849  
1197.000000	0.016221  
1196.000000	0.016639  
1195.000000	0.017086  
1194.000000	0.017541  
1193.000000	0.018004  
1192.000000	0.018468  
1191.000000	0.018894  
1190.000000	0.019261  
1189.000000	0.019614  
1188.000000	0.020021  
1187.000000	0.020499  
1186.000000	0.021016  
1185.000000	0.021546  
1184.000000	0.022083  
1183.000000	0.022618  
1182.000000	0.023137  
1181.000000	0.023641  
1180.000000	0.024135  
1179.000000	0.024598  
1178.000000	0.024996  
1177.000000	0.025336  
1176.000000	0.025641  
1175.000000	0.025899  
1174.000000	0.026067  
1173.000000	0.026128  
1172.000000	0.026111  
1171.000000	0.026043  
1170.000000	0.025918  
1169.000000	0.025710  
1168.000000	0.025402  
1167.000000	0.025001  
1166.000000	0.024545  
1165.000000	0.024082  
1164.000000	0.023620  
1163.000000	0.023104  
1162.000000	0.022500  
1161.000000	0.021869  
1160.000000	0.021323  
1159.000000	0.020890  
1158.000000	0.020482  
1157.000000	0.020016  
1156.000000	0.019508  
1155.000000	0.019013  
1154.000000	0.018545  
1153.000000	0.018083  
1152.000000	0.017633  
1151.000000	0.017233  
1150.000000	0.016905  
1149.000000	0.016648  
1148.000000	0.016453  
1147.000000	0.016280  
1146.000000	0.016062  
1145.000000	0.015755  
1144.000000	0.015380  
1143.000000	0.014993  
1142.000000	0.014620  
1141.000000	0.014245  
1140.000000	0.013850  
1139.000000	0.013451  
1138.000000	0.013100  
1137.000000	0.012855  
1136.000000	0.012730  
1135.000000	0.012647  
1134.000000	0.012497  
1133.000000	0.012245  
1132.000000	0.011980  
1131.000000	0.011808  
1130.000000	0.011751  
1129.000000	0.011768  
1128.000000	0.011837  
1127.000000	0.011956  
1126.000000	0.012095  
1125.000000	0.012219  
1124.000000	0.012335  
1123.000000	0.012477  
1122.000000	0.012637  
1121.000000	0.012766  
1120.000000	0.012835  
1119.000000	0.012848  
1118.000000	0.012808  
1117.000000	0.012712  
1116.000000	0.012579  
1115.000000	0.012440  
1114.000000	0.012304  
1113.000000	0.012150  
1112.000000	0.011979  
1111.000000	0.011807  
1110.000000	0.011636  
1109.000000	0.011455  
1108.000000	0.011291  
1107.000000	0.011218  
1106.000000	0.011277  
1105.000000	0.011419  
1104.000000	0.011536  
1103.000000	0.011556  
1102.000000	0.011502  
1101.000000	0.011475  
1100.000000	0.011549  
1099.000000	0.011699  
1098.000000	0.011829  
1097.000000	0.011895  
1096.000000	0.011957  
1095.000000	0.012074  
1094.000000	0.012191  
1093.000000	0.012197  
1092.000000	0.012077  
1091.000000	0.011933  
1090.000000	0.011841  
1089.000000	0.011768  
1088.000000	0.011638  
1087.000000	0.011451  
1086.000000	0.011275  
1085.000000	0.011171  
1084.000000	0.011139  
1083.000000	0.011125  
1082.000000	0.011061  
1081.000000	0.010923  
1080.000000	0.010776  
1079.000000	0.010732  
1078.000000	0.010851  
1077.000000	0.011096  
1076.000000	0.011393  
1075.000000	0.011699  
1074.000000	0.011998  
1073.000000	0.012255  
1072.000000	0.012422  
1071.000000	0.012483  
1070.000000	0.012493  
1069.000000	0.012530  
1068.000000	0.012626  
1067.000000	0.012734  
1066.000000	0.012781  
1065.000000	0.012749  
1064.000000	0.012692  
1063.000000	0.012639  
1062.000000	0.012530  
1061.000000	0.012285  
1060.000000	0.011930  
1059.000000	0.011590  
1058.000000	0.011357  
1057.000000	0.011227  
1056.000000	0.011171  
1055.000000	0.011194  
1054.000000	0.011254  
1053.000000	0.011198  
1052.000000	0.010871  
1051.000000	0.010336  
1050.000000	0.009885  
1049.000000	0.009758  
1048.000000	0.009924  
1047.000000	0.010152  
1046.000000	0.010263  
1045.000000	0.010245  
1044.000000	0.010208  
1043.000000	0.010278  
1042.000000	0.010502  
1041.000000	0.010809  
1040.000000	0.011053  
1039.000000	0.011133  
1038.000000	0.011076  
1037.000000	0.010998  
1036.000000	0.010992  
1035.000000	0.011059  
1034.000000	0.011157  
1033.000000	0.011251  
1032.000000	0.011322  
1031.000000	0.011347  
1030.000000	0.011326  
1029.000000	0.011308  
1028.000000	0.011363  
1027.000000	0.011507  
1026.000000	0.011678  
1025.000000	0.011791  
1024.000000	0.011802  
1023.000000	0.011721  
1022.000000	0.011589  
1021.000000	0.011445  
1020.000000	0.011296  
1019.000000	0.011123  
1018.000000	0.010933  
1017.000000	0.010788  
1016.000000	0.010764  
1015.000000	0.010856  
1014.000000	0.010962  
1013.000000	0.010970  
1012.000000	0.010846  
1011.000000	0.010650  
1010.000000	0.010478  
1009.000000	0.010408  
1008.000000	0.010446  
1007.000000	0.010512  
1006.000000	0.010506  
1005.000000	0.010405  
1004.000000	0.010288  
1003.000000	0.010242  
1002.000000	0.010275  
1001.000000	0.010329  
1000.000000	0.010323  
999.000000	 0.010195  
998.000000	 0.009933  
997.000000	 0.009623  
996.000000	 0.009420  
995.000000	 0.009426  
994.000000	 0.009582  
993.000000	 0.009730  
992.000000	 0.009759  
991.000000	 0.009699  
990.000000	 0.009666  
989.000000	 0.009748  
988.000000	 0.009920  
987.000000	 0.010060  
986.000000	 0.010062  
985.000000	 0.009952  
984.000000	 0.009866  
983.000000	 0.009903  
982.000000	 0.010029  
981.000000	 0.010158  
980.000000	 0.010270  
979.000000	 0.010408  
978.000000	 0.010591  
977.000000	 0.010787  
976.000000	 0.010963  
975.000000	 0.011099  
974.000000	 0.011179  
973.000000	 0.011218  
972.000000	 0.011297  
971.000000	 0.011501  
970.000000	 0.011811  
969.000000	 0.012103  
968.000000	 0.012273  
967.000000	 0.012305  
966.000000	 0.012235  
965.000000	 0.012089  
964.000000	 0.011894  
963.000000	 0.011710  
962.000000	 0.011602  
961.000000	 0.011587  
960.000000	 0.011620  
959.000000	 0.011637  
958.000000	 0.011594  
957.000000	 0.011502  
956.000000	 0.011411  
955.000000	 0.011354  
954.000000	 0.011311  
953.000000	 0.011252  
952.000000	 0.011200  
951.000000	 0.011213  
950.000000	 0.011296  
949.000000	 0.011393  
948.000000	 0.011451  
947.000000	 0.011472  
946.000000	 0.011473  
945.000000	 0.011459  
944.000000	 0.011430  
943.000000	 0.011404  
942.000000	 0.011384  
941.000000	 0.011321  
940.000000	 0.011153  
939.000000	 0.010866  
938.000000	 0.010517  
937.000000	 0.010196  
936.000000	 0.009969  
935.000000	 0.009844  
934.000000	 0.009785  
933.000000	 0.009768  
932.000000	 0.009808  
931.000000	 0.009903  
930.000000	 0.009982  
929.000000	 0.009953  
928.000000	 0.009828  
927.000000	 0.009736  
926.000000	 0.009793  
925.000000	 0.009974  
924.000000	 0.010152  
923.000000	 0.010244  
922.000000	 0.010270  
921.000000	 0.010282  
920.000000	 0.010283  
919.000000	 0.010231  
918.000000	 0.010127  
917.000000	 0.010057  
916.000000	 0.010108  
915.000000	 0.010258  
914.000000	 0.010368  
913.000000	 0.010312  
912.000000	 0.010111  
911.000000	 0.009905  
910.000000	 0.009817  
909.000000	 0.009860  
908.000000	 0.009966  
907.000000	 0.010034  
906.000000	 0.009988  
905.000000	 0.009820  
904.000000	 0.009626  
903.000000	 0.009530  
902.000000	 0.009569  
901.000000	 0.009663  
900.000000	 0.009725  
899.000000	 0.009754  
898.000000	 0.009795  
897.000000	 0.009852  
896.000000	 0.009886  
895.000000	 0.009886  
894.000000	 0.009893  
893.000000	 0.009952  
892.000000	 0.010071  
891.000000	 0.010217  
890.000000	 0.010339  
889.000000	 0.010396  
888.000000	 0.010381  
887.000000	 0.010322  
886.000000	 0.010250  
885.000000	 0.010165  
884.000000	 0.010047  
883.000000	 0.009899  
882.000000	 0.009766  
881.000000	 0.009708  
880.000000	 0.009761  
879.000000	 0.009898  
878.000000	 0.010040  
877.000000	 0.010106  
876.000000	 0.010068  
875.000000	 0.009968  
874.000000	 0.009867  
873.000000	 0.009774  
872.000000	 0.009650  
871.000000	 0.009481  
870.000000	 0.009338  
869.000000	 0.009336  
868.000000	 0.009504  
867.000000	 0.009722  
866.000000	 0.009822  
865.000000	 0.009742  
864.000000	 0.009565  
863.000000	 0.009395  
862.000000	 0.009265  
861.000000	 0.009180  
860.000000	 0.009186  
859.000000	 0.009315  
858.000000	 0.009497  
857.000000	 0.009613  
856.000000	 0.009653  
855.000000	 0.009746  
854.000000	 0.010003  
853.000000	 0.010378  
852.000000	 0.010730  
851.000000	 0.010980  
850.000000	 0.011151  
849.000000	 0.011273  
848.000000	 0.011316  
847.000000	 0.011247  
846.000000	 0.011106  
845.000000	 0.010988  
844.000000	 0.010935  
843.000000	 0.010898  
842.000000	 0.010815  
841.000000	 0.010701  
840.000000	 0.010635  
839.000000	 0.010651  
838.000000	 0.010694  
837.000000	 0.010671  
836.000000	 0.010517  
835.000000	 0.010208  
834.000000	 0.009773  
833.000000	 0.009334  
832.000000	 0.009073  
831.000000	 0.009086  
830.000000	 0.009275  
829.000000	 0.009451  
828.000000	 0.009542  
827.000000	 0.009646  
826.000000	 0.009854  
825.000000	 0.010105  
824.000000	 0.010264  
823.000000	 0.010275  
822.000000	 0.010209  
821.000000	 0.010184  
820.000000	 0.010294  
819.000000	 0.010546  
818.000000	 0.010863  
817.000000	 0.011158  
816.000000	 0.011404  
815.000000	 0.011615  
814.000000	 0.011757  
813.000000	 0.011754  
812.000000	 0.011607  
811.000000	 0.011451  
810.000000	 0.011461  
809.000000	 0.011695  
808.000000	 0.012058  
807.000000	 0.012390  
806.000000	 0.012566  
805.000000	 0.012536  
804.000000	 0.012299  
803.000000	 0.011881  
802.000000	 0.011358  
801.000000	 0.010859  
800.000000	 0.010520  
799.000000	 0.010368  
798.000000	 0.010303  
797.000000	 0.010188  
796.000000	 0.009980  
795.000000	 0.009724  
794.000000	 0.009487  
793.000000	 0.009337  
792.000000	 0.009356  
791.000000	 0.009582  
790.000000	 0.009897  
789.000000	 0.010083  
788.000000	 0.010030  
787.000000	 0.009878  
786.000000	 0.009884  
785.000000	 0.010168  
784.000000	 0.010619  
783.000000	 0.011052  
782.000000	 0.011408  
781.000000	 0.011762  
780.000000	 0.012190  
779.000000	 0.012653  
778.000000	 0.013053  
777.000000	 0.013348  
776.000000	 0.013578  
775.000000	 0.013792  
774.000000	 0.013999  
773.000000	 0.014195  
772.000000	 0.014401  
771.000000	 0.014637  
770.000000	 0.014887  
769.000000	 0.015119  
768.000000	 0.015305  
767.000000	 0.015406  
766.000000	 0.015356  
765.000000	 0.015131  
764.000000	 0.014814  
763.000000	 0.014565  
762.000000	 0.014501  
761.000000	 0.014622  
760.000000	 0.014829  
759.000000	 0.015000  
758.000000	 0.015070  
757.000000	 0.015087  
756.000000	 0.015173  
755.000000	 0.015403  
754.000000	 0.015738  
753.000000	 0.016079  
752.000000	 0.016354  
751.000000	 0.016526  
750.000000	 0.016590  
749.000000	 0.016624  
748.000000	 0.016815  
747.000000	 0.017360  
746.000000	 0.018327  
745.000000	 0.019639  
744.000000	 0.021137  
743.000000	 0.022615  
742.000000	 0.023808  
741.000000	 0.024509  
740.000000	 0.024741  
739.000000	 0.024742  
738.000000	 0.024721  
737.000000	 0.024692  
736.000000	 0.024576  
735.000000	 0.024384  
734.000000	 0.024257  
733.000000	 0.024346  
732.000000	 0.024668  
731.000000	 0.025086  
730.000000	 0.025458  
729.000000	 0.025844  
728.000000	 0.026498  
727.000000	 0.027579  
726.000000	 0.028951  
725.000000	 0.030299  
724.000000	 0.031414  
723.000000	 0.032269  
722.000000	 0.032789  
721.000000	 0.032662  
720.000000	 0.031534  
719.000000	 0.029486  
718.000000	 0.027082  
717.000000	 0.024921  
716.000000	 0.023319  
715.000000	 0.022258  
714.000000	 0.021486  
713.000000	 0.020735  
712.000000	 0.019917  
711.000000	 0.019131  
710.000000	 0.018512  
709.000000	 0.018113  
708.000000	 0.017899  
707.000000	 0.017794  
706.000000	 0.017783  
705.000000	 0.017937  
704.000000	 0.018290  
703.000000	 0.018748  
702.000000	 0.019139  
701.000000	 0.019350  
700.000000	 0.019428  
699.000000	 0.019411  
698.000000	 0.019179  
697.000000	 0.018538  
696.000000	 0.017500  
695.000000	 0.016442  
694.000000	 0.015790  
693.000000	 0.015556  
692.000000	 0.015310  
691.000000	 0.014612  
690.000000	 0.013484  
689.000000	 0.012345  
688.000000	 0.011491  
687.000000	 0.010825  
686.000000	 0.010143  
685.000000	 0.009502  
684.000000	 0.009151  
683.000000	 0.009140  
682.000000	 0.009246  
681.000000	 0.009242  
680.000000	 0.009085  
679.000000	 0.008826  
678.000000	 0.008556  
677.000000	 0.008523  
676.000000	 0.008715  
675.000000	 0.008931  
674.000000	 0.008983  
673.000000	 0.008725  
672.000000	 0.007620  
671.000000	 0.004699  
670.000000	 -0.000997 
669.000000	 -0.009300 
668.000000	 -0.015209 
667.000000	 -0.010994 
666.000000	 -0.002502 
665.000000	 0.003308  
664.000000	 0.006384  
663.000000	 0.008024  
662.000000	 0.008765  
661.000000	 0.008690  
660.000000	 0.008130  
659.000000	 0.007695  
658.000000	 0.007602  
657.000000	 0.007492  
656.000000	 0.006804  
655.000000	 0.005647  
654.000000	 0.004790  
653.000000	 0.004785  
652.000000	 0.005402  
651.000000	 0.006029  
650.000000	 0.006319  

