PE IR                   SPECTRUM    ASCII       PEDS        1.60        
  -1
NB4-17~3.ASC
17/04/10
13:41:04.00
17/04/10
13:41:04.00
Admin

650.000000
6









SPECTRUM ONE,CPU32 MAIN 00.02.5000 17-APRIL-2002 13:00:00
MIR TGS
MIR
OPTKBR
68128
0.200000

4.000000
STRONG
RATIO
SPECTRUM
MAGNITUDE

DOUBLE

COMBINED


0


#HDR
-1
-1
#GR
CM-1
A
0.00000011920928955078
0.0
4000.000000
-1.000000
3351
8
0.209784
-0.014248
#DATA
4000.000000	0.001653  
3999.000000	0.001698  
3998.000000	0.001752  
3997.000000	0.001854  
3996.000000	0.002021  
3995.000000	0.002222  
3994.000000	0.002386  
3993.000000	0.002456  
3992.000000	0.002414  
3991.000000	0.002299  
3990.000000	0.002167  
3989.000000	0.002057  
3988.000000	0.001963  
3987.000000	0.001875  
3986.000000	0.001808  
3985.000000	0.001800  
3984.000000	0.001852  
3983.000000	0.001892  
3982.000000	0.001833  
3981.000000	0.001656  
3980.000000	0.001448  
3979.000000	0.001328  
3978.000000	0.001353  
3977.000000	0.001500  
3976.000000	0.001705  
3975.000000	0.001917  
3974.000000	0.002094  
3973.000000	0.002197  
3972.000000	0.002206  
3971.000000	0.002142  
3970.000000	0.002059  
3969.000000	0.001995  
3968.000000	0.001937  
3967.000000	0.001853  
3966.000000	0.001754  
3965.000000	0.001702  
3964.000000	0.001757  
3963.000000	0.001902  
3962.000000	0.002052  
3961.000000	0.002134  
3960.000000	0.002152  
3959.000000	0.002151  
3958.000000	0.002151  
3957.000000	0.002124  
3956.000000	0.002031  
3955.000000	0.001880  
3954.000000	0.001725  
3953.000000	0.001631  
3952.000000	0.001630  
3951.000000	0.001702  
3950.000000	0.001814  
3949.000000	0.001948  
3948.000000	0.002095  
3947.000000	0.002229  
3946.000000	0.002293  
3945.000000	0.002232  
3944.000000	0.002058  
3943.000000	0.001860  
3942.000000	0.001738  
3941.000000	0.001721  
3940.000000	0.001781  
3939.000000	0.001881  
3938.000000	0.001989  
3937.000000	0.002075  
3936.000000	0.002105  
3935.000000	0.002060  
3934.000000	0.001969  
3933.000000	0.001895  
3932.000000	0.001893  
3931.000000	0.001954  
3930.000000	0.002031  
3929.000000	0.002081  
3928.000000	0.002111  
3927.000000	0.002157  
3926.000000	0.002242  
3925.000000	0.002359  
3924.000000	0.002481  
3923.000000	0.002593  
3922.000000	0.002687  
3921.000000	0.002748  
3920.000000	0.002749  
3919.000000	0.002676  
3918.000000	0.002543  
3917.000000	0.002398  
3916.000000	0.002298  
3915.000000	0.002271  
3914.000000	0.002283  
3913.000000	0.002256  
3912.000000	0.002134  
3911.000000	0.001931  
3910.000000	0.001745  
3909.000000	0.001691  
3908.000000	0.001817  
3907.000000	0.002065  
3906.000000	0.002299  
3905.000000	0.002404  
3904.000000	0.002379  
3903.000000	0.002301  
3902.000000	0.002248  
3901.000000	0.002253  
3900.000000	0.002320  
3899.000000	0.002435  
3898.000000	0.002544  
3897.000000	0.002580  
3896.000000	0.002512  
3895.000000	0.002368  
3894.000000	0.002226  
3893.000000	0.002154  
3892.000000	0.002158  
3891.000000	0.002179  
3890.000000	0.002183  
3889.000000	0.002189  
3888.000000	0.002210  
3887.000000	0.002213  
3886.000000	0.002179  
3885.000000	0.002144  
3884.000000	0.002150  
3883.000000	0.002187  
3882.000000	0.002203  
3881.000000	0.002177  
3880.000000	0.002133  
3879.000000	0.002130  
3878.000000	0.002218  
3877.000000	0.002394  
3876.000000	0.002595  
3875.000000	0.002763  
3874.000000	0.002905  
3873.000000	0.003057  
3872.000000	0.003209  
3871.000000	0.003290  
3870.000000	0.003251  
3869.000000	0.003134  
3868.000000	0.003026  
3867.000000	0.002950  
3866.000000	0.002846  
3865.000000	0.002687  
3864.000000	0.002544  
3863.000000	0.002493  
3862.000000	0.002515  
3861.000000	0.002506  
3860.000000	0.002384  
3859.000000	0.002158  
3858.000000	0.001928  
3857.000000	0.001812  
3856.000000	0.001831  
3855.000000	0.001833  
3854.000000	0.001735  
3853.000000	0.001648  
3852.000000	0.001696  
3851.000000	0.001899  
3850.000000	0.002193  
3849.000000	0.002501  
3848.000000	0.002787  
3847.000000	0.003028  
3846.000000	0.003211  
3845.000000	0.003358  
3844.000000	0.003504  
3843.000000	0.003643  
3842.000000	0.003726  
3841.000000	0.003712  
3840.000000	0.003598  
3839.000000	0.003414  
3838.000000	0.003188  
3837.000000	0.002972  
3836.000000	0.002846  
3835.000000	0.002880  
3834.000000	0.003064  
3833.000000	0.003279  
3832.000000	0.003368  
3831.000000	0.003281  
3830.000000	0.003113  
3829.000000	0.002992  
3828.000000	0.002957  
3827.000000	0.002961  
3826.000000	0.002989  
3825.000000	0.003114  
3824.000000	0.003407  
3823.000000	0.003783  
3822.000000	0.004028  
3821.000000	0.003975  
3820.000000	0.003638  
3819.000000	0.003157  
3818.000000	0.002672  
3817.000000	0.002265  
3816.000000	0.001999  
3815.000000	0.001912  
3814.000000	0.001976  
3813.000000	0.002093  
3812.000000	0.002166  
3811.000000	0.002170  
3810.000000	0.002131  
3809.000000	0.002077  
3808.000000	0.002029  
3807.000000	0.002037  
3806.000000	0.002175  
3805.000000	0.002472  
3804.000000	0.002838  
3803.000000	0.003069  
3802.000000	0.003004  
3801.000000	0.002721  
3800.000000	0.002465  
3799.000000	0.002380  
3798.000000	0.002428  
3797.000000	0.002511  
3796.000000	0.002578  
3795.000000	0.002635  
3794.000000	0.002676  
3793.000000	0.002660  
3792.000000	0.002555  
3791.000000	0.002399  
3790.000000	0.002280  
3789.000000	0.002263  
3788.000000	0.002339  
3787.000000	0.002438  
3786.000000	0.002490  
3785.000000	0.002472  
3784.000000	0.002415  
3783.000000	0.002360  
3782.000000	0.002315  
3781.000000	0.002259  
3780.000000	0.002197  
3779.000000	0.002174  
3778.000000	0.002220  
3777.000000	0.002313  
3776.000000	0.002377  
3775.000000	0.002340  
3774.000000	0.002203  
3773.000000	0.002058  
3772.000000	0.002030  
3771.000000	0.002198  
3770.000000	0.002538  
3769.000000	0.002909  
3768.000000	0.003137  
3767.000000	0.003117  
3766.000000	0.002867  
3765.000000	0.002538  
3764.000000	0.002315  
3763.000000	0.002285  
3762.000000	0.002395  
3761.000000	0.002534  
3760.000000	0.002657  
3759.000000	0.002792  
3758.000000	0.002930  
3757.000000	0.002997  
3756.000000	0.002948  
3755.000000	0.002850  
3754.000000	0.002887  
3753.000000	0.003237  
3752.000000	0.003845  
3751.000000	0.004308  
3750.000000	0.004263  
3749.000000	0.003833  
3748.000000	0.003421  
3747.000000	0.003308  
3746.000000	0.003497  
3745.000000	0.003740  
3744.000000	0.003817  
3743.000000	0.003797  
3742.000000	0.003846  
3741.000000	0.004011  
3740.000000	0.004279  
3739.000000	0.004643  
3738.000000	0.005017  
3737.000000	0.005224  
3736.000000	0.005146  
3735.000000	0.004867  
3734.000000	0.004578  
3733.000000	0.004364  
3732.000000	0.004185  
3731.000000	0.004028  
3730.000000	0.003944  
3729.000000	0.003950  
3728.000000	0.003971  
3727.000000	0.003919  
3726.000000	0.003800  
3725.000000	0.003689  
3724.000000	0.003602  
3723.000000	0.003469  
3722.000000	0.003229  
3721.000000	0.002910  
3720.000000	0.002600  
3719.000000	0.002379  
3718.000000	0.002272  
3717.000000	0.002261  
3716.000000	0.002305  
3715.000000	0.002356  
3714.000000	0.002396  
3713.000000	0.002483  
3712.000000	0.002716  
3711.000000	0.003062  
3710.000000	0.003335  
3709.000000	0.003422  
3708.000000	0.003390  
3707.000000	0.003381  
3706.000000	0.003448  
3705.000000	0.003485  
3704.000000	0.003323  
3703.000000	0.002914  
3702.000000	0.002426  
3701.000000	0.002098  
3700.000000	0.002027  
3699.000000	0.002141  
3698.000000	0.002304  
3697.000000	0.002423  
3696.000000	0.002510  
3695.000000	0.002626  
3694.000000	0.002771  
3693.000000	0.002860  
3692.000000	0.002806  
3691.000000	0.002639  
3690.000000	0.002499  
3689.000000	0.002468  
3688.000000	0.002487  
3687.000000	0.002497  
3686.000000	0.002505  
3685.000000	0.002552  
3684.000000	0.002680  
3683.000000	0.002871  
3682.000000	0.003006  
3681.000000	0.002944  
3680.000000	0.002684  
3679.000000	0.002417  
3678.000000	0.002383  
3677.000000	0.002627  
3676.000000	0.002948  
3675.000000	0.003095  
3674.000000	0.003061  
3673.000000	0.003020  
3672.000000	0.003069  
3671.000000	0.003143  
3670.000000	0.003164  
3669.000000	0.003119  
3668.000000	0.003028  
3667.000000	0.002910  
3666.000000	0.002765  
3665.000000	0.002570  
3664.000000	0.002310  
3663.000000	0.001998  
3662.000000	0.001685  
3661.000000	0.001434  
3660.000000	0.001294  
3659.000000	0.001284  
3658.000000	0.001409  
3657.000000	0.001658  
3656.000000	0.001992  
3655.000000	0.002340  
3654.000000	0.002623  
3653.000000	0.002754  
3652.000000	0.002685  
3651.000000	0.002512  
3650.000000	0.002470  
3649.000000	0.002657  
3648.000000	0.002913  
3647.000000	0.003069  
3646.000000	0.003085  
3645.000000	0.003001  
3644.000000	0.002899  
3643.000000	0.002869  
3642.000000	0.002953  
3641.000000	0.003115  
3640.000000	0.003258  
3639.000000	0.003304  
3638.000000	0.003269  
3637.000000	0.003240  
3636.000000	0.003294  
3635.000000	0.003424  
3634.000000	0.003553  
3633.000000	0.003608  
3632.000000	0.003572  
3631.000000	0.003483  
3630.000000	0.003422  
3629.000000	0.003451  
3628.000000	0.003490  
3627.000000	0.003452  
3626.000000	0.003367  
3625.000000	0.003295  
3624.000000	0.003255  
3623.000000	0.003202  
3622.000000	0.003048  
3621.000000	0.002770  
3620.000000	0.002500  
3619.000000	0.002423  
3618.000000	0.002555  
3617.000000	0.002753  
3616.000000	0.002880  
3615.000000	0.002905  
3614.000000	0.002920  
3613.000000	0.003042  
3612.000000	0.003308  
3611.000000	0.003650  
3610.000000	0.003934  
3609.000000	0.004024  
3608.000000	0.003873  
3607.000000	0.003553  
3606.000000	0.003185  
3605.000000	0.002866  
3604.000000	0.002655  
3603.000000	0.002598  
3602.000000	0.002725  
3601.000000	0.003008  
3600.000000	0.003344  
3599.000000	0.003597  
3598.000000	0.003675  
3597.000000	0.003580  
3596.000000	0.003400  
3595.000000	0.003245  
3594.000000	0.003158  
3593.000000	0.003102  
3592.000000	0.003015  
3591.000000	0.002893  
3590.000000	0.002802  
3589.000000	0.002846  
3588.000000	0.003070  
3587.000000	0.003361  
3586.000000	0.003543  
3585.000000	0.003533  
3584.000000	0.003367  
3583.000000	0.003136  
3582.000000	0.002945  
3581.000000	0.002879  
3580.000000	0.002944  
3579.000000	0.003044  
3578.000000	0.003044  
3577.000000	0.002891  
3576.000000	0.002657  
3575.000000	0.002457  
3574.000000	0.002334  
3573.000000	0.002236  
3572.000000	0.002111  
3571.000000	0.001998  
3570.000000	0.002028  
3569.000000	0.002309  
3568.000000	0.002772  
3567.000000	0.003162  
3566.000000	0.003288  
3565.000000	0.003210  
3564.000000	0.003092  
3563.000000	0.003006  
3562.000000	0.002937  
3561.000000	0.002877  
3560.000000	0.002873  
3559.000000	0.002959  
3558.000000	0.003086  
3557.000000	0.003144  
3556.000000	0.003060  
3555.000000	0.002853  
3554.000000	0.002611  
3553.000000	0.002433  
3552.000000	0.002374  
3551.000000	0.002419  
3550.000000	0.002497  
3549.000000	0.002523  
3548.000000	0.002463  
3547.000000	0.002381  
3546.000000	0.002386  
3545.000000	0.002520  
3544.000000	0.002717  
3543.000000	0.002879  
3542.000000	0.002969  
3541.000000	0.003022  
3540.000000	0.003066  
3539.000000	0.003074  
3538.000000	0.002982  
3537.000000	0.002782  
3536.000000	0.002554  
3535.000000	0.002419  
3534.000000	0.002441  
3533.000000	0.002600  
3532.000000	0.002824  
3531.000000	0.003037  
3530.000000	0.003183  
3529.000000	0.003233  
3528.000000	0.003204  
3527.000000	0.003147  
3526.000000	0.003098  
3525.000000	0.003047  
3524.000000	0.002965  
3523.000000	0.002866  
3522.000000	0.002803  
3521.000000	0.002797  
3520.000000	0.002807  
3519.000000	0.002783  
3518.000000	0.002732  
3517.000000	0.002715  
3516.000000	0.002778  
3515.000000	0.002911  
3514.000000	0.003067  
3513.000000	0.003202  
3512.000000	0.003293  
3511.000000	0.003333  
3510.000000	0.003327  
3509.000000	0.003278  
3508.000000	0.003195  
3507.000000	0.003109  
3506.000000	0.003074  
3505.000000	0.003134  
3504.000000	0.003279  
3503.000000	0.003442  
3502.000000	0.003550  
3501.000000	0.003580  
3500.000000	0.003560  
3499.000000	0.003546  
3498.000000	0.003581  
3497.000000	0.003669  
3496.000000	0.003762  
3495.000000	0.003792  
3494.000000	0.003715  
3493.000000	0.003533  
3492.000000	0.003278  
3491.000000	0.003006  
3490.000000	0.002799  
3489.000000	0.002725  
3488.000000	0.002791  
3487.000000	0.002954  
3486.000000	0.003178  
3485.000000	0.003452  
3484.000000	0.003733  
3483.000000	0.003915  
3482.000000	0.003900  
3481.000000	0.003710  
3480.000000	0.003483  
3479.000000	0.003361  
3478.000000	0.003374  
3477.000000	0.003446  
3476.000000	0.003483  
3475.000000	0.003454  
3474.000000	0.003407  
3473.000000	0.003388  
3472.000000	0.003387  
3471.000000	0.003357  
3470.000000	0.003282  
3469.000000	0.003204  
3468.000000	0.003176  
3467.000000	0.003211  
3466.000000	0.003287  
3465.000000	0.003366  
3464.000000	0.003398  
3463.000000	0.003339  
3462.000000	0.003200  
3461.000000	0.003063  
3460.000000	0.003012  
3459.000000	0.003058  
3458.000000	0.003160  
3457.000000	0.003284  
3456.000000	0.003409  
3455.000000	0.003508  
3454.000000	0.003561  
3453.000000	0.003603  
3452.000000	0.003693  
3451.000000	0.003835  
3450.000000	0.003959  
3449.000000	0.004014  
3448.000000	0.004015  
3447.000000	0.004009  
3446.000000	0.004010  
3445.000000	0.004017  
3444.000000	0.004037  
3443.000000	0.004068  
3442.000000	0.004083  
3441.000000	0.004071  
3440.000000	0.004082  
3439.000000	0.004161  
3438.000000	0.004260  
3437.000000	0.004247  
3436.000000	0.004040  
3435.000000	0.003709  
3434.000000	0.003442  
3433.000000	0.003396  
3432.000000	0.003579  
3431.000000	0.003839  
3430.000000	0.003989  
3429.000000	0.003924  
3428.000000	0.003672  
3427.000000	0.003344  
3426.000000	0.003069  
3425.000000	0.002949  
3424.000000	0.003026  
3423.000000	0.003262  
3422.000000	0.003551  
3421.000000	0.003790  
3420.000000	0.003936  
3419.000000	0.004003  
3418.000000	0.004027  
3417.000000	0.004038  
3416.000000	0.004052  
3415.000000	0.004066  
3414.000000	0.004067  
3413.000000	0.004062  
3412.000000	0.004085  
3411.000000	0.004154  
3410.000000	0.004223  
3409.000000	0.004207  
3408.000000	0.004058  
3407.000000	0.003816  
3406.000000	0.003590  
3405.000000	0.003483  
3404.000000	0.003526  
3403.000000	0.003675  
3402.000000	0.003871  
3401.000000	0.004078  
3400.000000	0.004260  
3399.000000	0.004351  
3398.000000	0.004288  
3397.000000	0.004115  
3396.000000	0.003993  
3395.000000	0.004075  
3394.000000	0.004363  
3393.000000	0.004692  
3392.000000	0.004873  
3391.000000	0.004827  
3390.000000	0.004625  
3389.000000	0.004399  
3388.000000	0.004246  
3387.000000	0.004169  
3386.000000	0.004115  
3385.000000	0.004071  
3384.000000	0.004093  
3383.000000	0.004240  
3382.000000	0.004478  
3381.000000	0.004701  
3380.000000	0.004819  
3379.000000	0.004806  
3378.000000	0.004661  
3377.000000	0.004388  
3376.000000	0.004041  
3375.000000	0.003746  
3374.000000	0.003620  
3373.000000	0.003677  
3372.000000	0.003825  
3371.000000	0.003986  
3370.000000	0.004158  
3369.000000	0.004372  
3368.000000	0.004608  
3367.000000	0.004785  
3366.000000	0.004846  
3365.000000	0.004810  
3364.000000	0.004737  
3363.000000	0.004671  
3362.000000	0.004633  
3361.000000	0.004647  
3360.000000	0.004723  
3359.000000	0.004809  
3358.000000	0.004820  
3357.000000	0.004728  
3356.000000	0.004605  
3355.000000	0.004543  
3354.000000	0.004540  
3353.000000	0.004517  
3352.000000	0.004418  
3351.000000	0.004261  
3350.000000	0.004103  
3349.000000	0.003993  
3348.000000	0.003971  
3347.000000	0.004061  
3346.000000	0.004236  
3345.000000	0.004398  
3344.000000	0.004458  
3343.000000	0.004417  
3342.000000	0.004368  
3341.000000	0.004390  
3340.000000	0.004461  
3339.000000	0.004494  
3338.000000	0.004448  
3337.000000	0.004383  
3336.000000	0.004387  
3335.000000	0.004464  
3334.000000	0.004529  
3333.000000	0.004509  
3332.000000	0.004421  
3331.000000	0.004340  
3330.000000	0.004324  
3329.000000	0.004383  
3328.000000	0.004501  
3327.000000	0.004630  
3326.000000	0.004696  
3325.000000	0.004645  
3324.000000	0.004517  
3323.000000	0.004424  
3322.000000	0.004438  
3321.000000	0.004529  
3320.000000	0.004625  
3319.000000	0.004702  
3318.000000	0.004791  
3317.000000	0.004893  
3316.000000	0.004942  
3315.000000	0.004869  
3314.000000	0.004682  
3313.000000	0.004483  
3312.000000	0.004398  
3311.000000	0.004483  
3310.000000	0.004682  
3309.000000	0.004853  
3308.000000	0.004856  
3307.000000	0.004667  
3306.000000	0.004411  
3305.000000	0.004283  
3304.000000	0.004386  
3303.000000	0.004643  
3302.000000	0.004887  
3301.000000	0.005016  
3300.000000	0.005040  
3299.000000	0.004999  
3298.000000	0.004895  
3297.000000	0.004738  
3296.000000	0.004594  
3295.000000	0.004532  
3294.000000	0.004549  
3293.000000	0.004586  
3292.000000	0.004613  
3291.000000	0.004644  
3290.000000	0.004676  
3289.000000	0.004678  
3288.000000	0.004642  
3287.000000	0.004606  
3286.000000	0.004582  
3285.000000	0.004526  
3284.000000	0.004397  
3283.000000	0.004240  
3282.000000	0.004152  
3281.000000	0.004195  
3280.000000	0.004333  
3279.000000	0.004478  
3278.000000	0.004561  
3277.000000	0.004583  
3276.000000	0.004610  
3275.000000	0.004712  
3274.000000	0.004903  
3273.000000	0.005116  
3272.000000	0.005257  
3271.000000	0.005269  
3270.000000	0.005157  
3269.000000	0.004955  
3268.000000	0.004691  
3267.000000	0.004384  
3266.000000	0.004089  
3265.000000	0.003918  
3264.000000	0.003976  
3263.000000	0.004247  
3262.000000	0.004579  
3261.000000	0.004812  
3260.000000	0.004917  
3259.000000	0.004982  
3258.000000	0.005069  
3257.000000	0.005144  
3256.000000	0.005134  
3255.000000	0.005039  
3254.000000	0.004938  
3253.000000	0.004918  
3252.000000	0.004996  
3251.000000	0.005107  
3250.000000	0.005160  
3249.000000	0.005129  
3248.000000	0.005074  
3247.000000	0.005048  
3246.000000	0.005018  
3245.000000	0.004918  
3244.000000	0.004771  
3243.000000	0.004683  
3242.000000	0.004703  
3241.000000	0.004755  
3240.000000	0.004733  
3239.000000	0.004618  
3238.000000	0.004464  
3237.000000	0.004316  
3236.000000	0.004193  
3235.000000	0.004111  
3234.000000	0.004085  
3233.000000	0.004109  
3232.000000	0.004174  
3231.000000	0.004277  
3230.000000	0.004403  
3229.000000	0.004504  
3228.000000	0.004554  
3227.000000	0.004587  
3226.000000	0.004651  
3225.000000	0.004748  
3224.000000	0.004844  
3223.000000	0.004914  
3222.000000	0.004940  
3221.000000	0.004872  
3220.000000	0.004685  
3219.000000	0.004443  
3218.000000	0.004275  
3217.000000	0.004257  
3216.000000	0.004356  
3215.000000	0.004493  
3214.000000	0.004612  
3213.000000	0.004690  
3212.000000	0.004722  
3211.000000	0.004718  
3210.000000	0.004701  
3209.000000	0.004691  
3208.000000	0.004698  
3207.000000	0.004741  
3206.000000	0.004833  
3205.000000	0.004953  
3204.000000	0.005059  
3203.000000	0.005135  
3202.000000	0.005191  
3201.000000	0.005204  
3200.000000	0.005101  
3199.000000	0.004835  
3198.000000	0.004465  
3197.000000	0.004115  
3196.000000	0.003875  
3195.000000	0.003763  
3194.000000	0.003756  
3193.000000	0.003836  
3192.000000	0.003981  
3191.000000	0.004168  
3190.000000	0.004389  
3189.000000	0.004640  
3188.000000	0.004889  
3187.000000	0.005059  
3186.000000	0.005075  
3185.000000	0.004936  
3184.000000	0.004725  
3183.000000	0.004543  
3182.000000	0.004436  
3181.000000	0.004393  
3180.000000	0.004375  
3179.000000	0.004350  
3178.000000	0.004305  
3177.000000	0.004268  
3176.000000	0.004297  
3175.000000	0.004421  
3174.000000	0.004588  
3173.000000	0.004689  
3172.000000	0.004653  
3171.000000	0.004508  
3170.000000	0.004345  
3169.000000	0.004246  
3168.000000	0.004246  
3167.000000	0.004325  
3166.000000	0.004424  
3165.000000	0.004487  
3164.000000	0.004498  
3163.000000	0.004483  
3162.000000	0.004466  
3161.000000	0.004443  
3160.000000	0.004415  
3159.000000	0.004414  
3158.000000	0.004474  
3157.000000	0.004586  
3156.000000	0.004699  
3155.000000	0.004774  
3154.000000	0.004811  
3153.000000	0.004824  
3152.000000	0.004813  
3151.000000	0.004745  
3150.000000	0.004585  
3149.000000	0.004357  
3148.000000	0.004154  
3147.000000	0.004067  
3146.000000	0.004093  
3145.000000	0.004143  
3144.000000	0.004157  
3143.000000	0.004152  
3142.000000	0.004154  
3141.000000	0.004140  
3140.000000	0.004092  
3139.000000	0.004077  
3138.000000	0.004190  
3137.000000	0.004414  
3136.000000	0.004597  
3135.000000	0.004593  
3134.000000	0.004398  
3133.000000	0.004151  
3132.000000	0.004019  
3131.000000	0.004071  
3130.000000	0.004242  
3129.000000	0.004395  
3128.000000	0.004438  
3127.000000	0.004381  
3126.000000	0.004284  
3125.000000	0.004197  
3124.000000	0.004156  
3123.000000	0.004216  
3122.000000	0.004393  
3121.000000	0.004602  
3120.000000	0.004688  
3119.000000	0.004576  
3118.000000	0.004346  
3117.000000	0.004158  
3116.000000	0.004116  
3115.000000	0.004206  
3114.000000	0.004335  
3113.000000	0.004414  
3112.000000	0.004419  
3111.000000	0.004402  
3110.000000	0.004421  
3109.000000	0.004467  
3108.000000	0.004471  
3107.000000	0.004382  
3106.000000	0.004227  
3105.000000	0.004087  
3104.000000	0.004040  
3103.000000	0.004122  
3102.000000	0.004300  
3101.000000	0.004478  
3100.000000	0.004548  
3099.000000	0.004466  
3098.000000	0.004286  
3097.000000	0.004113  
3096.000000	0.004039  
3095.000000	0.004100  
3094.000000	0.004254  
3093.000000	0.004406  
3092.000000	0.004472  
3091.000000	0.004448  
3090.000000	0.004396  
3089.000000	0.004365  
3088.000000	0.004349  
3087.000000	0.004339  
3086.000000	0.004361  
3085.000000	0.004427  
3084.000000	0.004485  
3083.000000	0.004464  
3082.000000	0.004383  
3081.000000	0.004359  
3080.000000	0.004491  
3079.000000	0.004754  
3078.000000	0.005023  
3077.000000	0.005179  
3076.000000	0.005194  
3075.000000	0.005113  
3074.000000	0.004990  
3073.000000	0.004861  
3072.000000	0.004756  
3071.000000	0.004718  
3070.000000	0.004775  
3069.000000	0.004897  
3068.000000	0.005007  
3067.000000	0.005045  
3066.000000	0.005026  
3065.000000	0.005022  
3064.000000	0.005099  
3063.000000	0.005253  
3062.000000	0.005409  
3061.000000	0.005479  
3060.000000	0.005440  
3059.000000	0.005359  
3058.000000	0.005318  
3057.000000	0.005334  
3056.000000	0.005365  
3055.000000	0.005389  
3054.000000	0.005430  
3053.000000	0.005494  
3052.000000	0.005522  
3051.000000	0.005451  
3050.000000	0.005309  
3049.000000	0.005214  
3048.000000	0.005265  
3047.000000	0.005450  
3046.000000	0.005669  
3045.000000	0.005814  
3044.000000	0.005842  
3043.000000	0.005783  
3042.000000	0.005706  
3041.000000	0.005670  
3040.000000	0.005704  
3039.000000	0.005804  
3038.000000	0.005945  
3037.000000	0.006078  
3036.000000	0.006152  
3035.000000	0.006152  
3034.000000	0.006111  
3033.000000	0.006087  
3032.000000	0.006137  
3031.000000	0.006291  
3030.000000	0.006539  
3029.000000	0.006811  
3028.000000	0.007020  
3027.000000	0.007133  
3026.000000	0.007205  
3025.000000	0.007323  
3024.000000	0.007533  
3023.000000	0.007835  
3022.000000	0.008188  
3021.000000	0.008523  
3020.000000	0.008760  
3019.000000	0.008893  
3018.000000	0.009032  
3017.000000	0.009311  
3016.000000	0.009754  
3015.000000	0.010245  
3014.000000	0.010648  
3013.000000	0.010919  
3012.000000	0.011088  
3011.000000	0.011199  
3010.000000	0.011281  
3009.000000	0.011365  
3008.000000	0.011474  
3007.000000	0.011596  
3006.000000	0.011677  
3005.000000	0.011648  
3004.000000	0.011472  
3003.000000	0.011181  
3002.000000	0.010889  
3001.000000	0.010737  
3000.000000	0.010795  
2999.000000	0.011009  
2998.000000	0.011245  
2997.000000	0.011389  
2996.000000	0.011420  
2995.000000	0.011413  
2994.000000	0.011485  
2993.000000	0.011728  
2992.000000	0.012154  
2991.000000	0.012703  
2990.000000	0.013300  
2989.000000	0.013905  
2988.000000	0.014535  
2987.000000	0.015228  
2986.000000	0.016018  
2985.000000	0.016921  
2984.000000	0.017925  
2983.000000	0.019007  
2982.000000	0.020161  
2981.000000	0.021421  
2980.000000	0.022844  
2979.000000	0.024471  
2978.000000	0.026318  
2977.000000	0.028412  
2976.000000	0.030797  
2975.000000	0.033517  
2974.000000	0.036586  
2973.000000	0.039994  
2972.000000	0.043720  
2971.000000	0.047744  
2970.000000	0.052070  
2969.000000	0.056743  
2968.000000	0.061803  
2967.000000	0.067197  
2966.000000	0.072733  
2965.000000	0.078179  
2964.000000	0.083399  
2963.000000	0.088383  
2962.000000	0.093155  
2961.000000	0.097684  
2960.000000	0.101880  
2959.000000	0.105622  
2958.000000	0.108764  
2957.000000	0.111180  
2956.000000	0.112827  
2955.000000	0.113731  
2954.000000	0.113902  
2953.000000	0.113308  
2952.000000	0.111974  
2951.000000	0.110067  
2950.000000	0.107864  
2949.000000	0.105640  
2948.000000	0.103610  
2947.000000	0.101931  
2946.000000	0.100733  
2945.000000	0.100133  
2944.000000	0.100253  
2943.000000	0.101211  
2942.000000	0.103083  
2941.000000	0.105870  
2940.000000	0.109502  
2939.000000	0.113885  
2938.000000	0.118948  
2937.000000	0.124632  
2936.000000	0.130849  
2935.000000	0.137451  
2934.000000	0.144269  
2933.000000	0.151215  
2932.000000	0.158331  
2931.000000	0.165689  
2930.000000	0.173219  
2929.000000	0.180662  
2928.000000	0.187689  
2927.000000	0.194037  
2926.000000	0.199520  
2925.000000	0.203984  
2924.000000	0.207283  
2923.000000	0.209264  
2922.000000	0.209784  
2921.000000	0.208805  
2920.000000	0.206491  
2919.000000	0.203137  
2918.000000	0.199006  
2917.000000	0.194261  
2916.000000	0.189051  
2915.000000	0.183575  
2914.000000	0.178021  
2913.000000	0.172512  
2912.000000	0.167147  
2911.000000	0.162050  
2910.000000	0.157332  
2909.000000	0.152970  
2908.000000	0.148793  
2907.000000	0.144597  
2906.000000	0.140297  
2905.000000	0.135982  
2904.000000	0.131825  
2903.000000	0.127960  
2902.000000	0.124393  
2901.000000	0.121017  
2900.000000	0.117677  
2899.000000	0.114252  
2898.000000	0.110727  
2897.000000	0.107191  
2896.000000	0.103776  
2895.000000	0.100558  
2894.000000	0.097516  
2893.000000	0.094555  
2892.000000	0.091574  
2891.000000	0.088529  
2890.000000	0.085477  
2889.000000	0.082564  
2888.000000	0.079953  
2887.000000	0.077744  
2886.000000	0.075942  
2885.000000	0.074510  
2884.000000	0.073443  
2883.000000	0.072786  
2882.000000	0.072612  
2881.000000	0.072987  
2880.000000	0.073975  
2879.000000	0.075642  
2878.000000	0.078001  
2877.000000	0.080945  
2876.000000	0.084219  
2875.000000	0.087485  
2874.000000	0.090433  
2873.000000	0.092833  
2872.000000	0.094543  
2871.000000	0.095526  
2870.000000	0.095901  
2869.000000	0.095956  
2868.000000	0.096040  
2867.000000	0.096407  
2866.000000	0.097190  
2865.000000	0.098497  
2864.000000	0.100474  
2863.000000	0.103213  
2862.000000	0.106653  
2861.000000	0.110617  
2860.000000	0.114941  
2859.000000	0.119501  
2858.000000	0.124121  
2857.000000	0.128472  
2856.000000	0.132100  
2855.000000	0.134517  
2854.000000	0.135323  
2853.000000	0.134337  
2852.000000	0.131654  
2851.000000	0.127550  
2850.000000	0.122329  
2849.000000	0.116255  
2848.000000	0.109587  
2847.000000	0.102613  
2846.000000	0.095619  
2845.000000	0.088819  
2844.000000	0.082303  
2843.000000	0.076049  
2842.000000	0.070014  
2841.000000	0.064230  
2840.000000	0.058802  
2839.000000	0.053829  
2838.000000	0.049349  
2837.000000	0.045353  
2836.000000	0.041797  
2835.000000	0.038598  
2834.000000	0.035657  
2833.000000	0.032942  
2832.000000	0.030522  
2831.000000	0.028486  
2830.000000	0.026833  
2829.000000	0.025462  
2828.000000	0.024252  
2827.000000	0.023126  
2826.000000	0.022049  
2825.000000	0.021010  
2824.000000	0.020030  
2823.000000	0.019153  
2822.000000	0.018403  
2821.000000	0.017767  
2820.000000	0.017208  
2819.000000	0.016695  
2818.000000	0.016205  
2817.000000	0.015716  
2816.000000	0.015219  
2815.000000	0.014712  
2814.000000	0.014190  
2813.000000	0.013647  
2812.000000	0.013104  
2811.000000	0.012622  
2810.000000	0.012265  
2809.000000	0.012047  
2808.000000	0.011938  
2807.000000	0.011893  
2806.000000	0.011870  
2805.000000	0.011815  
2804.000000	0.011667  
2803.000000	0.011399  
2802.000000	0.011051  
2801.000000	0.010701  
2800.000000	0.010408  
2799.000000	0.010183  
2798.000000	0.010008  
2797.000000	0.009867  
2796.000000	0.009760  
2795.000000	0.009676  
2794.000000	0.009565  
2793.000000	0.009356  
2792.000000	0.009024  
2791.000000	0.008640  
2790.000000	0.008330  
2789.000000	0.008176  
2788.000000	0.008160  
2787.000000	0.008200  
2786.000000	0.008226  
2785.000000	0.008214  
2784.000000	0.008174  
2783.000000	0.008121  
2782.000000	0.008072  
2781.000000	0.008046  
2780.000000	0.008047  
2779.000000	0.008053  
2778.000000	0.008007  
2777.000000	0.007846  
2776.000000	0.007553  
2775.000000	0.007201  
2774.000000	0.006928  
2773.000000	0.006835  
2772.000000	0.006905  
2771.000000	0.007023  
2770.000000	0.007080  
2769.000000	0.007040  
2768.000000	0.006920  
2767.000000	0.006747  
2766.000000	0.006545  
2765.000000	0.006368  
2764.000000	0.006277  
2763.000000	0.006285  
2762.000000	0.006336  
2761.000000	0.006355  
2760.000000	0.006313  
2759.000000	0.006235  
2758.000000	0.006152  
2757.000000	0.006074  
2756.000000	0.006008  
2755.000000	0.005968  
2754.000000	0.005966  
2753.000000	0.005985  
2752.000000	0.005985  
2751.000000	0.005946  
2750.000000	0.005886  
2749.000000	0.005844  
2748.000000	0.005833  
2747.000000	0.005821  
2746.000000	0.005775  
2745.000000	0.005710  
2744.000000	0.005676  
2743.000000	0.005699  
2742.000000	0.005750  
2741.000000	0.005794  
2740.000000	0.005846  
2739.000000	0.005938  
2738.000000	0.006060  
2737.000000	0.006158  
2736.000000	0.006210  
2735.000000	0.006264  
2734.000000	0.006369  
2733.000000	0.006499  
2732.000000	0.006560  
2731.000000	0.006493  
2730.000000	0.006340  
2729.000000	0.006219  
2728.000000	0.006217  
2727.000000	0.006314  
2726.000000	0.006405  
2725.000000	0.006394  
2724.000000	0.006278  
2723.000000	0.006136  
2722.000000	0.006047  
2721.000000	0.006040  
2720.000000	0.006096  
2719.000000	0.006180  
2718.000000	0.006242  
2717.000000	0.006240  
2716.000000	0.006173  
2715.000000	0.006077  
2714.000000	0.005974  
2713.000000	0.005846  
2712.000000	0.005678  
2711.000000	0.005511  
2710.000000	0.005408  
2709.000000	0.005373  
2708.000000	0.005356  
2707.000000	0.005324  
2706.000000	0.005289  
2705.000000	0.005261  
2704.000000	0.005215  
2703.000000	0.005122  
2702.000000	0.004997  
2701.000000	0.004875  
2700.000000	0.004772  
2699.000000	0.004692  
2698.000000	0.004652  
2697.000000	0.004683  
2696.000000	0.004779  
2695.000000	0.004903  
2694.000000	0.005013  
2693.000000	0.005090  
2692.000000	0.005123  
2691.000000	0.005120  
2690.000000	0.005123  
2689.000000	0.005194  
2688.000000	0.005351  
2687.000000	0.005518  
2686.000000	0.005595  
2685.000000	0.005561  
2684.000000	0.005492  
2683.000000	0.005467  
2682.000000	0.005494  
2681.000000	0.005521  
2680.000000	0.005516  
2679.000000	0.005488  
2678.000000	0.005462  
2677.000000	0.005468  
2676.000000	0.005530  
2675.000000	0.005647  
2674.000000	0.005764  
2673.000000	0.005809  
2672.000000	0.005758  
2671.000000	0.005654  
2670.000000	0.005556  
2669.000000	0.005505  
2668.000000	0.005533  
2667.000000	0.005647  
2666.000000	0.005801  
2665.000000	0.005902  
2664.000000	0.005888  
2663.000000	0.005765  
2662.000000	0.005576  
2661.000000	0.005352  
2660.000000	0.005130  
2659.000000	0.004963  
2658.000000	0.004877  
2657.000000	0.004832  
2656.000000	0.004778  
2655.000000	0.004733  
2654.000000	0.004748  
2653.000000	0.004818  
2652.000000	0.004880  
2651.000000	0.004905  
2650.000000	0.004929  
2649.000000	0.004979  
2648.000000	0.005029  
2647.000000	0.005041  
2646.000000	0.005005  
2645.000000	0.004929  
2644.000000	0.004829  
2643.000000	0.004751  
2642.000000	0.004753  
2641.000000	0.004827  
2640.000000	0.004872  
2639.000000	0.004791  
2638.000000	0.004595  
2637.000000	0.004391  
2636.000000	0.004291  
2635.000000	0.004337  
2634.000000	0.004510  
2633.000000	0.004733  
2632.000000	0.004909  
2631.000000	0.004962  
2630.000000	0.004877  
2629.000000	0.004700  
2628.000000	0.004518  
2627.000000	0.004433  
2626.000000	0.004498  
2625.000000	0.004654  
2624.000000	0.004750  
2623.000000	0.004684  
2622.000000	0.004498  
2621.000000	0.004305  
2620.000000	0.004166  
2619.000000	0.004066  
2618.000000	0.003995  
2617.000000	0.003988  
2616.000000	0.004066  
2615.000000	0.004203  
2614.000000	0.004350  
2613.000000	0.004474  
2612.000000	0.004559  
2611.000000	0.004600  
2610.000000	0.004606  
2609.000000	0.004596  
2608.000000	0.004578  
2607.000000	0.004560  
2606.000000	0.004560  
2605.000000	0.004589  
2604.000000	0.004608  
2603.000000	0.004565  
2602.000000	0.004459  
2601.000000	0.004362  
2600.000000	0.004334  
2599.000000	0.004340  
2598.000000	0.004287  
2597.000000	0.004134  
2596.000000	0.003932  
2595.000000	0.003769  
2594.000000	0.003671  
2593.000000	0.003598  
2592.000000	0.003518  
2591.000000	0.003457  
2590.000000	0.003458  
2589.000000	0.003510  
2588.000000	0.003548  
2587.000000	0.003547  
2586.000000	0.003556  
2585.000000	0.003620  
2584.000000	0.003702  
2583.000000	0.003723  
2582.000000	0.003660  
2581.000000	0.003573  
2580.000000	0.003539  
2579.000000	0.003585  
2578.000000	0.003692  
2577.000000	0.003817  
2576.000000	0.003901  
2575.000000	0.003890  
2574.000000	0.003769  
2573.000000	0.003580  
2572.000000	0.003403  
2571.000000	0.003296  
2570.000000	0.003269  
2569.000000	0.003279  
2568.000000	0.003267  
2567.000000	0.003196  
2566.000000	0.003084  
2565.000000	0.002989  
2564.000000	0.002952  
2563.000000	0.002974  
2562.000000	0.003026  
2561.000000	0.003086  
2560.000000	0.003141  
2559.000000	0.003175  
2558.000000	0.003186  
2557.000000	0.003212  
2556.000000	0.003306  
2555.000000	0.003459  
2554.000000	0.003581  
2553.000000	0.003586  
2552.000000	0.003513  
2551.000000	0.003506  
2550.000000	0.003651  
2549.000000	0.003870  
2548.000000	0.004001  
2547.000000	0.003934  
2546.000000	0.003675  
2545.000000	0.003305  
2544.000000	0.002945  
2543.000000	0.002722  
2542.000000	0.002685  
2541.000000	0.002748  
2540.000000	0.002778  
2539.000000	0.002752  
2538.000000	0.002765  
2537.000000	0.002881  
2536.000000	0.003025  
2535.000000	0.003066  
2534.000000	0.002960  
2533.000000	0.002772  
2532.000000	0.002602  
2531.000000	0.002511  
2530.000000	0.002495  
2529.000000	0.002500  
2528.000000	0.002483  
2527.000000	0.002480  
2526.000000	0.002581  
2525.000000	0.002809  
2524.000000	0.003072  
2523.000000	0.003252  
2522.000000	0.003299  
2521.000000	0.003218  
2520.000000	0.003029  
2519.000000	0.002797  
2518.000000	0.002667  
2517.000000	0.002752  
2516.000000	0.003011  
2515.000000	0.003279  
2514.000000	0.003428  
2513.000000	0.003450  
2512.000000	0.003383  
2511.000000	0.003245  
2510.000000	0.003055  
2509.000000	0.002865  
2508.000000	0.002739  
2507.000000	0.002717  
2506.000000	0.002795  
2505.000000	0.002915  
2504.000000	0.002972  
2503.000000	0.002886  
2502.000000	0.002710  
2501.000000	0.002613  
2500.000000	0.002717  
2499.000000	0.002940  
2498.000000	0.003043  
2497.000000	0.002837  
2496.000000	0.002360  
2495.000000	0.001863  
2494.000000	0.001625  
2493.000000	0.001758  
2492.000000	0.002161  
2491.000000	0.002630  
2490.000000	0.003004  
2489.000000	0.003218  
2488.000000	0.003277  
2487.000000	0.003203  
2486.000000	0.003016  
2485.000000	0.002739  
2484.000000	0.002426  
2483.000000	0.002184  
2482.000000	0.002135  
2481.000000	0.002326  
2480.000000	0.002673  
2479.000000	0.003007  
2478.000000	0.003181  
2477.000000	0.003147  
2476.000000	0.002964  
2475.000000	0.002752  
2474.000000	0.002621  
2473.000000	0.002602  
2472.000000	0.002643  
2471.000000	0.002659  
2470.000000	0.002591  
2469.000000	0.002431  
2468.000000	0.002255  
2467.000000	0.002210  
2466.000000	0.002383  
2465.000000	0.002670  
2464.000000	0.002835  
2463.000000	0.002752  
2462.000000	0.002530  
2461.000000	0.002363  
2460.000000	0.002319  
2459.000000	0.002363  
2458.000000	0.002485  
2457.000000	0.002681  
2456.000000	0.002847  
2455.000000	0.002838  
2454.000000	0.002654  
2453.000000	0.002452  
2452.000000	0.002347  
2451.000000	0.002289  
2450.000000	0.002202  
2449.000000	0.002124  
2448.000000	0.002157  
2447.000000	0.002314  
2446.000000	0.002507  
2445.000000	0.002634  
2444.000000	0.002651  
2443.000000	0.002582  
2442.000000	0.002514  
2441.000000	0.002532  
2440.000000	0.002615  
2439.000000	0.002646  
2438.000000	0.002563  
2437.000000	0.002446  
2436.000000	0.002409  
2435.000000	0.002432  
2434.000000	0.002401  
2433.000000	0.002286  
2432.000000	0.002190  
2431.000000	0.002220  
2430.000000	0.002357  
2429.000000	0.002496  
2428.000000	0.002568  
2427.000000	0.002590  
2426.000000	0.002626  
2425.000000	0.002703  
2424.000000	0.002779  
2423.000000	0.002780  
2422.000000	0.002675  
2421.000000	0.002521  
2420.000000	0.002410  
2419.000000	0.002381  
2418.000000	0.002407  
2417.000000	0.002440  
2416.000000	0.002468  
2415.000000	0.002500  
2414.000000	0.002558  
2413.000000	0.002652  
2412.000000	0.002773  
2411.000000	0.002889  
2410.000000	0.002972  
2409.000000	0.003026  
2408.000000	0.003067  
2407.000000	0.003071  
2406.000000	0.002969  
2405.000000	0.002728  
2404.000000	0.002405  
2403.000000	0.002120  
2402.000000	0.001949  
2401.000000	0.001883  
2400.000000	0.001893  
2399.000000	0.001985  
2398.000000	0.002189  
2397.000000	0.002465  
2396.000000	0.002695  
2395.000000	0.002777  
2394.000000	0.002738  
2393.000000	0.002705  
2392.000000	0.002777  
2391.000000	0.002941  
2390.000000	0.003119  
2389.000000	0.003289  
2388.000000	0.003535  
2387.000000	0.003972  
2386.000000	0.004618  
2385.000000	0.005310  
2384.000000	0.005759  
2383.000000	0.005713  
2382.000000	0.005111  
2381.000000	0.004110  
2380.000000	0.002974  
2379.000000	0.001934  
2378.000000	0.001115  
2377.000000	0.000561  
2376.000000	0.000329  
2375.000000	0.000520  
2374.000000	0.001184  
2373.000000	0.002203  
2372.000000	0.003332  
2371.000000	0.004341  
2370.000000	0.005045  
2369.000000	0.005233  
2368.000000	0.004827  
2367.000000	0.004154  
2366.000000	0.003785  
2365.000000	0.003889  
2364.000000	0.004032  
2363.000000	0.003829  
2362.000000	0.003385  
2361.000000	0.003133  
2360.000000	0.003546  
2359.000000	0.004583  
2358.000000	0.005620  
2357.000000	0.005904  
2356.000000	0.005300  
2355.000000	0.004376  
2354.000000	0.003530  
2353.000000	0.002962  
2352.000000	0.002802  
2351.000000	0.003071  
2350.000000	0.003603  
2349.000000	0.003964  
2348.000000	0.003934  
2347.000000	0.003566  
2346.000000	0.003493  
2345.000000	0.004271  
2344.000000	0.005453  
2343.000000	0.006048  
2342.000000	0.005296  
2341.000000	0.003741  
2340.000000	0.002606  
2339.000000	0.002439  
2338.000000	0.002638  
2337.000000	0.002458  
2336.000000	0.001895  
2335.000000	0.001445  
2334.000000	0.001266  
2333.000000	0.001315  
2332.000000	0.001644  
2331.000000	0.002409  
2330.000000	0.003597  
2329.000000	0.004817  
2328.000000	0.005917  
2327.000000	0.006733  
2326.000000	0.007135  
2325.000000	0.007008  
2324.000000	0.006378  
2323.000000	0.005579  
2322.000000	0.004828  
2321.000000	0.004390  
2320.000000	0.004404  
2319.000000	0.004908  
2318.000000	0.005617  
2317.000000	0.006076  
2316.000000	0.006013  
2315.000000	0.005545  
2314.000000	0.005102  
2313.000000	0.005019  
2312.000000	0.005322  
2311.000000	0.005748  
2310.000000	0.006080  
2309.000000	0.006274  
2308.000000	0.006380  
2307.000000	0.006390  
2306.000000	0.006255  
2305.000000	0.006036  
2304.000000	0.005874  
2303.000000	0.005871  
2302.000000	0.005971  
2301.000000	0.006036  
2300.000000	0.005984  
2299.000000	0.005863  
2298.000000	0.005804  
2297.000000	0.005854  
2296.000000	0.005921  
2295.000000	0.005842  
2294.000000	0.005570  
2293.000000	0.005207  
2292.000000	0.004887  
2291.000000	0.004647  
2290.000000	0.004462  
2289.000000	0.004330  
2288.000000	0.004237  
2287.000000	0.004083  
2286.000000	0.003751  
2285.000000	0.003276  
2284.000000	0.002847  
2283.000000	0.002609  
2282.000000	0.002527  
2281.000000	0.002490  
2280.000000	0.002493  
2279.000000	0.002623  
2278.000000	0.002876  
2277.000000	0.003098  
2276.000000	0.003174  
2275.000000	0.003210  
2274.000000	0.003437  
2273.000000	0.003907  
2272.000000	0.004380  
2271.000000	0.004565  
2270.000000	0.004411  
2269.000000	0.004103  
2268.000000	0.003789  
2267.000000	0.003458  
2266.000000	0.003085  
2265.000000	0.002779  
2264.000000	0.002673  
2263.000000	0.002750  
2262.000000	0.002894  
2261.000000	0.003046  
2260.000000	0.003201  
2259.000000	0.003310  
2258.000000	0.003322  
2257.000000	0.003329  
2256.000000	0.003502  
2255.000000	0.003827  
2254.000000	0.004060  
2253.000000	0.004007  
2252.000000	0.003758  
2251.000000	0.003548  
2250.000000	0.003460  
2249.000000	0.003358  
2248.000000	0.003080  
2247.000000	0.002618  
2246.000000	0.002132  
2245.000000	0.001825  
2244.000000	0.001792  
2243.000000	0.001949  
2242.000000	0.002125  
2241.000000	0.002249  
2240.000000	0.002407  
2239.000000	0.002680  
2238.000000	0.002990  
2237.000000	0.003152  
2236.000000	0.003058  
2235.000000	0.002760  
2234.000000	0.002416  
2233.000000	0.002199  
2232.000000	0.002196  
2231.000000	0.002331  
2230.000000	0.002402  
2229.000000	0.002281  
2228.000000	0.002055  
2227.000000	0.001914  
2226.000000	0.001910  
2225.000000	0.001908  
2224.000000	0.001752  
2223.000000	0.001446  
2222.000000	0.001172  
2221.000000	0.001176  
2220.000000	0.001582  
2219.000000	0.002235  
2218.000000	0.002769  
2217.000000	0.002950  
2216.000000	0.002936  
2215.000000	0.003073  
2214.000000	0.003425  
2213.000000	0.003674  
2212.000000	0.003563  
2211.000000	0.003247  
2210.000000	0.003047  
2209.000000	0.002992  
2208.000000	0.002825  
2207.000000	0.002457  
2206.000000	0.002169  
2205.000000	0.002272  
2204.000000	0.002701  
2203.000000	0.003118  
2202.000000	0.003317  
2201.000000	0.003389  
2200.000000	0.003505  
2199.000000	0.003702  
2198.000000	0.003912  
2197.000000	0.004081  
2196.000000	0.004156  
2195.000000	0.004050  
2194.000000	0.003725  
2193.000000	0.003276  
2192.000000	0.002829  
2191.000000	0.002356  
2190.000000	0.001751  
2189.000000	0.001108  
2188.000000	0.000771  
2187.000000	0.000983  
2186.000000	0.001560  
2185.000000	0.002030  
2184.000000	0.002097  
2183.000000	0.001891  
2182.000000	0.001765  
2181.000000	0.001964  
2180.000000	0.002468  
2179.000000	0.003066  
2178.000000	0.003496  
2177.000000	0.003610  
2176.000000	0.003452  
2175.000000	0.003148  
2174.000000	0.002727  
2173.000000	0.002173  
2172.000000	0.001645  
2171.000000	0.001463  
2170.000000	0.001755  
2169.000000	0.002217  
2168.000000	0.002419  
2167.000000	0.002344  
2166.000000	0.002419  
2165.000000	0.002952  
2164.000000	0.003675  
2163.000000	0.004033  
2162.000000	0.003807  
2161.000000	0.003304  
2160.000000	0.002947  
2159.000000	0.002842  
2158.000000	0.002850  
2157.000000	0.002906  
2156.000000	0.003036  
2155.000000	0.003160  
2154.000000	0.003123  
2153.000000	0.002927  
2152.000000	0.002791  
2151.000000	0.002880  
2150.000000	0.003068  
2149.000000	0.003072  
2148.000000	0.002794  
2147.000000	0.002439  
2146.000000	0.002287  
2145.000000	0.002445  
2144.000000	0.002808  
2143.000000	0.003176  
2142.000000	0.003329  
2141.000000	0.003105  
2140.000000	0.002537  
2139.000000	0.001916  
2138.000000	0.001631  
2137.000000	0.001847  
2136.000000	0.002327  
2135.000000	0.002629  
2134.000000	0.002509  
2133.000000	0.002140  
2132.000000	0.001921  
2131.000000	0.002086  
2130.000000	0.002513  
2129.000000	0.002907  
2128.000000	0.003095  
2127.000000	0.003096  
2126.000000	0.002953  
2125.000000	0.002651  
2124.000000	0.002253  
2123.000000	0.001994  
2122.000000	0.002113  
2121.000000	0.002582  
2120.000000	0.003082  
2119.000000	0.003296  
2118.000000	0.003164  
2117.000000	0.002891  
2116.000000	0.002751  
2115.000000	0.002871  
2114.000000	0.003130  
2113.000000	0.003263  
2112.000000	0.003118  
2111.000000	0.002823  
2110.000000	0.002653  
2109.000000	0.002711  
2108.000000	0.002824  
2107.000000	0.002764  
2106.000000	0.002505  
2105.000000	0.002183  
2104.000000	0.001902  
2103.000000	0.001671  
2102.000000	0.001493  
2101.000000	0.001401  
2100.000000	0.001389  
2099.000000	0.001397  
2098.000000	0.001390  
2097.000000	0.001395  
2096.000000	0.001438  
2095.000000	0.001497  
2094.000000	0.001551  
2093.000000	0.001625  
2092.000000	0.001757  
2091.000000	0.001918  
2090.000000	0.002025  
2089.000000	0.002045  
2088.000000	0.002071  
2087.000000	0.002258  
2086.000000	0.002638  
2085.000000	0.003018  
2084.000000	0.003102  
2083.000000	0.002777  
2082.000000	0.002241  
2081.000000	0.001848  
2080.000000	0.001821  
2079.000000	0.002121  
2078.000000	0.002527  
2077.000000	0.002794  
2076.000000	0.002805  
2075.000000	0.002661  
2074.000000	0.002595  
2073.000000	0.002733  
2072.000000	0.002944  
2071.000000	0.003000  
2070.000000	0.002858  
2069.000000	0.002677  
2068.000000	0.002575  
2067.000000	0.002504  
2066.000000	0.002398  
2065.000000	0.002316  
2064.000000	0.002343  
2063.000000	0.002449  
2062.000000	0.002538  
2061.000000	0.002559  
2060.000000	0.002496  
2059.000000	0.002340  
2058.000000	0.002153  
2057.000000	0.002078  
2056.000000	0.002158  
2055.000000	0.002206  
2054.000000	0.002013  
2053.000000	0.001642  
2052.000000	0.001385  
2051.000000	0.001432  
2050.000000	0.001734  
2049.000000	0.002180  
2048.000000	0.002715  
2047.000000	0.003198  
2046.000000	0.003317  
2045.000000	0.002862  
2044.000000	0.002036  
2043.000000	0.001307  
2042.000000	0.001004  
2041.000000	0.001144  
2040.000000	0.001600  
2039.000000	0.002251  
2038.000000	0.002896  
2037.000000	0.003234  
2036.000000	0.003113  
2035.000000	0.002749  
2034.000000	0.002545  
2033.000000	0.002673  
2032.000000	0.002931  
2031.000000	0.003015  
2030.000000	0.002804  
2029.000000	0.002382  
2028.000000	0.001877  
2027.000000	0.001378  
2026.000000	0.000946  
2025.000000	0.000636  
2024.000000	0.000515  
2023.000000	0.000690  
2022.000000	0.001257  
2021.000000	0.002097  
2020.000000	0.002812  
2019.000000	0.003002  
2018.000000	0.002643  
2017.000000	0.002081  
2016.000000	0.001626  
2015.000000	0.001304  
2014.000000	0.001091  
2013.000000	0.001118  
2012.000000	0.001414  
2011.000000	0.001602  
2010.000000	0.001183  
2009.000000	0.000183  
2008.000000	-0.000744 
2007.000000	-0.001003 
2006.000000	-0.000605 
2005.000000	0.000051  
2004.000000	0.000742  
2003.000000	0.001522  
2002.000000	0.002429  
2001.000000	0.003296  
2000.000000	0.003831  
1999.000000	0.003774  
1998.000000	0.003059  
1997.000000	0.001967  
1996.000000	0.001059  
1995.000000	0.000765  
1994.000000	0.001042  
1993.000000	0.001488  
1992.000000	0.001774  
1991.000000	0.001872  
1990.000000	0.001863  
1989.000000	0.001774  
1988.000000	0.001688  
1987.000000	0.001786  
1986.000000	0.002134  
1985.000000	0.002565  
1984.000000	0.002887  
1983.000000	0.003086  
1982.000000	0.003197  
1981.000000	0.003131  
1980.000000	0.002829  
1979.000000	0.002482  
1978.000000	0.002348  
1977.000000	0.002352  
1976.000000	0.002181  
1975.000000	0.001764  
1974.000000	0.001358  
1973.000000	0.001124  
1972.000000	0.000948  
1971.000000	0.000771  
1970.000000	0.000801  
1969.000000	0.001188  
1968.000000	0.001683  
1967.000000	0.001876  
1966.000000	0.001697  
1965.000000	0.001442  
1964.000000	0.001362  
1963.000000	0.001460  
1962.000000	0.001624  
1961.000000	0.001754  
1960.000000	0.001804  
1959.000000	0.001795  
1958.000000	0.001805  
1957.000000	0.001835  
1956.000000	0.001760  
1955.000000	0.001500  
1954.000000	0.001203  
1953.000000	0.001147  
1952.000000	0.001471  
1951.000000	0.002081  
1950.000000	0.002743  
1949.000000	0.003181  
1948.000000	0.003167  
1947.000000	0.002710  
1946.000000	0.002130  
1945.000000	0.001823  
1944.000000	0.001893  
1943.000000	0.002095  
1942.000000	0.002180  
1941.000000	0.002146  
1940.000000	0.002094  
1939.000000	0.002057  
1938.000000	0.002087  
1937.000000	0.002308  
1936.000000	0.002746  
1935.000000	0.003201  
1934.000000	0.003431  
1933.000000	0.003405  
1932.000000	0.003293  
1931.000000	0.003228  
1930.000000	0.003199  
1929.000000	0.003158  
1928.000000	0.003110  
1927.000000	0.003049  
1926.000000	0.002917  
1925.000000	0.002690  
1924.000000	0.002439  
1923.000000	0.002286  
1922.000000	0.002300  
1921.000000	0.002467  
1920.000000	0.002723  
1919.000000	0.002959  
1918.000000	0.003084  
1917.000000	0.003129  
1916.000000	0.003198  
1915.000000	0.003268  
1914.000000	0.003185  
1913.000000	0.002868  
1912.000000	0.002452  
1911.000000	0.002163  
1910.000000	0.002091  
1909.000000	0.002152  
1908.000000	0.002241  
1907.000000	0.002315  
1906.000000	0.002347  
1905.000000	0.002328  
1904.000000	0.002306  
1903.000000	0.002356  
1902.000000	0.002490  
1901.000000	0.002639  
1900.000000	0.002729  
1899.000000	0.002727  
1898.000000	0.002640  
1897.000000	0.002521  
1896.000000	0.002458  
1895.000000	0.002515  
1894.000000	0.002660  
1893.000000	0.002814  
1892.000000	0.002946  
1891.000000	0.003067  
1890.000000	0.003152  
1889.000000	0.003134  
1888.000000	0.002987  
1887.000000	0.002740  
1886.000000	0.002465  
1885.000000	0.002281  
1884.000000	0.002288  
1883.000000	0.002447  
1882.000000	0.002587  
1881.000000	0.002577  
1880.000000	0.002450  
1879.000000	0.002326  
1878.000000	0.002249  
1877.000000	0.002205  
1876.000000	0.002225  
1875.000000	0.002386  
1874.000000	0.002669  
1873.000000	0.002944  
1872.000000	0.003102  
1871.000000	0.003131  
1870.000000	0.003032  
1869.000000	0.002787  
1868.000000	0.002499  
1867.000000	0.002365  
1866.000000	0.002432  
1865.000000	0.002579  
1864.000000	0.002676  
1863.000000	0.002689  
1862.000000	0.002651  
1861.000000	0.002586  
1860.000000	0.002515  
1859.000000	0.002507  
1858.000000	0.002622  
1857.000000	0.002818  
1856.000000	0.002954  
1855.000000	0.002895  
1854.000000	0.002640  
1853.000000	0.002345  
1852.000000	0.002205  
1851.000000	0.002288  
1850.000000	0.002468  
1849.000000	0.002544  
1848.000000	0.002445  
1847.000000	0.002304  
1846.000000	0.002315  
1845.000000	0.002531  
1844.000000	0.002802  
1843.000000	0.002933  
1842.000000	0.002869  
1841.000000	0.002694  
1840.000000	0.002522  
1839.000000	0.002441  
1838.000000	0.002463  
1837.000000	0.002514  
1836.000000	0.002509  
1835.000000	0.002451  
1834.000000	0.002410  
1833.000000	0.002404  
1832.000000	0.002365  
1831.000000	0.002263  
1830.000000	0.002207  
1829.000000	0.002322  
1828.000000	0.002547  
1827.000000	0.002738  
1826.000000	0.002839  
1825.000000	0.002886  
1824.000000	0.002944  
1823.000000	0.003041  
1822.000000	0.003134  
1821.000000	0.003116  
1820.000000	0.002898  
1819.000000	0.002549  
1818.000000	0.002286  
1817.000000	0.002275  
1816.000000	0.002458  
1815.000000	0.002646  
1814.000000	0.002718  
1813.000000	0.002686  
1812.000000	0.002630  
1811.000000	0.002636  
1810.000000	0.002741  
1809.000000	0.002899  
1808.000000	0.003043  
1807.000000	0.003130  
1806.000000	0.003139  
1805.000000	0.003081  
1804.000000	0.003007  
1803.000000	0.002981  
1802.000000	0.003040  
1801.000000	0.003160  
1800.000000	0.003302  
1799.000000	0.003440  
1798.000000	0.003528  
1797.000000	0.003525  
1796.000000	0.003454  
1795.000000	0.003371  
1794.000000	0.003309  
1793.000000	0.003253  
1792.000000	0.003194  
1791.000000	0.003169  
1790.000000	0.003189  
1789.000000	0.003229  
1788.000000	0.003276  
1787.000000	0.003329  
1786.000000	0.003368  
1785.000000	0.003371  
1784.000000	0.003339  
1783.000000	0.003296  
1782.000000	0.003278  
1781.000000	0.003332  
1780.000000	0.003493  
1779.000000	0.003731  
1778.000000	0.003950  
1777.000000	0.004074  
1776.000000	0.004101  
1775.000000	0.004070  
1774.000000	0.004023  
1773.000000	0.003959  
1772.000000	0.003855  
1771.000000	0.003741  
1770.000000	0.003698  
1769.000000	0.003775  
1768.000000	0.003941  
1767.000000	0.004106  
1766.000000	0.004229  
1765.000000	0.004354  
1764.000000	0.004548  
1763.000000	0.004826  
1762.000000	0.005162  
1761.000000	0.005527  
1760.000000	0.005870  
1759.000000	0.006157  
1758.000000	0.006439  
1757.000000	0.006829  
1756.000000	0.007367  
1755.000000	0.007996  
1754.000000	0.008749  
1753.000000	0.009843  
1752.000000	0.011487  
1751.000000	0.013653  
1750.000000	0.016236  
1749.000000	0.019346  
1748.000000	0.023049  
1747.000000	0.027140  
1746.000000	0.031414  
1745.000000	0.035775  
1744.000000	0.039875  
1743.000000	0.043047  
1742.000000	0.044788  
1741.000000	0.044892  
1740.000000	0.043273  
1739.000000	0.040352  
1738.000000	0.037096  
1737.000000	0.034018  
1736.000000	0.030816  
1735.000000	0.026834  
1734.000000	0.022402  
1733.000000	0.018856  
1732.000000	0.016501  
1731.000000	0.014742  
1730.000000	0.013281  
1729.000000	0.012116  
1728.000000	0.011246  
1727.000000	0.010580  
1726.000000	0.010026  
1725.000000	0.009515  
1724.000000	0.008989  
1723.000000	0.008459  
1722.000000	0.007990  
1721.000000	0.007618  
1720.000000	0.007305  
1719.000000	0.007015  
1718.000000	0.006740  
1717.000000	0.006418  
1716.000000	0.006062  
1715.000000	0.005795  
1714.000000	0.005654  
1713.000000	0.005569  
1712.000000	0.005450  
1711.000000	0.005275  
1710.000000	0.005091  
1709.000000	0.004944  
1708.000000	0.004835  
1707.000000	0.004776  
1706.000000	0.004785  
1705.000000	0.004830  
1704.000000	0.004923  
1703.000000	0.005129  
1702.000000	0.005481  
1701.000000	0.005734  
1700.000000	0.005619  
1699.000000	0.005349  
1698.000000	0.005170  
1697.000000	0.005034  
1696.000000	0.004872  
1695.000000	0.004772  
1694.000000	0.004736  
1693.000000	0.004674  
1692.000000	0.004594  
1691.000000	0.004545  
1690.000000	0.004556  
1689.000000	0.004583  
1688.000000	0.004583  
1687.000000	0.004555  
1686.000000	0.004528  
1685.000000	0.004444  
1684.000000	0.004318  
1683.000000	0.004324  
1682.000000	0.004431  
1681.000000	0.004521  
1680.000000	0.004552  
1679.000000	0.004533  
1678.000000	0.004473  
1677.000000	0.004378  
1676.000000	0.004250  
1675.000000	0.004166  
1674.000000	0.004210  
1673.000000	0.004359  
1672.000000	0.004549  
1671.000000	0.004740  
1670.000000	0.004877  
1669.000000	0.004932  
1668.000000	0.004921  
1667.000000	0.004877  
1666.000000	0.004876  
1665.000000	0.004982  
1664.000000	0.005171  
1663.000000	0.005359  
1662.000000	0.005496  
1661.000000	0.005619  
1660.000000	0.005756  
1659.000000	0.005887  
1658.000000	0.005927  
1657.000000	0.005878  
1656.000000	0.005779  
1655.000000	0.005742  
1654.000000	0.005766  
1653.000000	0.005917  
1652.000000	0.006196  
1651.000000	0.006291  
1650.000000	0.006267  
1649.000000	0.006311  
1648.000000	0.006435  
1647.000000	0.006473  
1646.000000	0.006377  
1645.000000	0.006236  
1644.000000	0.006083  
1643.000000	0.005961  
1642.000000	0.005946  
1641.000000	0.006010  
1640.000000	0.006071  
1639.000000	0.006069  
1638.000000	0.006033  
1637.000000	0.006013  
1636.000000	0.006014  
1635.000000	0.006025  
1634.000000	0.006014  
1633.000000	0.005965  
1632.000000	0.005919  
1631.000000	0.005908  
1630.000000	0.005908  
1629.000000	0.005899  
1628.000000	0.005875  
1627.000000	0.005854  
1626.000000	0.005868  
1625.000000	0.005942  
1624.000000	0.006031  
1623.000000	0.006032  
1622.000000	0.005932  
1621.000000	0.005837  
1620.000000	0.005818  
1619.000000	0.005865  
1618.000000	0.005893  
1617.000000	0.005846  
1616.000000	0.005795  
1615.000000	0.005784  
1614.000000	0.005787  
1613.000000	0.005820  
1612.000000	0.005907  
1611.000000	0.006031  
1610.000000	0.006143  
1609.000000	0.006200  
1608.000000	0.006175  
1607.000000	0.006056  
1606.000000	0.005886  
1605.000000	0.005741  
1604.000000	0.005646  
1603.000000	0.005556  
1602.000000	0.005447  
1601.000000	0.005358  
1600.000000	0.005314  
1599.000000	0.005276  
1598.000000	0.005210  
1597.000000	0.005143  
1596.000000	0.005121  
1595.000000	0.005153  
1594.000000	0.005212  
1593.000000	0.005288  
1592.000000	0.005387  
1591.000000	0.005496  
1590.000000	0.005578  
1589.000000	0.005616  
1588.000000	0.005622  
1587.000000	0.005607  
1586.000000	0.005599  
1585.000000	0.005629  
1584.000000	0.005690  
1583.000000	0.005748  
1582.000000	0.005788  
1581.000000	0.005843  
1580.000000	0.005946  
1579.000000	0.006088  
1578.000000	0.006212  
1577.000000	0.006243  
1576.000000	0.006181  
1575.000000	0.006119  
1574.000000	0.006140  
1573.000000	0.006275  
1572.000000	0.006480  
1571.000000	0.006616  
1570.000000	0.006561  
1569.000000	0.006427  
1568.000000	0.006372  
1567.000000	0.006365  
1566.000000	0.006306  
1565.000000	0.006183  
1564.000000	0.005990  
1563.000000	0.005774  
1562.000000	0.005567  
1561.000000	0.005466  
1560.000000	0.005532  
1559.000000	0.005578  
1558.000000	0.005563  
1557.000000	0.005675  
1556.000000	0.005862  
1555.000000	0.005986  
1554.000000	0.006088  
1553.000000	0.006067  
1552.000000	0.005928  
1551.000000	0.005688  
1550.000000	0.005470  
1549.000000	0.005370  
1548.000000	0.005388  
1547.000000	0.005458  
1546.000000	0.005562  
1545.000000	0.005663  
1544.000000	0.005699  
1543.000000	0.005686  
1542.000000	0.005733  
1541.000000	0.005773  
1540.000000	0.005613  
1539.000000	0.005411  
1538.000000	0.005360  
1537.000000	0.005402  
1536.000000	0.005464  
1535.000000	0.005506  
1534.000000	0.005453  
1533.000000	0.005324  
1532.000000	0.005215  
1531.000000	0.005174  
1530.000000	0.005155  
1529.000000	0.005146  
1528.000000	0.005189  
1527.000000	0.005348  
1526.000000	0.005626  
1525.000000	0.005903  
1524.000000	0.006051  
1523.000000	0.006077  
1522.000000	0.006063  
1521.000000	0.006072  
1520.000000	0.006093  
1519.000000	0.006082  
1518.000000	0.006063  
1517.000000	0.006089  
1516.000000	0.006189  
1515.000000	0.006384  
1514.000000	0.006665  
1513.000000	0.006962  
1512.000000	0.007136  
1511.000000	0.007158  
1510.000000	0.007176  
1509.000000	0.007391  
1508.000000	0.007758  
1507.000000	0.008018  
1506.000000	0.008292  
1505.000000	0.008634  
1504.000000	0.008773  
1503.000000	0.008721  
1502.000000	0.008672  
1501.000000	0.008673  
1500.000000	0.008688  
1499.000000	0.008735  
1498.000000	0.009035  
1497.000000	0.009621  
1496.000000	0.010119  
1495.000000	0.010312  
1494.000000	0.010421  
1493.000000	0.010631  
1492.000000	0.010844  
1491.000000	0.010899  
1490.000000	0.010897  
1489.000000	0.011050  
1488.000000	0.011353  
1487.000000	0.011720  
1486.000000	0.012163  
1485.000000	0.012724  
1484.000000	0.013374  
1483.000000	0.014111  
1482.000000	0.015028  
1481.000000	0.016122  
1480.000000	0.017244  
1479.000000	0.018373  
1478.000000	0.019752  
1477.000000	0.021566  
1476.000000	0.023709  
1475.000000	0.026215  
1474.000000	0.029782  
1473.000000	0.035170  
1472.000000	0.041850  
1471.000000	0.048566  
1470.000000	0.054870  
1469.000000	0.060771  
1468.000000	0.066050  
1467.000000	0.070500  
1466.000000	0.074209  
1465.000000	0.077224  
1464.000000	0.079342  
1463.000000	0.080627  
1462.000000	0.081491  
1461.000000	0.082225  
1460.000000	0.082912  
1459.000000	0.083652  
1458.000000	0.084455  
1457.000000	0.084560  
1456.000000	0.083246  
1455.000000	0.081055  
1454.000000	0.078654  
1453.000000	0.076057  
1452.000000	0.073231  
1451.000000	0.070415  
1450.000000	0.067845  
1449.000000	0.065322  
1448.000000	0.062553  
1447.000000	0.059647  
1446.000000	0.056837  
1445.000000	0.054018  
1444.000000	0.050992  
1443.000000	0.047801  
1442.000000	0.044678  
1441.000000	0.041833  
1440.000000	0.039326  
1439.000000	0.037053  
1438.000000	0.034757  
1437.000000	0.032277  
1436.000000	0.029919  
1435.000000	0.028058  
1434.000000	0.026528  
1433.000000	0.024961  
1432.000000	0.023245  
1431.000000	0.021519  
1430.000000	0.019975  
1429.000000	0.018711  
1428.000000	0.017755  
1427.000000	0.017060  
1426.000000	0.016499  
1425.000000	0.015969  
1424.000000	0.015482  
1423.000000	0.015110  
1422.000000	0.014846  
1421.000000	0.014609  
1420.000000	0.014330  
1419.000000	0.013994  
1418.000000	0.013637  
1417.000000	0.013286  
1416.000000	0.012961  
1415.000000	0.012692  
1414.000000	0.012472  
1413.000000	0.012257  
1412.000000	0.012018  
1411.000000	0.011755  
1410.000000	0.011504  
1409.000000	0.011331  
1408.000000	0.011308  
1407.000000	0.011448  
1406.000000	0.011676  
1405.000000	0.011893  
1404.000000	0.012081  
1403.000000	0.012277  
1402.000000	0.012490  
1401.000000	0.012703  
1400.000000	0.012940  
1399.000000	0.013202  
1398.000000	0.013448  
1397.000000	0.013666  
1396.000000	0.013904  
1395.000000	0.014214  
1394.000000	0.014606  
1393.000000	0.015063  
1392.000000	0.015572  
1391.000000	0.016156  
1390.000000	0.016898  
1389.000000	0.017968  
1388.000000	0.019588  
1387.000000	0.021766  
1386.000000	0.024206  
1385.000000	0.026677  
1384.000000	0.029263  
1383.000000	0.032185  
1382.000000	0.035565  
1381.000000	0.039316  
1380.000000	0.043075  
1379.000000	0.046151  
1378.000000	0.047820  
1377.000000	0.047769  
1376.000000	0.046116  
1375.000000	0.043175  
1374.000000	0.039527  
1373.000000	0.035983  
1372.000000	0.033095  
1371.000000	0.030953  
1370.000000	0.029480  
1369.000000	0.028621  
1368.000000	0.028224  
1367.000000	0.027952  
1366.000000	0.027447  
1365.000000	0.026500  
1364.000000	0.025114  
1363.000000	0.023499  
1362.000000	0.021986  
1361.000000	0.020823  
1360.000000	0.020043  
1359.000000	0.019531  
1358.000000	0.019162  
1357.000000	0.018868  
1356.000000	0.018649  
1355.000000	0.018531  
1354.000000	0.018506  
1353.000000	0.018516  
1352.000000	0.018507  
1351.000000	0.018460  
1350.000000	0.018362  
1349.000000	0.018204  
1348.000000	0.017991  
1347.000000	0.017726  
1346.000000	0.017426  
1345.000000	0.017152  
1344.000000	0.016972  
1343.000000	0.016891  
1342.000000	0.016828  
1341.000000	0.016699  
1340.000000	0.016471  
1339.000000	0.016158  
1338.000000	0.015790  
1337.000000	0.015397  
1336.000000	0.015016  
1335.000000	0.014679  
1334.000000	0.014383  
1333.000000	0.014115  
1332.000000	0.013898  
1331.000000	0.013761  
1330.000000	0.013682  
1329.000000	0.013606  
1328.000000	0.013526  
1327.000000	0.013474  
1326.000000	0.013467  
1325.000000	0.013492  
1324.000000	0.013540  
1323.000000	0.013614  
1322.000000	0.013705  
1321.000000	0.013792  
1320.000000	0.013864  
1319.000000	0.013934  
1318.000000	0.014012  
1317.000000	0.014093  
1316.000000	0.014170  
1315.000000	0.014255  
1314.000000	0.014370  
1313.000000	0.014522  
1312.000000	0.014697  
1311.000000	0.014878  
1310.000000	0.015053  
1309.000000	0.015215  
1308.000000	0.015368  
1307.000000	0.015508  
1306.000000	0.015623  
1305.000000	0.015696  
1304.000000	0.015708  
1303.000000	0.015651  
1302.000000	0.015546  
1301.000000	0.015434  
1300.000000	0.015353  
1299.000000	0.015299  
1298.000000	0.015231  
1297.000000	0.015109  
1296.000000	0.014924  
1295.000000	0.014693  
1294.000000	0.014435  
1293.000000	0.014169  
1292.000000	0.013932  
1291.000000	0.013775  
1290.000000	0.013729  
1289.000000	0.013775  
1288.000000	0.013859  
1287.000000	0.013940  
1286.000000	0.014015  
1285.000000	0.014111  
1284.000000	0.014248  
1283.000000	0.014416  
1282.000000	0.014588  
1281.000000	0.014739  
1280.000000	0.014864  
1279.000000	0.014969  
1278.000000	0.015066  
1277.000000	0.015169  
1276.000000	0.015296  
1275.000000	0.015454  
1274.000000	0.015635  
1273.000000	0.015820  
1272.000000	0.015988  
1271.000000	0.016113  
1270.000000	0.016189  
1269.000000	0.016234  
1268.000000	0.016275  
1267.000000	0.016309  
1266.000000	0.016308  
1265.000000	0.016253  
1264.000000	0.016172  
1263.000000	0.016134  
1262.000000	0.016190  
1261.000000	0.016322  
1260.000000	0.016455  
1259.000000	0.016519  
1258.000000	0.016513  
1257.000000	0.016494  
1256.000000	0.016503  
1255.000000	0.016547  
1254.000000	0.016632  
1253.000000	0.016790  
1252.000000	0.017040  
1251.000000	0.017330  
1250.000000	0.017573  
1249.000000	0.017743  
1248.000000	0.017901  
1247.000000	0.018118  
1246.000000	0.018391  
1245.000000	0.018655  
1244.000000	0.018840  
1243.000000	0.018918  
1242.000000	0.018898  
1241.000000	0.018808  
1240.000000	0.018669  
1239.000000	0.018484  
1238.000000	0.018245  
1237.000000	0.017957  
1236.000000	0.017650  
1235.000000	0.017353  
1234.000000	0.017077  
1233.000000	0.016806  
1232.000000	0.016533  
1231.000000	0.016256  
1230.000000	0.015981  
1229.000000	0.015720  
1228.000000	0.015505  
1227.000000	0.015368  
1226.000000	0.015296  
1225.000000	0.015224  
1224.000000	0.015105  
1223.000000	0.014971  
1222.000000	0.014889  
1221.000000	0.014864  
1220.000000	0.014835  
1219.000000	0.014765  
1218.000000	0.014704  
1217.000000	0.014738  
1216.000000	0.014883  
1215.000000	0.015069  
1214.000000	0.015206  
1213.000000	0.015265  
1212.000000	0.015280  
1211.000000	0.015321  
1210.000000	0.015437  
1209.000000	0.015612  
1208.000000	0.015769  
1207.000000	0.015853  
1206.000000	0.015902  
1205.000000	0.016006  
1204.000000	0.016205  
1203.000000	0.016449  
1202.000000	0.016678  
1201.000000	0.016890  
1200.000000	0.017129  
1199.000000	0.017424  
1198.000000	0.017790  
1197.000000	0.018227  
1196.000000	0.018713  
1195.000000	0.019205  
1194.000000	0.019688  
1193.000000	0.020196  
1192.000000	0.020753  
1191.000000	0.021312  
1190.000000	0.021809  
1189.000000	0.022252  
1188.000000	0.022716  
1187.000000	0.023255  
1186.000000	0.023855  
1185.000000	0.024473  
1184.000000	0.025088  
1183.000000	0.025690  
1182.000000	0.026273  
1181.000000	0.026828  
1180.000000	0.027337  
1179.000000	0.027770  
1178.000000	0.028106  
1177.000000	0.028358  
1176.000000	0.028559  
1175.000000	0.028717  
1174.000000	0.028811  
1173.000000	0.028831  
1172.000000	0.028798  
1171.000000	0.028727  
1170.000000	0.028597  
1169.000000	0.028367  
1168.000000	0.028014  
1167.000000	0.027558  
1166.000000	0.027050  
1165.000000	0.026516  
1164.000000	0.025931  
1163.000000	0.025264  
1162.000000	0.024555  
1161.000000	0.023906  
1160.000000	0.023378  
1159.000000	0.022919  
1158.000000	0.022443  
1157.000000	0.021930  
1156.000000	0.021422  
1155.000000	0.020926  
1154.000000	0.020394  
1153.000000	0.019809  
1152.000000	0.019230  
1151.000000	0.018749  
1150.000000	0.018403  
1149.000000	0.018172  
1148.000000	0.017996  
1147.000000	0.017800  
1146.000000	0.017521  
1145.000000	0.017148  
1144.000000	0.016721  
1143.000000	0.016283  
1142.000000	0.015850  
1141.000000	0.015433  
1140.000000	0.015048  
1139.000000	0.014702  
1138.000000	0.014402  
1137.000000	0.014172  
1136.000000	0.014028  
1135.000000	0.013908  
1134.000000	0.013709  
1133.000000	0.013411  
1132.000000	0.013126  
1131.000000	0.012975  
1130.000000	0.012969  
1129.000000	0.013047  
1128.000000	0.013178  
1127.000000	0.013358  
1126.000000	0.013557  
1125.000000	0.013734  
1124.000000	0.013904  
1123.000000	0.014108  
1122.000000	0.014343  
1121.000000	0.014557  
1120.000000	0.014712  
1119.000000	0.014794  
1118.000000	0.014788  
1117.000000	0.014688  
1116.000000	0.014544  
1115.000000	0.014419  
1114.000000	0.014305  
1113.000000	0.014139  
1112.000000	0.013906  
1111.000000	0.013664  
1110.000000	0.013449  
1109.000000	0.013236  
1108.000000	0.013025  
1107.000000	0.012896  
1106.000000	0.012932  
1105.000000	0.013101  
1104.000000	0.013273  
1103.000000	0.013350  
1102.000000	0.013351  
1101.000000	0.013368  
1100.000000	0.013457  
1099.000000	0.013594  
1098.000000	0.013694  
1097.000000	0.013722  
1096.000000	0.013726  
1095.000000	0.013768  
1094.000000	0.013830  
1093.000000	0.013842  
1092.000000	0.013786  
1091.000000	0.013705  
1090.000000	0.013617  
1089.000000	0.013465  
1088.000000	0.013219  
1087.000000	0.012951  
1086.000000	0.012785  
1085.000000	0.012773  
1084.000000	0.012861  
1083.000000	0.012943  
1082.000000	0.012938  
1081.000000	0.012853  
1080.000000	0.012788  
1079.000000	0.012868  
1078.000000	0.013123  
1077.000000	0.013459  
1076.000000	0.013778  
1075.000000	0.014078  
1074.000000	0.014409  
1073.000000	0.014754  
1072.000000	0.015017  
1071.000000	0.015147  
1070.000000	0.015208  
1069.000000	0.015301  
1068.000000	0.015452  
1067.000000	0.015590  
1066.000000	0.015646  
1065.000000	0.015627  
1064.000000	0.015596  
1063.000000	0.015571  
1062.000000	0.015482  
1061.000000	0.015244  
1060.000000	0.014866  
1059.000000	0.014461  
1058.000000	0.014152  
1057.000000	0.013990  
1056.000000	0.013959  
1055.000000	0.014012  
1054.000000	0.014052  
1053.000000	0.013931  
1052.000000	0.013558  
1051.000000	0.013051  
1050.000000	0.012685  
1049.000000	0.012647  
1048.000000	0.012863  
1047.000000	0.013109  
1046.000000	0.013232  
1045.000000	0.013238  
1044.000000	0.013227  
1043.000000	0.013294  
1042.000000	0.013476  
1041.000000	0.013726  
1040.000000	0.013934  
1039.000000	0.014002  
1038.000000	0.013916  
1037.000000	0.013757  
1036.000000	0.013629  
1035.000000	0.013594  
1034.000000	0.013652  
1033.000000	0.013760  
1032.000000	0.013861  
1031.000000	0.013905  
1030.000000	0.013885  
1029.000000	0.013836  
1028.000000	0.013795  
1027.000000	0.013767  
1026.000000	0.013730  
1025.000000	0.013661  
1024.000000	0.013551  
1023.000000	0.013408  
1022.000000	0.013253  
1021.000000	0.013105  
1020.000000	0.012955  
1019.000000	0.012767  
1018.000000	0.012536  
1017.000000	0.012328  
1016.000000	0.012225  
1015.000000	0.012233  
1014.000000	0.012267  
1013.000000	0.012238  
1012.000000	0.012133  
1011.000000	0.012005  
1010.000000	0.011905  
1009.000000	0.011849  
1008.000000	0.011820  
1007.000000	0.011783  
1006.000000	0.011714  
1005.000000	0.011628  
1004.000000	0.011571  
1003.000000	0.011564  
1002.000000	0.011578  
1001.000000	0.011550  
1000.000000	0.011420  
999.000000	 0.011164  
998.000000	 0.010830  
997.000000	 0.010540  
996.000000	 0.010433  
995.000000	 0.010542  
994.000000	 0.010756  
993.000000	 0.010915  
992.000000	 0.010934  
991.000000	 0.010842  
990.000000	 0.010734  
989.000000	 0.010708  
988.000000	 0.010804  
987.000000	 0.010958  
986.000000	 0.011054  
985.000000	 0.011042  
984.000000	 0.011001  
983.000000	 0.011035  
982.000000	 0.011147  
981.000000	 0.011260  
980.000000	 0.011338  
979.000000	 0.011429  
978.000000	 0.011583  
977.000000	 0.011792  
976.000000	 0.012007  
975.000000	 0.012190  
974.000000	 0.012324  
973.000000	 0.012417  
972.000000	 0.012511  
971.000000	 0.012661  
970.000000	 0.012871  
969.000000	 0.013087  
968.000000	 0.013243  
967.000000	 0.013315  
966.000000	 0.013300  
965.000000	 0.013198  
964.000000	 0.013015  
963.000000	 0.012791  
962.000000	 0.012583  
961.000000	 0.012441  
960.000000	 0.012375  
959.000000	 0.012358  
958.000000	 0.012338  
957.000000	 0.012287  
956.000000	 0.012229  
955.000000	 0.012208  
954.000000	 0.012232  
953.000000	 0.012273  
952.000000	 0.012324  
951.000000	 0.012393  
950.000000	 0.012454  
949.000000	 0.012433  
948.000000	 0.012297  
947.000000	 0.012126  
946.000000	 0.012048  
945.000000	 0.012103  
944.000000	 0.012203  
943.000000	 0.012227  
942.000000	 0.012131  
941.000000	 0.011952  
940.000000	 0.011736  
939.000000	 0.011499  
938.000000	 0.011246  
937.000000	 0.011001  
936.000000	 0.010789  
935.000000	 0.010611  
934.000000	 0.010460  
933.000000	 0.010371  
932.000000	 0.010397  
931.000000	 0.010517  
930.000000	 0.010614  
929.000000	 0.010577  
928.000000	 0.010430  
927.000000	 0.010316  
926.000000	 0.010349  
925.000000	 0.010517  
924.000000	 0.010719  
923.000000	 0.010872  
922.000000	 0.010950  
921.000000	 0.010962  
920.000000	 0.010916  
919.000000	 0.010822  
918.000000	 0.010724  
917.000000	 0.010692  
916.000000	 0.010765  
915.000000	 0.010883  
914.000000	 0.010918  
913.000000	 0.010792  
912.000000	 0.010561  
911.000000	 0.010357  
910.000000	 0.010269  
909.000000	 0.010304  
908.000000	 0.010421  
907.000000	 0.010543  
906.000000	 0.010575  
905.000000	 0.010469  
904.000000	 0.010300  
903.000000	 0.010211  
902.000000	 0.010257  
901.000000	 0.010358  
900.000000	 0.010419  
899.000000	 0.010438  
898.000000	 0.010474  
897.000000	 0.010546  
896.000000	 0.010616  
895.000000	 0.010642  
894.000000	 0.010619  
893.000000	 0.010565  
892.000000	 0.010519  
891.000000	 0.010527  
890.000000	 0.010610  
889.000000	 0.010737  
888.000000	 0.010847  
887.000000	 0.010896  
886.000000	 0.010872  
885.000000	 0.010786  
884.000000	 0.010666  
883.000000	 0.010561  
882.000000	 0.010511  
881.000000	 0.010524  
880.000000	 0.010586  
879.000000	 0.010681  
878.000000	 0.010785  
877.000000	 0.010857  
876.000000	 0.010855  
875.000000	 0.010772  
874.000000	 0.010639  
873.000000	 0.010481  
872.000000	 0.010302  
871.000000	 0.010123  
870.000000	 0.010022  
869.000000	 0.010095  
868.000000	 0.010343  
867.000000	 0.010619  
866.000000	 0.010725  
865.000000	 0.010582  
864.000000	 0.010292  
863.000000	 0.010028  
862.000000	 0.009897  
861.000000	 0.009911  
860.000000	 0.010044  
859.000000	 0.010239  
858.000000	 0.010406  
857.000000	 0.010469  
856.000000	 0.010470  
855.000000	 0.010546  
854.000000	 0.010796  
853.000000	 0.011188  
852.000000	 0.011611  
851.000000	 0.011971  
850.000000	 0.012212  
849.000000	 0.012301  
848.000000	 0.012241  
847.000000	 0.012108  
846.000000	 0.012002  
845.000000	 0.011972  
844.000000	 0.011983  
843.000000	 0.011973  
842.000000	 0.011920  
841.000000	 0.011850  
840.000000	 0.011796  
839.000000	 0.011762  
838.000000	 0.011725  
837.000000	 0.011639  
836.000000	 0.011447  
835.000000	 0.011103  
834.000000	 0.010633  
833.000000	 0.010186  
832.000000	 0.009954  
831.000000	 0.009997  
830.000000	 0.010173  
829.000000	 0.010291  
828.000000	 0.010327  
827.000000	 0.010410  
826.000000	 0.010597  
825.000000	 0.010774  
824.000000	 0.010813  
823.000000	 0.010742  
822.000000	 0.010684  
821.000000	 0.010721  
820.000000	 0.010885  
819.000000	 0.011187  
818.000000	 0.011587  
817.000000	 0.011982  
816.000000	 0.012265  
815.000000	 0.012393  
814.000000	 0.012373  
813.000000	 0.012232  
812.000000	 0.012032  
811.000000	 0.011902  
810.000000	 0.011971  
809.000000	 0.012261  
808.000000	 0.012656  
807.000000	 0.012994  
806.000000	 0.013145  
805.000000	 0.013050  
804.000000	 0.012718  
803.000000	 0.012243  
802.000000	 0.011779  
801.000000	 0.011452  
800.000000	 0.011274  
799.000000	 0.011147  
798.000000	 0.010970  
797.000000	 0.010744  
796.000000	 0.010539  
795.000000	 0.010390  
794.000000	 0.010253  
793.000000	 0.010110  
792.000000	 0.010043  
791.000000	 0.010166  
790.000000	 0.010452  
789.000000	 0.010714  
788.000000	 0.010793  
787.000000	 0.010737  
786.000000	 0.010749  
785.000000	 0.010969  
784.000000	 0.011343  
783.000000	 0.011714  
782.000000	 0.012002  
781.000000	 0.012260  
780.000000	 0.012564  
779.000000	 0.012903  
778.000000	 0.013212  
777.000000	 0.013494  
776.000000	 0.013826  
775.000000	 0.014254  
774.000000	 0.014722  
773.000000	 0.015148  
772.000000	 0.015521  
771.000000	 0.015871  
770.000000	 0.016183  
769.000000	 0.016391  
768.000000	 0.016465  
767.000000	 0.016431  
766.000000	 0.016298  
765.000000	 0.016037  
764.000000	 0.015667  
763.000000	 0.015337  
762.000000	 0.015226  
761.000000	 0.015372  
760.000000	 0.015616  
759.000000	 0.015766  
758.000000	 0.015793  
757.000000	 0.015850  
756.000000	 0.016084  
755.000000	 0.016463  
754.000000	 0.016826  
753.000000	 0.017058  
752.000000	 0.017186  
751.000000	 0.017296  
750.000000	 0.017448  
749.000000	 0.017687  
748.000000	 0.018081  
747.000000	 0.018702  
746.000000	 0.019584  
745.000000	 0.020734  
744.000000	 0.022116  
743.000000	 0.023580  
742.000000	 0.024854  
741.000000	 0.025711  
740.000000	 0.026142  
739.000000	 0.026309  
738.000000	 0.026341  
737.000000	 0.026263  
736.000000	 0.026110  
735.000000	 0.025981  
734.000000	 0.025957  
733.000000	 0.026038  
732.000000	 0.026202  
731.000000	 0.026458  
730.000000	 0.026845  
729.000000	 0.027443  
728.000000	 0.028343  
727.000000	 0.029543  
726.000000	 0.030885  
725.000000	 0.032127  
724.000000	 0.033122  
723.000000	 0.033846  
722.000000	 0.034232  
721.000000	 0.033994  
720.000000	 0.032804  
719.000000	 0.030751  
718.000000	 0.028415  
717.000000	 0.026407  
716.000000	 0.025016  
715.000000	 0.024145  
714.000000	 0.023481  
713.000000	 0.022760  
712.000000	 0.021940  
711.000000	 0.021145  
710.000000	 0.020514  
709.000000	 0.020113  
708.000000	 0.019932  
707.000000	 0.019890  
706.000000	 0.019942  
705.000000	 0.020121  
704.000000	 0.020443  
703.000000	 0.020807  
702.000000	 0.021043  
701.000000	 0.021066  
700.000000	 0.020964  
699.000000	 0.020818  
698.000000	 0.020532  
697.000000	 0.019930  
696.000000	 0.019013  
695.000000	 0.018106  
694.000000	 0.017557  
693.000000	 0.017329  
692.000000	 0.017026  
691.000000	 0.016284  
690.000000	 0.015167  
689.000000	 0.014077  
688.000000	 0.013265  
687.000000	 0.012616  
686.000000	 0.011907  
685.000000	 0.011166  
684.000000	 0.010648  
683.000000	 0.010486  
682.000000	 0.010569  
681.000000	 0.010702  
680.000000	 0.010767  
679.000000	 0.010704  
678.000000	 0.010578  
677.000000	 0.010644  
676.000000	 0.010861  
675.000000	 0.010963  
674.000000	 0.010800  
673.000000	 0.010293  
672.000000	 0.009005  
671.000000	 0.005879  
670.000000	 0.000031  
669.000000	 -0.008381 
668.000000	 -0.014248 
667.000000	 -0.010147 
666.000000	 -0.001455 
665.000000	 0.004636  
664.000000	 0.007801  
663.000000	 0.009353  
662.000000	 0.010065  
661.000000	 0.010135  
660.000000	 0.009840  
659.000000	 0.009612  
658.000000	 0.009521  
657.000000	 0.009214  
656.000000	 0.008275  
655.000000	 0.006997  
654.000000	 0.006228  
653.000000	 0.006425  
652.000000	 0.007196  
651.000000	 0.007838  
650.000000	 0.008032  

