PE IR                   SPECTRUM    ASCII       PEDS        1.60        
  -1
NB4-05~3.ASC
17/04/10
13:19:11.00
17/04/10
13:19:11.00
Admin

650.000000
6









SPECTRUM ONE,CPU32 MAIN 00.02.5000 17-APRIL-2002 13:00:00
MIR TGS
MIR
OPTKBR
68128
0.200000

4.000000
STRONG
RATIO
SPECTRUM
MAGNITUDE

DOUBLE

COMBINED


0


#HDR
-1
-1
#GR
CM-1
A
0.00000011920928955078
0.0
4000.000000
-1.000000
3351
8
0.217794
-0.007017
#DATA
4000.000000	0.000951  
3999.000000	0.001048  
3998.000000	0.001229  
3997.000000	0.001453  
3996.000000	0.001648  
3995.000000	0.001623  
3994.000000	0.001600  
3993.000000	0.001486  
3992.000000	0.001343  
3991.000000	0.001237  
3990.000000	0.001202  
3989.000000	0.001211  
3988.000000	0.001204  
3987.000000	0.001147  
3986.000000	0.001076  
3985.000000	0.001066  
3984.000000	0.001133  
3983.000000	0.001203  
3982.000000	0.001173  
3981.000000	0.001025  
3980.000000	0.000851  
3979.000000	0.000767  
3978.000000	0.000812  
3977.000000	0.000945  
3976.000000	0.001108  
3975.000000	0.001272  
3974.000000	0.001410  
3973.000000	0.001472  
3972.000000	0.001407  
3971.000000	0.001238  
3970.000000	0.001065  
3969.000000	0.000982  
3968.000000	0.000998  
3967.000000	0.001035  
3966.000000	0.001032  
3965.000000	0.001006  
3964.000000	0.001026  
3963.000000	0.001121  
3962.000000	0.001241  
3961.000000	0.001312  
3960.000000	0.001305  
3959.000000	0.001251  
3958.000000	0.001192  
3957.000000	0.001136  
3956.000000	0.001061  
3955.000000	0.000961  
3954.000000	0.000863  
3953.000000	0.000815  
3952.000000	0.000843  
3951.000000	0.000936  
3950.000000	0.001060  
3949.000000	0.001195  
3948.000000	0.001335  
3947.000000	0.001454  
3946.000000	0.001508  
3945.000000	0.001463  
3944.000000	0.001344  
3943.000000	0.001214  
3942.000000	0.001116  
3941.000000	0.001054  
3940.000000	0.001029  
3939.000000	0.001065  
3938.000000	0.001174  
3937.000000	0.001310  
3936.000000	0.001392  
3935.000000	0.001377  
3934.000000	0.001306  
3933.000000	0.001262  
3932.000000	0.001287  
3931.000000	0.001352  
3930.000000	0.001413  
3929.000000	0.001458  
3928.000000	0.001508  
3927.000000	0.001575  
3926.000000	0.001652  
3925.000000	0.001715  
3924.000000	0.001743  
3923.000000	0.001727  
3922.000000	0.001684  
3921.000000	0.001633  
3920.000000	0.001575  
3919.000000	0.001498  
3918.000000	0.001407  
3917.000000	0.001335  
3916.000000	0.001319  
3915.000000	0.001360  
3914.000000	0.001418  
3913.000000	0.001442  
3912.000000	0.001395  
3911.000000	0.001292  
3910.000000	0.001193  
3909.000000	0.001163  
3908.000000	0.001216  
3907.000000	0.001305  
3906.000000	0.001380  
3905.000000	0.001440  
3904.000000	0.001516  
3903.000000	0.001586  
3902.000000	0.001587  
3901.000000	0.001515  
3900.000000	0.001460  
3899.000000	0.001503  
3898.000000	0.001609  
3897.000000	0.001669  
3896.000000	0.001614  
3895.000000	0.001452  
3894.000000	0.001254  
3893.000000	0.001117  
3892.000000	0.001107  
3891.000000	0.001201  
3890.000000	0.001300  
3889.000000	0.001326  
3888.000000	0.001273  
3887.000000	0.001194  
3886.000000	0.001148  
3885.000000	0.001137  
3884.000000	0.001101  
3883.000000	0.001006  
3882.000000	0.000894  
3881.000000	0.000856  
3880.000000	0.000935  
3879.000000	0.001074  
3878.000000	0.001202  
3877.000000	0.001304  
3876.000000	0.001414  
3875.000000	0.001571  
3874.000000	0.001765  
3873.000000	0.001912  
3872.000000	0.001941  
3871.000000	0.001881  
3870.000000	0.001830  
3869.000000	0.001818  
3868.000000	0.001790  
3867.000000	0.001718  
3866.000000	0.001639  
3865.000000	0.001583  
3864.000000	0.001549  
3863.000000	0.001519  
3862.000000	0.001486  
3861.000000	0.001435  
3860.000000	0.001353  
3859.000000	0.001257  
3858.000000	0.001195  
3857.000000	0.001197  
3856.000000	0.001226  
3855.000000	0.001175  
3854.000000	0.001065  
3853.000000	0.001049  
3852.000000	0.001134  
3851.000000	0.001233  
3850.000000	0.001334  
3849.000000	0.001462  
3848.000000	0.001636  
3847.000000	0.001844  
3846.000000	0.002064  
3845.000000	0.002285  
3844.000000	0.002504  
3843.000000	0.002704  
3842.000000	0.002837  
3841.000000	0.002868  
3840.000000	0.002791  
3839.000000	0.002632  
3838.000000	0.002427  
3837.000000	0.002229  
3836.000000	0.002101  
3835.000000	0.002076  
3834.000000	0.002127  
3833.000000	0.002184  
3832.000000	0.002181  
3831.000000	0.002098  
3830.000000	0.001964  
3829.000000	0.001816  
3828.000000	0.001676  
3827.000000	0.001560  
3826.000000	0.001498  
3825.000000	0.001531  
3824.000000	0.001703  
3823.000000	0.002018  
3822.000000	0.002384  
3821.000000	0.002615  
3820.000000	0.002532  
3819.000000	0.002114  
3818.000000	0.001554  
3817.000000	0.001142  
3816.000000	0.001062  
3815.000000	0.001228  
3814.000000	0.001425  
3813.000000	0.001539  
3812.000000	0.001575  
3811.000000	0.001549  
3810.000000	0.001439  
3809.000000	0.001248  
3808.000000	0.001086  
3807.000000	0.001115  
3806.000000	0.001364  
3805.000000	0.001693  
3804.000000	0.001934  
3803.000000	0.001973  
3802.000000	0.001822  
3801.000000	0.001604  
3800.000000	0.001416  
3799.000000	0.001307  
3798.000000	0.001308  
3797.000000	0.001424  
3796.000000	0.001598  
3795.000000	0.001739  
3794.000000	0.001793  
3793.000000	0.001768  
3792.000000	0.001693  
3791.000000	0.001595  
3790.000000	0.001501  
3789.000000	0.001436  
3788.000000	0.001407  
3787.000000	0.001390  
3786.000000	0.001357  
3785.000000	0.001306  
3784.000000	0.001254  
3783.000000	0.001210  
3782.000000	0.001174  
3781.000000	0.001157  
3780.000000	0.001183  
3779.000000	0.001266  
3778.000000	0.001379  
3777.000000	0.001479  
3776.000000	0.001542  
3775.000000	0.001561  
3774.000000	0.001522  
3773.000000	0.001427  
3772.000000	0.001337  
3771.000000	0.001371  
3770.000000	0.001593  
3769.000000	0.001894  
3768.000000	0.002075  
3767.000000	0.002021  
3766.000000	0.001789  
3765.000000	0.001540  
3764.000000	0.001396  
3763.000000	0.001377  
3762.000000	0.001445  
3761.000000	0.001548  
3760.000000	0.001647  
3759.000000	0.001728  
3758.000000	0.001786  
3757.000000	0.001780  
3756.000000	0.001668  
3755.000000	0.001494  
3754.000000	0.001450  
3753.000000	0.001754  
3752.000000	0.002362  
3751.000000	0.002857  
3750.000000	0.002865  
3749.000000	0.002478  
3748.000000	0.002037  
3747.000000	0.001808  
3746.000000	0.001892  
3745.000000	0.002190  
3744.000000	0.002444  
3743.000000	0.002469  
3742.000000	0.002331  
3741.000000	0.002222  
3740.000000	0.002284  
3739.000000	0.002528  
3738.000000	0.002833  
3737.000000	0.003051  
3736.000000	0.003115  
3735.000000	0.003079  
3734.000000	0.003027  
3733.000000	0.002974  
3732.000000	0.002877  
3731.000000	0.002706  
3730.000000	0.002485  
3729.000000	0.002268  
3728.000000	0.002098  
3727.000000	0.001982  
3726.000000	0.001898  
3725.000000	0.001833  
3724.000000	0.001801  
3723.000000	0.001799  
3722.000000	0.001773  
3721.000000	0.001666  
3720.000000	0.001483  
3719.000000	0.001300  
3718.000000	0.001198  
3717.000000	0.001185  
3716.000000	0.001186  
3715.000000	0.001119  
3714.000000	0.000973  
3713.000000	0.000843  
3712.000000	0.000871  
3711.000000	0.001082  
3710.000000	0.001327  
3709.000000	0.001474  
3708.000000	0.001544  
3707.000000	0.001643  
3706.000000	0.001804  
3705.000000	0.001936  
3704.000000	0.001895  
3703.000000	0.001645  
3702.000000	0.001331  
3701.000000	0.001145  
3700.000000	0.001143  
3699.000000	0.001237  
3698.000000	0.001323  
3697.000000	0.001362  
3696.000000	0.001373  
3695.000000	0.001393  
3694.000000	0.001443  
3693.000000	0.001490  
3692.000000	0.001468  
3691.000000	0.001353  
3690.000000	0.001243  
3689.000000	0.001263  
3688.000000	0.001395  
3687.000000	0.001514  
3686.000000	0.001554  
3685.000000	0.001563  
3684.000000	0.001627  
3683.000000	0.001758  
3682.000000	0.001859  
3681.000000	0.001826  
3680.000000	0.001660  
3679.000000	0.001461  
3678.000000	0.001360  
3677.000000	0.001449  
3676.000000	0.001732  
3675.000000	0.002048  
3674.000000	0.002198  
3673.000000	0.002162  
3672.000000	0.002071  
3671.000000	0.002040  
3670.000000	0.002091  
3669.000000	0.002150  
3668.000000	0.002143  
3667.000000	0.002070  
3666.000000	0.001949  
3665.000000	0.001754  
3664.000000	0.001446  
3663.000000	0.001044  
3662.000000	0.000650  
3661.000000	0.000384  
3660.000000	0.000297  
3659.000000	0.000368  
3658.000000	0.000558  
3657.000000	0.000847  
3656.000000	0.001198  
3655.000000	0.001512  
3654.000000	0.001690  
3653.000000	0.001687  
3652.000000	0.001530  
3651.000000	0.001323  
3650.000000	0.001217  
3649.000000	0.001283  
3648.000000	0.001447  
3647.000000	0.001603  
3646.000000	0.001696  
3645.000000	0.001713  
3644.000000	0.001692  
3643.000000	0.001698  
3642.000000	0.001783  
3641.000000	0.001919  
3640.000000	0.002008  
3639.000000	0.001962  
3638.000000	0.001776  
3637.000000	0.001538  
3636.000000	0.001375  
3635.000000	0.001378  
3634.000000	0.001533  
3633.000000	0.001717  
3632.000000	0.001808  
3631.000000	0.001793  
3630.000000	0.001792  
3629.000000	0.001916  
3628.000000	0.002046  
3627.000000	0.002007  
3626.000000	0.001847  
3625.000000	0.001734  
3624.000000	0.001752  
3623.000000	0.001816  
3622.000000	0.001757  
3621.000000	0.001501  
3620.000000	0.001181  
3619.000000	0.001017  
3618.000000	0.001074  
3617.000000	0.001242  
3616.000000	0.001405  
3615.000000	0.001531  
3614.000000	0.001652  
3613.000000	0.001788  
3612.000000	0.001913  
3611.000000	0.001995  
3610.000000	0.002024  
3609.000000	0.001996  
3608.000000	0.001896  
3607.000000	0.001709  
3606.000000	0.001453  
3605.000000	0.001186  
3604.000000	0.000990  
3603.000000	0.000945  
3602.000000	0.001103  
3601.000000	0.001452  
3600.000000	0.001886  
3599.000000	0.002240  
3598.000000	0.002375  
3597.000000	0.002247  
3596.000000	0.001938  
3595.000000	0.001617  
3594.000000	0.001423  
3593.000000	0.001360  
3592.000000	0.001326  
3591.000000	0.001245  
3590.000000	0.001137  
3589.000000	0.001112  
3588.000000	0.001250  
3587.000000	0.001493  
3586.000000	0.001692  
3585.000000	0.001766  
3584.000000	0.001726  
3583.000000	0.001607  
3582.000000	0.001453  
3581.000000	0.001337  
3580.000000	0.001329  
3579.000000	0.001418  
3578.000000	0.001489  
3577.000000	0.001439  
3576.000000	0.001286  
3575.000000	0.001137  
3574.000000	0.001053  
3573.000000	0.000983  
3572.000000	0.000851  
3571.000000	0.000685  
3570.000000	0.000626  
3569.000000	0.000799  
3568.000000	0.001148  
3567.000000	0.001436  
3566.000000	0.001495  
3565.000000	0.001388  
3564.000000	0.001279  
3563.000000	0.001259  
3562.000000	0.001313  
3561.000000	0.001396  
3560.000000	0.001496  
3559.000000	0.001623  
3558.000000	0.001752  
3557.000000	0.001816  
3556.000000	0.001757  
3555.000000	0.001579  
3554.000000	0.001348  
3553.000000	0.001151  
3552.000000	0.001036  
3551.000000	0.000987  
3550.000000	0.000950  
3549.000000	0.000871  
3548.000000	0.000739  
3547.000000	0.000608  
3546.000000	0.000580  
3545.000000	0.000722  
3544.000000	0.000992  
3543.000000	0.001272  
3542.000000	0.001464  
3541.000000	0.001541  
3540.000000	0.001529  
3539.000000	0.001451  
3538.000000	0.001320  
3537.000000	0.001153  
3536.000000	0.000995  
3535.000000	0.000889  
3534.000000	0.000855  
3533.000000	0.000886  
3532.000000	0.000977  
3531.000000	0.001125  
3530.000000	0.001298  
3529.000000	0.001426  
3528.000000	0.001438  
3527.000000	0.001328  
3526.000000	0.001167  
3525.000000	0.001035  
3524.000000	0.000966  
3523.000000	0.000948  
3522.000000	0.000958  
3521.000000	0.000984  
3520.000000	0.001016  
3519.000000	0.001054  
3518.000000	0.001114  
3517.000000	0.001223  
3516.000000	0.001379  
3515.000000	0.001541  
3514.000000	0.001657  
3513.000000	0.001695  
3512.000000	0.001668  
3511.000000	0.001615  
3510.000000	0.001571  
3509.000000	0.001539  
3508.000000	0.001496  
3507.000000	0.001434  
3506.000000	0.001378  
3505.000000	0.001374  
3504.000000	0.001444  
3503.000000	0.001567  
3502.000000	0.001691  
3501.000000	0.001764  
3500.000000	0.001763  
3499.000000	0.001717  
3498.000000	0.001689  
3497.000000	0.001717  
3496.000000	0.001770  
3495.000000	0.001790  
3494.000000	0.001751  
3493.000000	0.001652  
3492.000000	0.001485  
3491.000000	0.001254  
3490.000000	0.001025  
3489.000000	0.000911  
3488.000000	0.000970  
3487.000000	0.001166  
3486.000000	0.001417  
3485.000000	0.001655  
3484.000000	0.001809  
3483.000000	0.001807  
3482.000000	0.001635  
3481.000000	0.001397  
3480.000000	0.001240  
3479.000000	0.001231  
3478.000000	0.001324  
3477.000000	0.001426  
3476.000000	0.001476  
3475.000000	0.001463  
3474.000000	0.001417  
3473.000000	0.001369  
3472.000000	0.001319  
3471.000000	0.001246  
3470.000000	0.001152  
3469.000000	0.001094  
3468.000000	0.001129  
3467.000000	0.001251  
3466.000000	0.001383  
3465.000000	0.001441  
3464.000000	0.001383  
3463.000000	0.001227  
3462.000000	0.001046  
3461.000000	0.000933  
3460.000000	0.000938  
3459.000000	0.001028  
3458.000000	0.001133  
3457.000000	0.001214  
3456.000000	0.001273  
3455.000000	0.001321  
3454.000000	0.001365  
3453.000000	0.001426  
3452.000000	0.001512  
3451.000000	0.001579  
3450.000000	0.001555  
3449.000000	0.001431  
3448.000000	0.001304  
3447.000000	0.001290  
3446.000000	0.001418  
3445.000000	0.001621  
3444.000000	0.001803  
3443.000000	0.001897  
3442.000000	0.001893  
3441.000000	0.001850  
3440.000000	0.001868  
3439.000000	0.001991  
3438.000000	0.002142  
3437.000000	0.002169  
3436.000000	0.001987  
3435.000000	0.001667  
3434.000000	0.001391  
3433.000000	0.001313  
3432.000000	0.001444  
3431.000000	0.001648  
3430.000000	0.001763  
3429.000000	0.001714  
3428.000000	0.001531  
3427.000000	0.001286  
3426.000000	0.001040  
3425.000000	0.000859  
3424.000000	0.000806  
3423.000000	0.000907  
3422.000000	0.001112  
3421.000000	0.001336  
3420.000000	0.001517  
3419.000000	0.001635  
3418.000000	0.001695  
3417.000000	0.001705  
3416.000000	0.001669  
3415.000000	0.001595  
3414.000000	0.001512  
3413.000000	0.001475  
3412.000000	0.001532  
3411.000000	0.001667  
3410.000000	0.001782  
3409.000000	0.001768  
3408.000000	0.001596  
3407.000000	0.001335  
3406.000000	0.001096  
3405.000000	0.000964  
3404.000000	0.000955  
3403.000000	0.001040  
3402.000000	0.001180  
3401.000000	0.001343  
3400.000000	0.001497  
3399.000000	0.001592  
3398.000000	0.001591  
3397.000000	0.001529  
3396.000000	0.001507  
3395.000000	0.001617  
3394.000000	0.001850  
3393.000000	0.002103  
3392.000000	0.002257  
3391.000000	0.002257  
3390.000000	0.002135  
3389.000000	0.001963  
3388.000000	0.001796  
3387.000000	0.001648  
3386.000000	0.001519  
3385.000000	0.001441  
3384.000000	0.001475  
3383.000000	0.001639  
3382.000000	0.001872  
3381.000000	0.002072  
3380.000000	0.002174  
3379.000000	0.002157  
3378.000000	0.002005  
3377.000000	0.001706  
3376.000000	0.001319  
3375.000000	0.000995  
3374.000000	0.000887  
3373.000000	0.001017  
3372.000000	0.001248  
3371.000000	0.001425  
3370.000000	0.001510  
3369.000000	0.001584  
3368.000000	0.001723  
3367.000000	0.001912  
3366.000000	0.002072  
3365.000000	0.002149  
3364.000000	0.002139  
3363.000000	0.002055  
3362.000000	0.001931  
3361.000000	0.001826  
3360.000000	0.001794  
3359.000000	0.001814  
3358.000000	0.001809  
3357.000000	0.001741  
3356.000000	0.001662  
3355.000000	0.001634  
3354.000000	0.001642  
3353.000000	0.001626  
3352.000000	0.001568  
3351.000000	0.001512  
3350.000000	0.001487  
3349.000000	0.001480  
3348.000000	0.001483  
3347.000000	0.001519  
3346.000000	0.001599  
3345.000000	0.001670  
3344.000000	0.001663  
3343.000000	0.001575  
3342.000000	0.001488  
3341.000000	0.001474  
3340.000000	0.001515  
3339.000000	0.001529  
3338.000000	0.001478  
3337.000000	0.001424  
3336.000000	0.001448  
3335.000000	0.001543  
3334.000000	0.001615  
3333.000000	0.001598  
3332.000000	0.001530  
3331.000000	0.001491  
3330.000000	0.001514  
3329.000000	0.001575  
3328.000000	0.001649  
3327.000000	0.001729  
3326.000000	0.001794  
3325.000000	0.001808  
3324.000000	0.001766  
3323.000000	0.001716  
3322.000000	0.001709  
3321.000000	0.001746  
3320.000000	0.001801  
3319.000000	0.001865  
3318.000000	0.001944  
3317.000000	0.002012  
3316.000000	0.002006  
3315.000000	0.001892  
3314.000000	0.001716  
3313.000000	0.001578  
3312.000000	0.001554  
3311.000000	0.001647  
3310.000000	0.001806  
3309.000000	0.001944  
3308.000000	0.001962  
3307.000000	0.001807  
3306.000000	0.001546  
3305.000000	0.001349  
3304.000000	0.001352  
3303.000000	0.001526  
3302.000000	0.001715  
3301.000000	0.001802  
3300.000000	0.001787  
3299.000000	0.001724  
3298.000000	0.001640  
3297.000000	0.001556  
3296.000000	0.001515  
3295.000000	0.001547  
3294.000000	0.001611  
3293.000000	0.001654  
3292.000000	0.001693  
3291.000000	0.001786  
3290.000000	0.001921  
3289.000000	0.001994  
3288.000000	0.001935  
3287.000000	0.001781  
3286.000000	0.001618  
3285.000000	0.001480  
3284.000000	0.001355  
3283.000000	0.001259  
3282.000000	0.001247  
3281.000000	0.001336  
3280.000000	0.001461  
3279.000000	0.001530  
3278.000000	0.001515  
3277.000000	0.001486  
3276.000000	0.001552  
3275.000000	0.001767  
3274.000000	0.002089  
3273.000000	0.002403  
3272.000000	0.002582  
3271.000000	0.002549  
3270.000000	0.002317  
3269.000000	0.001976  
3268.000000	0.001636  
3267.000000	0.001372  
3266.000000	0.001231  
3265.000000	0.001257  
3264.000000	0.001468  
3263.000000	0.001780  
3262.000000	0.002022  
3261.000000	0.002084  
3260.000000	0.002024  
3259.000000	0.001999  
3258.000000	0.002081  
3257.000000	0.002199  
3256.000000	0.002239  
3255.000000	0.002176  
3254.000000	0.002083  
3253.000000	0.002053  
3252.000000	0.002118  
3251.000000	0.002216  
3250.000000	0.002253  
3249.000000	0.002207  
3248.000000	0.002152  
3247.000000	0.002161  
3246.000000	0.002195  
3245.000000	0.002165  
3244.000000	0.002073  
3243.000000	0.002028  
3242.000000	0.002099  
3241.000000	0.002216  
3240.000000	0.002259  
3239.000000	0.002182  
3238.000000	0.002018  
3237.000000	0.001809  
3236.000000	0.001587  
3235.000000	0.001391  
3234.000000	0.001258  
3233.000000	0.001204  
3232.000000	0.001235  
3231.000000	0.001354  
3230.000000	0.001523  
3229.000000	0.001658  
3228.000000	0.001707  
3227.000000	0.001707  
3226.000000	0.001735  
3225.000000	0.001820  
3224.000000	0.001928  
3223.000000	0.002020  
3222.000000	0.002072  
3221.000000	0.002054  
3220.000000	0.001950  
3219.000000	0.001803  
3218.000000	0.001692  
3217.000000	0.001657  
3216.000000	0.001691  
3215.000000	0.001773  
3214.000000	0.001884  
3213.000000	0.001991  
3212.000000	0.002054  
3211.000000	0.002072  
3210.000000	0.002083  
3209.000000	0.002111  
3208.000000	0.002138  
3207.000000	0.002149  
3206.000000	0.002167  
3205.000000	0.002237  
3204.000000	0.002384  
3203.000000	0.002591  
3202.000000	0.002785  
3201.000000	0.002858  
3200.000000	0.002741  
3199.000000	0.002468  
3198.000000	0.002147  
3197.000000	0.001858  
3196.000000	0.001606  
3195.000000	0.001388  
3194.000000	0.001249  
3193.000000	0.001240  
3192.000000	0.001352  
3191.000000	0.001537  
3190.000000	0.001774  
3189.000000	0.002063  
3188.000000	0.002352  
3187.000000	0.002545  
3186.000000	0.002589  
3185.000000	0.002540  
3184.000000	0.002484  
3183.000000	0.002442  
3182.000000	0.002369  
3181.000000	0.002247  
3180.000000	0.002115  
3179.000000	0.002016  
3178.000000	0.001953  
3177.000000	0.001921  
3176.000000	0.001953  
3175.000000	0.002086  
3174.000000	0.002289  
3173.000000	0.002464  
3172.000000	0.002529  
3171.000000	0.002481  
3170.000000	0.002378  
3169.000000	0.002282  
3168.000000	0.002225  
3167.000000	0.002208  
3166.000000	0.002213  
3165.000000	0.002223  
3164.000000	0.002242  
3163.000000	0.002274  
3162.000000	0.002298  
3161.000000	0.002279  
3160.000000	0.002223  
3159.000000	0.002189  
3158.000000	0.002232  
3157.000000	0.002344  
3156.000000	0.002462  
3155.000000	0.002537  
3154.000000	0.002579  
3153.000000	0.002631  
3152.000000	0.002698  
3151.000000	0.002715  
3150.000000	0.002595  
3149.000000	0.002338  
3148.000000	0.002063  
3147.000000	0.001897  
3146.000000	0.001862  
3145.000000	0.001882  
3144.000000	0.001909  
3143.000000	0.001961  
3142.000000	0.002044  
3141.000000	0.002100  
3140.000000	0.002086  
3139.000000	0.002058  
3138.000000	0.002114  
3137.000000	0.002260  
3136.000000	0.002385  
3135.000000	0.002376  
3134.000000	0.002221  
3133.000000	0.002039  
3132.000000	0.001989  
3131.000000	0.002155  
3130.000000	0.002458  
3129.000000	0.002709  
3128.000000	0.002761  
3127.000000	0.002623  
3126.000000	0.002413  
3125.000000	0.002240  
3124.000000	0.002160  
3123.000000	0.002192  
3122.000000	0.002318  
3121.000000	0.002460  
3120.000000	0.002511  
3119.000000	0.002424  
3118.000000	0.002240  
3117.000000	0.002049  
3116.000000	0.001933  
3115.000000	0.001947  
3114.000000	0.002082  
3113.000000	0.002266  
3112.000000	0.002412  
3111.000000	0.002489  
3110.000000	0.002517  
3109.000000	0.002503  
3108.000000	0.002433  
3107.000000	0.002316  
3106.000000	0.002200  
3105.000000	0.002146  
3104.000000	0.002188  
3103.000000	0.002335  
3102.000000	0.002545  
3101.000000	0.002710  
3100.000000	0.002719  
3099.000000	0.002561  
3098.000000	0.002342  
3097.000000	0.002191  
3096.000000	0.002166  
3095.000000	0.002242  
3094.000000	0.002362  
3093.000000	0.002461  
3092.000000	0.002501  
3091.000000	0.002491  
3090.000000	0.002473  
3089.000000	0.002470  
3088.000000	0.002473  
3087.000000	0.002486  
3086.000000	0.002541  
3085.000000	0.002632  
3084.000000	0.002688  
3083.000000	0.002650  
3082.000000	0.002569  
3081.000000	0.002570  
3080.000000	0.002725  
3079.000000	0.002979  
3078.000000	0.003211  
3077.000000	0.003330  
3076.000000	0.003322  
3075.000000	0.003232  
3074.000000	0.003129  
3073.000000	0.003065  
3072.000000	0.003070  
3071.000000	0.003147  
3070.000000	0.003279  
3069.000000	0.003416  
3068.000000	0.003491  
3067.000000	0.003476  
3066.000000	0.003414  
3065.000000	0.003400  
3064.000000	0.003508  
3063.000000	0.003724  
3062.000000	0.003947  
3061.000000	0.004057  
3060.000000	0.004008  
3059.000000	0.003869  
3058.000000	0.003744  
3057.000000	0.003675  
3056.000000	0.003625  
3055.000000	0.003564  
3054.000000	0.003520  
3053.000000	0.003522  
3052.000000	0.003544  
3051.000000	0.003544  
3050.000000	0.003529  
3049.000000	0.003554  
3048.000000	0.003650  
3047.000000	0.003788  
3046.000000	0.003908  
3045.000000	0.003973  
3044.000000	0.003974  
3043.000000	0.003925  
3042.000000	0.003858  
3041.000000	0.003820  
3040.000000	0.003856  
3039.000000	0.003982  
3038.000000	0.004159  
3037.000000	0.004308  
3036.000000	0.004360  
3035.000000	0.004322  
3034.000000	0.004266  
3033.000000	0.004267  
3032.000000	0.004354  
3031.000000	0.004531  
3030.000000	0.004781  
3029.000000	0.005052  
3028.000000	0.005258  
3027.000000	0.005341  
3026.000000	0.005342  
3025.000000	0.005364  
3024.000000	0.005491  
3023.000000	0.005730  
3022.000000	0.006012  
3021.000000	0.006228  
3020.000000	0.006298  
3019.000000	0.006241  
3018.000000	0.006188  
3017.000000	0.006272  
3016.000000	0.006510  
3015.000000	0.006810  
3014.000000	0.007078  
3013.000000	0.007279  
3012.000000	0.007422  
3011.000000	0.007520  
3010.000000	0.007603  
3009.000000	0.007714  
3008.000000	0.007869  
3007.000000	0.008044  
3006.000000	0.008191  
3005.000000	0.008275  
3004.000000	0.008281  
3003.000000	0.008221  
3002.000000	0.008162  
3001.000000	0.008198  
3000.000000	0.008382  
2999.000000	0.008674  
2998.000000	0.008972  
2997.000000	0.009187  
2996.000000	0.009302  
2995.000000	0.009367  
2994.000000	0.009481  
2993.000000	0.009737  
2992.000000	0.010176  
2991.000000	0.010759  
2990.000000	0.011398  
2989.000000	0.012017  
2988.000000	0.012602  
2987.000000	0.013206  
2986.000000	0.013912  
2985.000000	0.014767  
2984.000000	0.015757  
2983.000000	0.016846  
2982.000000	0.018031  
2981.000000	0.019363  
2980.000000	0.020885  
2979.000000	0.022600  
2978.000000	0.024500  
2977.000000	0.026629  
2976.000000	0.029087  
2975.000000	0.031962  
2974.000000	0.035269  
2973.000000	0.038942  
2972.000000	0.042886  
2971.000000	0.047049  
2970.000000	0.051472  
2969.000000	0.056267  
2968.000000	0.061499  
2967.000000	0.067079  
2966.000000	0.072780  
2965.000000	0.078389  
2964.000000	0.083828  
2963.000000	0.089116  
2962.000000	0.094255  
2961.000000	0.099185  
2960.000000	0.103825  
2959.000000	0.108070  
2958.000000	0.111751  
2957.000000	0.114662  
2956.000000	0.116678  
2955.000000	0.117801  
2954.000000	0.118068  
2953.000000	0.117492  
2952.000000	0.116103  
2951.000000	0.114038  
2950.000000	0.111542  
2949.000000	0.108899  
2948.000000	0.106378  
2947.000000	0.104215  
2946.000000	0.102596  
2945.000000	0.101653  
2944.000000	0.101482  
2943.000000	0.102163  
2942.000000	0.103756  
2941.000000	0.106268  
2940.000000	0.109659  
2939.000000	0.113863  
2938.000000	0.118820  
2937.000000	0.124470  
2936.000000	0.130730  
2935.000000	0.137472  
2934.000000	0.144551  
2933.000000	0.151868  
2932.000000	0.159419  
2931.000000	0.167233  
2930.000000	0.175252  
2929.000000	0.183279  
2928.000000	0.191035  
2927.000000	0.198227  
2926.000000	0.204578  
2925.000000	0.209865  
2924.000000	0.213936  
2923.000000	0.216641  
2922.000000	0.217794  
2921.000000	0.217286  
2920.000000	0.215255  
2919.000000	0.212039  
2918.000000	0.207958  
2917.000000	0.203205  
2916.000000	0.197950  
2915.000000	0.192428  
2914.000000	0.186851  
2913.000000	0.181321  
2912.000000	0.175882  
2911.000000	0.170630  
2910.000000	0.165686  
2909.000000	0.161069  
2908.000000	0.156662  
2907.000000	0.152315  
2906.000000	0.147954  
2905.000000	0.143604  
2904.000000	0.139330  
2903.000000	0.135205  
2902.000000	0.131277  
2901.000000	0.127537  
2900.000000	0.123900  
2899.000000	0.120256  
2898.000000	0.116555  
2897.000000	0.112855  
2896.000000	0.109260  
2895.000000	0.105823  
2894.000000	0.102510  
2893.000000	0.099231  
2892.000000	0.095916  
2891.000000	0.092570  
2890.000000	0.089285  
2889.000000	0.086190  
2888.000000	0.083401  
2887.000000	0.080975  
2886.000000	0.078926  
2885.000000	0.077268  
2884.000000	0.076030  
2883.000000	0.075259  
2882.000000	0.074996  
2881.000000	0.075284  
2880.000000	0.076183  
2879.000000	0.077775  
2878.000000	0.080117  
2877.000000	0.083144  
2876.000000	0.086621  
2875.000000	0.090179  
2874.000000	0.093437  
2873.000000	0.096107  
2872.000000	0.098034  
2871.000000	0.099195  
2870.000000	0.099699  
2869.000000	0.099780  
2868.000000	0.099749  
2867.000000	0.099891  
2866.000000	0.100422  
2865.000000	0.101514  
2864.000000	0.103323  
2863.000000	0.105937  
2862.000000	0.109298  
2861.000000	0.113222  
2860.000000	0.117524  
2859.000000	0.122101  
2858.000000	0.126842  
2857.000000	0.131477  
2856.000000	0.135523  
2855.000000	0.138398  
2854.000000	0.139614  
2853.000000	0.138937  
2852.000000	0.136426  
2851.000000	0.132347  
2850.000000	0.127048  
2849.000000	0.120866  
2848.000000	0.114113  
2847.000000	0.107076  
2846.000000	0.100006  
2845.000000	0.093066  
2844.000000	0.086296  
2843.000000	0.079651  
2842.000000	0.073121  
2841.000000	0.066793  
2840.000000	0.060811  
2839.000000	0.055285  
2838.000000	0.050275  
2837.000000	0.045808  
2836.000000	0.041872  
2835.000000	0.038387  
2834.000000	0.035223  
2833.000000	0.032295  
2832.000000	0.029622  
2831.000000	0.027281  
2830.000000	0.025328  
2829.000000	0.023730  
2828.000000	0.022380  
2827.000000	0.021160  
2826.000000	0.020001  
2825.000000	0.018910  
2824.000000	0.017930  
2823.000000	0.017091  
2822.000000	0.016385  
2821.000000	0.015786  
2820.000000	0.015260  
2819.000000	0.014762  
2818.000000	0.014245  
2817.000000	0.013689  
2816.000000	0.013117  
2815.000000	0.012567  
2814.000000	0.012055  
2813.000000	0.011578  
2812.000000	0.011137  
2811.000000	0.010746  
2810.000000	0.010427  
2809.000000	0.010184  
2808.000000	0.010012  
2807.000000	0.009894  
2806.000000	0.009798  
2805.000000	0.009673  
2804.000000	0.009472  
2803.000000	0.009180  
2802.000000	0.008837  
2801.000000	0.008524  
2800.000000	0.008310  
2799.000000	0.008207  
2798.000000	0.008167  
2797.000000	0.008122  
2796.000000	0.008041  
2795.000000	0.007918  
2794.000000	0.007738  
2793.000000	0.007468  
2792.000000	0.007108  
2791.000000	0.006723  
2790.000000	0.006416  
2789.000000	0.006247  
2788.000000	0.006196  
2787.000000	0.006200  
2786.000000	0.006199  
2785.000000	0.006160  
2784.000000	0.006067  
2783.000000	0.005925  
2782.000000	0.005776  
2781.000000	0.005682  
2780.000000	0.005683  
2779.000000	0.005760  
2778.000000	0.005830  
2777.000000	0.005787  
2776.000000	0.005572  
2775.000000	0.005241  
2774.000000	0.004943  
2773.000000	0.004811  
2772.000000	0.004854  
2771.000000	0.004955  
2770.000000	0.004987  
2769.000000	0.004910  
2768.000000	0.004761  
2767.000000	0.004585  
2766.000000	0.004415  
2765.000000	0.004297  
2764.000000	0.004279  
2763.000000	0.004365  
2762.000000	0.004488  
2761.000000	0.004563  
2760.000000	0.004557  
2759.000000	0.004505  
2758.000000	0.004457  
2757.000000	0.004425  
2756.000000	0.004397  
2755.000000	0.004356  
2754.000000	0.004303  
2753.000000	0.004247  
2752.000000	0.004198  
2751.000000	0.004170  
2750.000000	0.004178  
2749.000000	0.004220  
2748.000000	0.004263  
2747.000000	0.004255  
2746.000000	0.004176  
2745.000000	0.004072  
2744.000000	0.004018  
2743.000000	0.004055  
2742.000000	0.004158  
2741.000000	0.004280  
2740.000000	0.004396  
2739.000000	0.004507  
2738.000000	0.004611  
2737.000000	0.004700  
2736.000000	0.004780  
2735.000000	0.004872  
2734.000000	0.004975  
2733.000000	0.005056  
2732.000000	0.005073  
2731.000000	0.005020  
2730.000000	0.004938  
2729.000000	0.004888  
2728.000000	0.004909  
2727.000000	0.004983  
2726.000000	0.005046  
2725.000000	0.005037  
2724.000000	0.004953  
2723.000000	0.004842  
2722.000000	0.004756  
2721.000000	0.004722  
2720.000000	0.004738  
2719.000000	0.004784  
2718.000000	0.004825  
2717.000000	0.004830  
2716.000000	0.004797  
2715.000000	0.004746  
2714.000000	0.004676  
2713.000000	0.004552  
2712.000000	0.004360  
2711.000000	0.004157  
2710.000000	0.004029  
2709.000000	0.004006  
2708.000000	0.004048  
2707.000000	0.004105  
2706.000000	0.004147  
2705.000000	0.004156  
2704.000000	0.004114  
2703.000000	0.004030  
2702.000000	0.003938  
2701.000000	0.003858  
2700.000000	0.003773  
2699.000000	0.003670  
2698.000000	0.003578  
2697.000000	0.003552  
2696.000000	0.003614  
2695.000000	0.003737  
2694.000000	0.003866  
2693.000000	0.003950  
2692.000000	0.003952  
2691.000000	0.003882  
2690.000000	0.003809  
2689.000000	0.003825  
2688.000000	0.003970  
2687.000000	0.004187  
2686.000000	0.004367  
2685.000000	0.004438  
2684.000000	0.004412  
2683.000000	0.004362  
2682.000000	0.004344  
2681.000000	0.004358  
2680.000000	0.004366  
2679.000000	0.004341  
2678.000000	0.004300  
2677.000000	0.004286  
2676.000000	0.004336  
2675.000000	0.004453  
2674.000000	0.004594  
2673.000000	0.004700  
2672.000000	0.004719  
2671.000000	0.004642  
2670.000000	0.004507  
2669.000000	0.004381  
2668.000000	0.004334  
2667.000000	0.004400  
2666.000000	0.004555  
2665.000000	0.004730  
2664.000000	0.004843  
2663.000000	0.004840  
2662.000000	0.004705  
2661.000000	0.004468  
2660.000000	0.004198  
2659.000000	0.003971  
2658.000000	0.003821  
2657.000000	0.003741  
2656.000000	0.003727  
2655.000000	0.003792  
2654.000000	0.003909  
2653.000000	0.003988  
2652.000000	0.003960  
2651.000000	0.003875  
2650.000000	0.003857  
2649.000000	0.003956  
2648.000000	0.004095  
2647.000000	0.004162  
2646.000000	0.004126  
2645.000000	0.004034  
2644.000000	0.003949  
2643.000000	0.003919  
2642.000000	0.003964  
2641.000000	0.004054  
2640.000000	0.004109  
2639.000000	0.004051  
2638.000000	0.003871  
2637.000000	0.003633  
2636.000000	0.003432  
2635.000000	0.003353  
2634.000000	0.003433  
2633.000000	0.003622  
2632.000000	0.003808  
2631.000000	0.003890  
2630.000000	0.003846  
2629.000000	0.003730  
2628.000000	0.003623  
2627.000000	0.003599  
2626.000000	0.003683  
2625.000000	0.003807  
2624.000000	0.003841  
2623.000000	0.003713  
2622.000000	0.003481  
2621.000000	0.003263  
2620.000000	0.003111  
2619.000000	0.003005  
2618.000000	0.002944  
2617.000000	0.002961  
2616.000000	0.003055  
2615.000000	0.003159  
2614.000000	0.003219  
2613.000000	0.003252  
2612.000000	0.003302  
2611.000000	0.003385  
2610.000000	0.003481  
2609.000000	0.003575  
2608.000000	0.003664  
2607.000000	0.003729  
2606.000000	0.003742  
2605.000000	0.003677  
2604.000000	0.003538  
2603.000000	0.003375  
2602.000000	0.003280  
2601.000000	0.003324  
2600.000000	0.003483  
2599.000000	0.003617  
2598.000000	0.003591  
2597.000000	0.003397  
2596.000000	0.003167  
2595.000000	0.003033  
2594.000000	0.003005  
2593.000000	0.002981  
2592.000000	0.002884  
2591.000000	0.002750  
2590.000000	0.002675  
2589.000000	0.002688  
2588.000000	0.002721  
2587.000000	0.002718  
2586.000000	0.002701  
2585.000000	0.002718  
2584.000000	0.002748  
2583.000000	0.002732  
2582.000000	0.002652  
2581.000000	0.002561  
2580.000000	0.002514  
2579.000000	0.002533  
2578.000000	0.002617  
2577.000000	0.002741  
2576.000000	0.002828  
2575.000000	0.002785  
2574.000000	0.002609  
2573.000000	0.002422  
2572.000000	0.002358  
2571.000000	0.002422  
2570.000000	0.002511  
2569.000000	0.002534  
2568.000000	0.002494  
2567.000000	0.002443  
2566.000000	0.002404  
2565.000000	0.002356  
2564.000000	0.002276  
2563.000000	0.002178  
2562.000000	0.002114  
2561.000000	0.002122  
2560.000000	0.002190  
2559.000000	0.002263  
2558.000000	0.002308  
2557.000000	0.002341  
2556.000000	0.002387  
2555.000000	0.002419  
2554.000000	0.002389  
2553.000000	0.002312  
2552.000000	0.002293  
2551.000000	0.002424  
2550.000000	0.002669  
2549.000000	0.002895  
2548.000000	0.002988  
2547.000000	0.002917  
2546.000000	0.002702  
2545.000000	0.002378  
2544.000000	0.002033  
2543.000000	0.001799  
2542.000000	0.001741  
2541.000000	0.001776  
2540.000000	0.001784  
2539.000000	0.001760  
2538.000000	0.001813  
2537.000000	0.001972  
2536.000000	0.002102  
2535.000000	0.002055  
2534.000000	0.001857  
2533.000000	0.001684  
2532.000000	0.001669  
2531.000000	0.001778  
2530.000000	0.001870  
2529.000000	0.001844  
2528.000000	0.001733  
2527.000000	0.001671  
2526.000000	0.001766  
2525.000000	0.001996  
2524.000000	0.002229  
2523.000000	0.002351  
2522.000000	0.002347  
2521.000000	0.002261  
2520.000000	0.002132  
2519.000000	0.002005  
2518.000000	0.001958  
2517.000000	0.002050  
2516.000000	0.002245  
2515.000000	0.002428  
2514.000000	0.002496  
2513.000000	0.002424  
2512.000000	0.002260  
2511.000000	0.002086  
2510.000000	0.001986  
2509.000000	0.001998  
2508.000000	0.002105  
2507.000000	0.002272  
2506.000000	0.002467  
2505.000000	0.002633  
2504.000000	0.002659  
2503.000000	0.002484  
2502.000000	0.002194  
2501.000000	0.001987  
2500.000000	0.001986  
2499.000000	0.002121  
2498.000000	0.002190  
2497.000000	0.002037  
2496.000000	0.001668  
2495.000000	0.001247  
2494.000000	0.000992  
2493.000000	0.001038  
2492.000000	0.001348  
2491.000000	0.001764  
2490.000000	0.002119  
2489.000000	0.002325  
2488.000000	0.002363  
2487.000000	0.002259  
2486.000000	0.002051  
2485.000000	0.001785  
2484.000000	0.001519  
2483.000000	0.001337  
2482.000000	0.001334  
2481.000000	0.001541  
2480.000000	0.001883  
2479.000000	0.002216  
2478.000000	0.002412  
2477.000000	0.002418  
2476.000000	0.002261  
2475.000000	0.002032  
2474.000000	0.001846  
2473.000000	0.001769  
2472.000000	0.001775  
2471.000000	0.001781  
2470.000000	0.001726  
2469.000000	0.001616  
2468.000000	0.001507  
2467.000000	0.001480  
2466.000000	0.001576  
2465.000000	0.001738  
2464.000000	0.001835  
2463.000000	0.001792  
2462.000000	0.001681  
2461.000000	0.001624  
2460.000000	0.001663  
2459.000000	0.001762  
2458.000000	0.001899  
2457.000000	0.002055  
2456.000000	0.002125  
2455.000000	0.001986  
2454.000000	0.001675  
2453.000000	0.001389  
2452.000000	0.001265  
2451.000000	0.001226  
2450.000000	0.001143  
2449.000000	0.001052  
2448.000000	0.001109  
2447.000000	0.001369  
2446.000000	0.001696  
2445.000000	0.001900  
2444.000000	0.001909  
2443.000000	0.001787  
2442.000000	0.001654  
2441.000000	0.001592  
2440.000000	0.001593  
2439.000000	0.001596  
2438.000000	0.001575  
2437.000000	0.001574  
2436.000000	0.001626  
2435.000000	0.001676  
2434.000000	0.001635  
2433.000000	0.001513  
2432.000000	0.001425  
2431.000000	0.001458  
2430.000000	0.001576  
2429.000000	0.001676  
2428.000000	0.001704  
2427.000000	0.001697  
2426.000000	0.001725  
2425.000000	0.001821  
2424.000000	0.001949  
2423.000000	0.002021  
2422.000000	0.001976  
2421.000000	0.001845  
2420.000000	0.001738  
2419.000000	0.001741  
2418.000000	0.001825  
2417.000000	0.001884  
2416.000000	0.001861  
2415.000000	0.001805  
2414.000000	0.001819  
2413.000000	0.001944  
2412.000000	0.002126  
2411.000000	0.002280  
2410.000000	0.002365  
2409.000000	0.002399  
2408.000000	0.002409  
2407.000000	0.002386  
2406.000000	0.002285  
2405.000000	0.002078  
2404.000000	0.001801  
2403.000000	0.001551  
2402.000000	0.001402  
2401.000000	0.001350  
2400.000000	0.001351  
2399.000000	0.001406  
2398.000000	0.001561  
2397.000000	0.001812  
2396.000000	0.002054  
2395.000000	0.002167  
2394.000000	0.002144  
2393.000000	0.002090  
2392.000000	0.002106  
2391.000000	0.002199  
2390.000000	0.002297  
2389.000000	0.002333  
2388.000000	0.002317  
2387.000000	0.002358  
2386.000000	0.002577  
2385.000000	0.002973  
2384.000000	0.003362  
2383.000000	0.003499  
2382.000000	0.003290  
2381.000000	0.002869  
2380.000000	0.002461  
2379.000000	0.002180  
2378.000000	0.001951  
2377.000000	0.001616  
2376.000000	0.001114  
2375.000000	0.000602  
2374.000000	0.000381  
2373.000000	0.000660  
2372.000000	0.001372  
2371.000000	0.002236  
2370.000000	0.002990  
2369.000000	0.003471  
2368.000000	0.003588  
2367.000000	0.003394  
2366.000000	0.003161  
2365.000000	0.003091  
2364.000000	0.002948  
2363.000000	0.002329  
2362.000000	0.001306  
2361.000000	0.000580  
2360.000000	0.000848  
2359.000000	0.001940  
2358.000000	0.003035  
2357.000000	0.003482  
2356.000000	0.003249  
2355.000000	0.002749  
2354.000000	0.002312  
2353.000000	0.002139  
2352.000000	0.002229  
2351.000000	0.002416  
2350.000000	0.002553  
2349.000000	0.002491  
2348.000000	0.002268  
2347.000000	0.002022  
2346.000000	0.002093  
2345.000000	0.002696  
2344.000000	0.003451  
2343.000000	0.003729  
2342.000000	0.003182  
2341.000000	0.002341  
2340.000000	0.002013  
2339.000000	0.002313  
2338.000000	0.002582  
2337.000000	0.002287  
2336.000000	0.001619  
2335.000000	0.001111  
2334.000000	0.000945  
2333.000000	0.001036  
2332.000000	0.001318  
2331.000000	0.001796  
2330.000000	0.002387  
2329.000000	0.002821  
2328.000000	0.003106  
2327.000000	0.003348  
2326.000000	0.003605  
2325.000000	0.003736  
2324.000000	0.003520  
2323.000000	0.002995  
2322.000000	0.002345  
2321.000000	0.001923  
2320.000000	0.001938  
2319.000000	0.002390  
2318.000000	0.002998  
2317.000000	0.003380  
2316.000000	0.003317  
2315.000000	0.002903  
2314.000000	0.002502  
2313.000000	0.002437  
2312.000000	0.002772  
2311.000000	0.003285  
2310.000000	0.003724  
2309.000000	0.003987  
2308.000000	0.004101  
2307.000000	0.004080  
2306.000000	0.003883  
2305.000000	0.003534  
2304.000000	0.003167  
2303.000000	0.002956  
2302.000000	0.002945  
2301.000000	0.002994  
2300.000000	0.002932  
2299.000000	0.002753  
2298.000000	0.002644  
2297.000000	0.002753  
2296.000000	0.003007  
2295.000000	0.003176  
2294.000000	0.003144  
2293.000000	0.002999  
2292.000000	0.002881  
2291.000000	0.002817  
2290.000000	0.002749  
2289.000000	0.002643  
2288.000000	0.002480  
2287.000000	0.002208  
2286.000000	0.001821  
2285.000000	0.001463  
2284.000000	0.001325  
2283.000000	0.001434  
2282.000000	0.001609  
2281.000000	0.001697  
2280.000000	0.001744  
2279.000000	0.001870  
2278.000000	0.002051  
2277.000000	0.002140  
2276.000000	0.002105  
2275.000000	0.002131  
2274.000000	0.002419  
2273.000000	0.002922  
2272.000000	0.003358  
2271.000000	0.003494  
2270.000000	0.003363  
2269.000000	0.003150  
2268.000000	0.002920  
2267.000000	0.002563  
2266.000000	0.002026  
2265.000000	0.001504  
2264.000000	0.001278  
2263.000000	0.001408  
2262.000000	0.001714  
2261.000000	0.002006  
2260.000000	0.002225  
2259.000000	0.002369  
2258.000000	0.002408  
2257.000000	0.002360  
2256.000000	0.002343  
2255.000000	0.002451  
2254.000000	0.002628  
2253.000000	0.002734  
2252.000000	0.002700  
2251.000000	0.002563  
2250.000000	0.002369  
2249.000000	0.002125  
2248.000000	0.001818  
2247.000000	0.001435  
2246.000000	0.000994  
2245.000000	0.000585  
2244.000000	0.000360  
2243.000000	0.000416  
2242.000000	0.000699  
2241.000000	0.001055  
2240.000000	0.001362  
2239.000000	0.001581  
2238.000000	0.001700  
2237.000000	0.001712  
2236.000000	0.001653  
2235.000000	0.001621  
2234.000000	0.001707  
2233.000000	0.001914  
2232.000000	0.002140  
2231.000000	0.002236  
2230.000000	0.002105  
2229.000000	0.001779  
2228.000000	0.001406  
2227.000000	0.001137  
2226.000000	0.001023  
2225.000000	0.000993  
2224.000000	0.000922  
2223.000000	0.000727  
2222.000000	0.000464  
2221.000000	0.000335  
2220.000000	0.000516  
2219.000000	0.000937  
2218.000000	0.001308  
2217.000000	0.001447  
2216.000000	0.001496  
2215.000000	0.001711  
2214.000000	0.002072  
2213.000000	0.002302  
2212.000000	0.002250  
2211.000000	0.002092  
2210.000000	0.002030  
2209.000000	0.001980  
2208.000000	0.001727  
2207.000000	0.001296  
2206.000000	0.000999  
2205.000000	0.001078  
2204.000000	0.001464  
2203.000000	0.001927  
2202.000000	0.002348  
2201.000000	0.002732  
2200.000000	0.003060  
2199.000000	0.003259  
2198.000000	0.003314  
2197.000000	0.003303  
2196.000000	0.003292  
2195.000000	0.003240  
2194.000000	0.003061  
2193.000000	0.002742  
2192.000000	0.002336  
2191.000000	0.001879  
2190.000000	0.001409  
2189.000000	0.001046  
2188.000000	0.000948  
2187.000000	0.001104  
2186.000000	0.001260  
2185.000000	0.001147  
2184.000000	0.000819  
2183.000000	0.000653  
2182.000000	0.000973  
2181.000000	0.001725  
2180.000000	0.002544  
2179.000000	0.003102  
2178.000000	0.003312  
2177.000000	0.003251  
2176.000000	0.003003  
2175.000000	0.002587  
2174.000000	0.002021  
2173.000000	0.001427  
2172.000000	0.001040  
2171.000000	0.001039  
2170.000000	0.001339  
2169.000000	0.001590  
2168.000000	0.001480  
2167.000000	0.001089  
2166.000000	0.000865  
2165.000000	0.001176  
2164.000000	0.001893  
2163.000000	0.002499  
2162.000000	0.002595  
2161.000000	0.002255  
2160.000000	0.001894  
2159.000000	0.001826  
2158.000000	0.002007  
2157.000000	0.002198  
2156.000000	0.002220  
2155.000000	0.002044  
2154.000000	0.001783  
2153.000000	0.001675  
2152.000000	0.001924  
2151.000000	0.002447  
2150.000000	0.002839  
2149.000000	0.002708  
2148.000000	0.002088  
2147.000000	0.001442  
2146.000000	0.001243  
2145.000000	0.001600  
2144.000000	0.002255  
2143.000000	0.002832  
2142.000000	0.003029  
2141.000000	0.002721  
2140.000000	0.002040  
2139.000000	0.001342  
2138.000000	0.000993  
2137.000000	0.001094  
2136.000000	0.001419  
2135.000000	0.001628  
2134.000000	0.001557  
2133.000000	0.001315  
2132.000000	0.001165  
2131.000000	0.001291  
2130.000000	0.001671  
2129.000000	0.002113  
2128.000000	0.002404  
2127.000000	0.002423  
2126.000000	0.002159  
2125.000000	0.001718  
2124.000000	0.001315  
2123.000000	0.001204  
2122.000000	0.001498  
2121.000000	0.002033  
2120.000000	0.002469  
2119.000000	0.002543  
2118.000000	0.002267  
2117.000000	0.001907  
2116.000000	0.001788  
2115.000000	0.002043  
2114.000000	0.002468  
2113.000000	0.002658  
2112.000000	0.002383  
2111.000000	0.001833  
2110.000000	0.001435  
2109.000000	0.001421  
2108.000000	0.001643  
2107.000000	0.001823  
2106.000000	0.001850  
2105.000000	0.001775  
2104.000000	0.001644  
2103.000000	0.001467  
2102.000000	0.001291  
2101.000000	0.001188  
2100.000000	0.001146  
2099.000000	0.001089  
2098.000000	0.000990  
2097.000000	0.000906  
2096.000000	0.000868  
2095.000000	0.000828  
2094.000000	0.000760  
2093.000000	0.000741  
2092.000000	0.000854  
2091.000000	0.001051  
2090.000000	0.001177  
2089.000000	0.001156  
2088.000000	0.001118  
2087.000000	0.001285  
2086.000000	0.001709  
2085.000000	0.002143  
2084.000000	0.002234  
2083.000000	0.001881  
2082.000000	0.001348  
2081.000000	0.001025  
2080.000000	0.001078  
2079.000000	0.001367  
2078.000000	0.001643  
2077.000000	0.001751  
2076.000000	0.001707  
2075.000000	0.001651  
2074.000000	0.001741  
2073.000000	0.001998  
2072.000000	0.002252  
2071.000000	0.002296  
2070.000000	0.002112  
2069.000000	0.001875  
2068.000000	0.001734  
2067.000000	0.001696  
2066.000000	0.001731  
2065.000000	0.001868  
2064.000000	0.002101  
2063.000000	0.002305  
2062.000000	0.002344  
2061.000000	0.002210  
2060.000000	0.001970  
2059.000000	0.001650  
2058.000000	0.001285  
2057.000000	0.001012  
2056.000000	0.000965  
2055.000000	0.001078  
2054.000000	0.001126  
2053.000000	0.001000  
2052.000000	0.000808  
2051.000000	0.000711  
2050.000000	0.000781  
2049.000000	0.001082  
2048.000000	0.001690  
2047.000000	0.002467  
2046.000000	0.002961  
2045.000000	0.002783  
2044.000000	0.002081  
2043.000000	0.001410  
2042.000000	0.001127  
2041.000000	0.001095  
2040.000000	0.001063  
2039.000000	0.001074  
2038.000000	0.001289  
2037.000000	0.001596  
2036.000000	0.001694  
2035.000000	0.001548  
2034.000000	0.001468  
2033.000000	0.001651  
2032.000000	0.001872  
2031.000000	0.001778  
2030.000000	0.001310  
2029.000000	0.000688  
2028.000000	0.000144  
2027.000000	-0.000213 
2026.000000	-0.000345 
2025.000000	-0.000278 
2024.000000	-0.000101 
2023.000000	0.000173  
2022.000000	0.000660  
2021.000000	0.001346  
2020.000000	0.001901  
2019.000000	0.001951  
2018.000000	0.001524  
2017.000000	0.001013  
2016.000000	0.000690  
2015.000000	0.000505  
2014.000000	0.000420  
2013.000000	0.000587  
2012.000000	0.000991  
2011.000000	0.001191  
2010.000000	0.000724  
2009.000000	-0.000281 
2008.000000	-0.001175 
2007.000000	-0.001470 
2006.000000	-0.001217 
2005.000000	-0.000711 
2004.000000	-0.000113 
2003.000000	0.000563  
2002.000000	0.001306  
2001.000000	0.002048  
2000.000000	0.002637  
1999.000000	0.002807  
1998.000000	0.002349  
1997.000000	0.001433  
1996.000000	0.000597  
1995.000000	0.000278  
1994.000000	0.000443  
1993.000000	0.000746  
1992.000000	0.000954  
1991.000000	0.001076  
1990.000000	0.001164  
1989.000000	0.001219  
1988.000000	0.001291  
1987.000000	0.001472  
1986.000000	0.001747  
1985.000000	0.001993  
1984.000000	0.002154  
1983.000000	0.002257  
1982.000000	0.002239  
1981.000000	0.001945  
1980.000000	0.001396  
1979.000000	0.000900  
1978.000000	0.000718  
1977.000000	0.000742  
1976.000000	0.000684  
1975.000000	0.000482  
1974.000000	0.000280  
1973.000000	0.000124  
1972.000000	-0.000061 
1971.000000	-0.000241 
1970.000000	-0.000256 
1969.000000	-0.000074 
1968.000000	0.000120  
1967.000000	0.000192  
1966.000000	0.000249  
1965.000000	0.000457  
1964.000000	0.000785  
1963.000000	0.001058  
1962.000000	0.001181  
1961.000000	0.001212  
1960.000000	0.001267  
1959.000000	0.001388  
1958.000000	0.001511  
1957.000000	0.001491  
1956.000000	0.001220  
1955.000000	0.000760  
1954.000000	0.000339  
1953.000000	0.000200  
1952.000000	0.000432  
1951.000000	0.000946  
1950.000000	0.001543  
1949.000000	0.001983  
1948.000000	0.002094  
1947.000000	0.001898  
1946.000000	0.001614  
1945.000000	0.001454  
1944.000000	0.001432  
1943.000000	0.001414  
1942.000000	0.001333  
1941.000000	0.001256  
1940.000000	0.001244  
1939.000000	0.001274  
1938.000000	0.001345  
1937.000000	0.001521  
1936.000000	0.001831  
1935.000000	0.002165  
1934.000000	0.002377  
1933.000000	0.002441  
1932.000000	0.002456  
1931.000000	0.002476  
1930.000000	0.002431  
1929.000000	0.002241  
1928.000000	0.001943  
1927.000000	0.001649  
1926.000000	0.001421  
1925.000000	0.001254  
1924.000000	0.001160  
1923.000000	0.001194  
1922.000000	0.001381  
1921.000000	0.001656  
1920.000000	0.001908  
1919.000000	0.002037  
1918.000000	0.002017  
1917.000000	0.001927  
1916.000000	0.001877  
1915.000000	0.001864  
1914.000000	0.001771  
1913.000000	0.001519  
1912.000000	0.001199  
1911.000000	0.001008  
1910.000000	0.001036  
1909.000000	0.001184  
1908.000000	0.001312  
1907.000000	0.001380  
1906.000000	0.001413  
1905.000000	0.001409  
1904.000000	0.001368  
1903.000000	0.001358  
1902.000000	0.001464  
1901.000000	0.001673  
1900.000000	0.001864  
1899.000000	0.001919  
1898.000000	0.001834  
1897.000000	0.001706  
1896.000000	0.001647  
1895.000000	0.001708  
1894.000000	0.001863  
1893.000000	0.002055  
1892.000000	0.002231  
1891.000000	0.002347  
1890.000000	0.002358  
1889.000000	0.002257  
1888.000000	0.002106  
1887.000000	0.001974  
1886.000000	0.001886  
1885.000000	0.001834  
1884.000000	0.001799  
1883.000000	0.001751  
1882.000000	0.001667  
1881.000000	0.001563  
1880.000000	0.001497  
1879.000000	0.001497  
1878.000000	0.001526  
1877.000000	0.001543  
1876.000000	0.001584  
1875.000000	0.001714  
1874.000000	0.001912  
1873.000000	0.002066  
1872.000000	0.002081  
1871.000000	0.001944  
1870.000000	0.001688  
1869.000000	0.001388  
1868.000000	0.001192  
1867.000000	0.001227  
1866.000000	0.001457  
1865.000000	0.001716  
1864.000000	0.001882  
1863.000000	0.001961  
1862.000000	0.002013  
1861.000000	0.002038  
1860.000000	0.002015  
1859.000000	0.001989  
1858.000000	0.002032  
1857.000000	0.002130  
1856.000000	0.002171  
1855.000000	0.002067  
1854.000000	0.001847  
1853.000000	0.001639  
1852.000000	0.001568  
1851.000000	0.001649  
1850.000000	0.001762  
1849.000000	0.001747  
1848.000000	0.001572  
1847.000000	0.001394  
1846.000000	0.001415  
1845.000000	0.001678  
1844.000000	0.001979  
1843.000000	0.002085  
1842.000000	0.001984  
1841.000000	0.001800  
1840.000000	0.001634  
1839.000000	0.001545  
1838.000000	0.001554  
1837.000000	0.001617  
1836.000000	0.001665  
1835.000000	0.001677  
1834.000000	0.001681  
1833.000000	0.001664  
1832.000000	0.001564  
1831.000000	0.001391  
1830.000000	0.001294  
1829.000000	0.001391  
1828.000000	0.001606  
1827.000000	0.001794  
1826.000000	0.001894  
1825.000000	0.001927  
1824.000000	0.001952  
1823.000000	0.002025  
1822.000000	0.002144  
1821.000000	0.002208  
1820.000000	0.002096  
1819.000000	0.001824  
1818.000000	0.001581  
1817.000000	0.001537  
1816.000000	0.001654  
1815.000000	0.001766  
1814.000000	0.001783  
1813.000000	0.001741  
1812.000000	0.001715  
1811.000000	0.001749  
1810.000000	0.001846  
1809.000000	0.001974  
1808.000000	0.002090  
1807.000000	0.002155  
1806.000000	0.002157  
1805.000000	0.002117  
1804.000000	0.002082  
1803.000000	0.002092  
1802.000000	0.002160  
1801.000000	0.002254  
1800.000000	0.002328  
1799.000000	0.002354  
1798.000000	0.002327  
1797.000000	0.002261  
1796.000000	0.002192  
1795.000000	0.002139  
1794.000000	0.002089  
1793.000000	0.002027  
1792.000000	0.001968  
1791.000000	0.001946  
1790.000000	0.001957  
1789.000000	0.001962  
1788.000000	0.001948  
1787.000000	0.001944  
1786.000000	0.001987  
1785.000000	0.002051  
1784.000000	0.002046  
1783.000000	0.001933  
1782.000000	0.001782  
1781.000000	0.001725  
1780.000000	0.001823  
1779.000000	0.002010  
1778.000000	0.002172  
1777.000000	0.002257  
1776.000000	0.002280  
1775.000000	0.002263  
1774.000000	0.002203  
1773.000000	0.002093  
1772.000000	0.001943  
1771.000000	0.001801  
1770.000000	0.001746  
1769.000000	0.001820  
1768.000000	0.001970  
1767.000000	0.002094  
1766.000000	0.002144  
1765.000000	0.002162  
1764.000000	0.002208  
1763.000000	0.002315  
1762.000000	0.002484  
1761.000000	0.002672  
1760.000000	0.002822  
1759.000000	0.002916  
1758.000000	0.002981  
1757.000000	0.003069  
1756.000000	0.003204  
1755.000000	0.003370  
1754.000000	0.003579  
1753.000000	0.003885  
1752.000000	0.004339  
1751.000000	0.004932  
1750.000000	0.005654  
1749.000000	0.006565  
1748.000000	0.007695  
1747.000000	0.008958  
1746.000000	0.010247  
1745.000000	0.011483  
1744.000000	0.012528  
1743.000000	0.013202  
1742.000000	0.013411  
1741.000000	0.013136  
1740.000000	0.012377  
1739.000000	0.011294  
1738.000000	0.010191  
1737.000000	0.009203  
1736.000000	0.008197  
1735.000000	0.007006  
1734.000000	0.005811  
1733.000000	0.004937  
1732.000000	0.004377  
1731.000000	0.004002  
1730.000000	0.003782  
1729.000000	0.003701  
1728.000000	0.003680  
1727.000000	0.003633  
1726.000000	0.003532  
1725.000000	0.003392  
1724.000000	0.003238  
1723.000000	0.003104  
1722.000000	0.003025  
1721.000000	0.003007  
1720.000000	0.003000  
1719.000000	0.002955  
1718.000000	0.002873  
1717.000000	0.002758  
1716.000000	0.002648  
1715.000000	0.002610  
1714.000000	0.002640  
1713.000000	0.002662  
1712.000000	0.002612  
1711.000000	0.002491  
1710.000000	0.002354  
1709.000000	0.002247  
1708.000000	0.002177  
1707.000000	0.002152  
1706.000000	0.002208  
1705.000000	0.002355  
1704.000000	0.002586  
1703.000000	0.002892  
1702.000000	0.003192  
1701.000000	0.003284  
1700.000000	0.003091  
1699.000000	0.002839  
1698.000000	0.002730  
1697.000000	0.002735  
1696.000000	0.002749  
1695.000000	0.002737  
1694.000000	0.002691  
1693.000000	0.002619  
1692.000000	0.002538  
1691.000000	0.002466  
1690.000000	0.002441  
1689.000000	0.002484  
1688.000000	0.002575  
1687.000000	0.002668  
1686.000000	0.002687  
1685.000000	0.002612  
1684.000000	0.002535  
1683.000000	0.002522  
1682.000000	0.002559  
1681.000000	0.002624  
1680.000000	0.002665  
1679.000000	0.002669  
1678.000000	0.002632  
1677.000000	0.002546  
1676.000000	0.002417  
1675.000000	0.002328  
1674.000000	0.002356  
1673.000000	0.002471  
1672.000000	0.002594  
1671.000000	0.002666  
1670.000000	0.002697  
1669.000000	0.002729  
1668.000000	0.002752  
1667.000000	0.002744  
1666.000000	0.002736  
1665.000000	0.002761  
1664.000000	0.002820  
1663.000000	0.002889  
1662.000000	0.002935  
1661.000000	0.002951  
1660.000000	0.002952  
1659.000000	0.002937  
1658.000000	0.002896  
1657.000000	0.002864  
1656.000000	0.002859  
1655.000000	0.002842  
1654.000000	0.002806  
1653.000000	0.002891  
1652.000000	0.003017  
1651.000000	0.003020  
1650.000000	0.003012  
1649.000000	0.003056  
1648.000000	0.003114  
1647.000000	0.003083  
1646.000000	0.002971  
1645.000000	0.002845  
1644.000000	0.002741  
1643.000000	0.002683  
1642.000000	0.002703  
1641.000000	0.002773  
1640.000000	0.002829  
1639.000000	0.002832  
1638.000000	0.002799  
1637.000000	0.002773  
1636.000000	0.002793  
1635.000000	0.002813  
1634.000000	0.002781  
1633.000000	0.002729  
1632.000000	0.002693  
1631.000000	0.002686  
1630.000000	0.002697  
1629.000000	0.002727  
1628.000000	0.002758  
1627.000000	0.002776  
1626.000000	0.002804  
1625.000000	0.002877  
1624.000000	0.002983  
1623.000000	0.003064  
1622.000000	0.003099  
1621.000000	0.003150  
1620.000000	0.003266  
1619.000000	0.003418  
1618.000000	0.003543  
1617.000000	0.003637  
1616.000000	0.003734  
1615.000000	0.003814  
1614.000000	0.003873  
1613.000000	0.003944  
1612.000000	0.004039  
1611.000000	0.004142  
1610.000000	0.004234  
1609.000000	0.004297  
1608.000000	0.004309  
1607.000000	0.004253  
1606.000000	0.004150  
1605.000000	0.004046  
1604.000000	0.003965  
1603.000000	0.003898  
1602.000000	0.003841  
1601.000000	0.003792  
1600.000000	0.003721  
1599.000000	0.003587  
1598.000000	0.003406  
1597.000000	0.003254  
1596.000000	0.003193  
1595.000000	0.003213  
1594.000000	0.003267  
1593.000000	0.003334  
1592.000000	0.003420  
1591.000000	0.003519  
1590.000000	0.003602  
1589.000000	0.003643  
1588.000000	0.003641  
1587.000000	0.003610  
1586.000000	0.003569  
1585.000000	0.003521  
1584.000000	0.003462  
1583.000000	0.003395  
1582.000000	0.003342  
1581.000000	0.003325  
1580.000000	0.003356  
1579.000000	0.003424  
1578.000000	0.003479  
1577.000000	0.003448  
1576.000000	0.003313  
1575.000000	0.003176  
1574.000000	0.003171  
1573.000000	0.003336  
1572.000000	0.003559  
1571.000000	0.003663  
1570.000000	0.003574  
1569.000000	0.003420  
1568.000000	0.003327  
1567.000000	0.003282  
1566.000000	0.003222  
1565.000000	0.003141  
1564.000000	0.003053  
1563.000000	0.003000  
1562.000000	0.002998  
1561.000000	0.003014  
1560.000000	0.003034  
1559.000000	0.003054  
1558.000000	0.003009  
1557.000000	0.003023  
1556.000000	0.003179  
1555.000000	0.003356  
1554.000000	0.003505  
1553.000000	0.003517  
1552.000000	0.003389  
1551.000000	0.003172  
1550.000000	0.003006  
1549.000000	0.002981  
1548.000000	0.003046  
1547.000000	0.003104  
1546.000000	0.003142  
1545.000000	0.003195  
1544.000000	0.003254  
1543.000000	0.003285  
1542.000000	0.003319  
1541.000000	0.003394  
1540.000000	0.003479  
1539.000000	0.003537  
1538.000000	0.003594  
1537.000000	0.003674  
1536.000000	0.003737  
1535.000000	0.003723  
1534.000000	0.003631  
1533.000000	0.003550  
1532.000000	0.003515  
1531.000000	0.003492  
1530.000000	0.003458  
1529.000000	0.003433  
1528.000000	0.003450  
1527.000000	0.003534  
1526.000000	0.003700  
1525.000000	0.003905  
1524.000000	0.004059  
1523.000000	0.004112  
1522.000000	0.004135  
1521.000000	0.004224  
1520.000000	0.004320  
1519.000000	0.004334  
1518.000000	0.004305  
1517.000000	0.004330  
1516.000000	0.004448  
1515.000000	0.004641  
1514.000000	0.004902  
1513.000000	0.005197  
1512.000000	0.005425  
1511.000000	0.005515  
1510.000000	0.005542  
1509.000000	0.005669  
1508.000000	0.006014  
1507.000000	0.006558  
1506.000000	0.007094  
1505.000000	0.007412  
1504.000000	0.007496  
1503.000000	0.007463  
1502.000000	0.007444  
1501.000000	0.007450  
1500.000000	0.007441  
1499.000000	0.007464  
1498.000000	0.007739  
1497.000000	0.008335  
1496.000000	0.008902  
1495.000000	0.009151  
1494.000000	0.009224  
1493.000000	0.009319  
1492.000000	0.009405  
1491.000000	0.009433  
1490.000000	0.009559  
1489.000000	0.009892  
1488.000000	0.010271  
1487.000000	0.010570  
1486.000000	0.010883  
1485.000000	0.011321  
1484.000000	0.011860  
1483.000000	0.012477  
1482.000000	0.013267  
1481.000000	0.014266  
1480.000000	0.015338  
1479.000000	0.016430  
1478.000000	0.017748  
1477.000000	0.019480  
1476.000000	0.021533  
1475.000000	0.023937  
1474.000000	0.027430  
1473.000000	0.032916  
1472.000000	0.039886  
1471.000000	0.046874  
1470.000000	0.053311  
1469.000000	0.059256  
1468.000000	0.064541  
1467.000000	0.068991  
1466.000000	0.072743  
1465.000000	0.075945  
1464.000000	0.078393  
1463.000000	0.080025  
1462.000000	0.081187  
1461.000000	0.082200  
1460.000000	0.083184  
1459.000000	0.084220  
1458.000000	0.085287  
1457.000000	0.085622  
1456.000000	0.084455  
1455.000000	0.082294  
1454.000000	0.079845  
1453.000000	0.077168  
1452.000000	0.074266  
1451.000000	0.071390  
1450.000000	0.068755  
1449.000000	0.066168  
1448.000000	0.063360  
1447.000000	0.060411  
1446.000000	0.057480  
1445.000000	0.054452  
1444.000000	0.051155  
1443.000000	0.047643  
1442.000000	0.044156  
1441.000000	0.040937  
1440.000000	0.038083  
1439.000000	0.035458  
1438.000000	0.032715  
1437.000000	0.029694  
1436.000000	0.026873  
1435.000000	0.024740  
1434.000000	0.023084  
1433.000000	0.021465  
1432.000000	0.019740  
1431.000000	0.018029  
1430.000000	0.016479  
1429.000000	0.015150  
1428.000000	0.014099  
1427.000000	0.013326  
1426.000000	0.012700  
1425.000000	0.012105  
1424.000000	0.011584  
1423.000000	0.011225  
1422.000000	0.010962  
1421.000000	0.010624  
1420.000000	0.010156  
1419.000000	0.009695  
1418.000000	0.009372  
1417.000000	0.009170  
1416.000000	0.009056  
1415.000000	0.009010  
1414.000000	0.008963  
1413.000000	0.008853  
1412.000000	0.008683  
1411.000000	0.008496  
1410.000000	0.008318  
1409.000000	0.008171  
1408.000000	0.008096  
1407.000000	0.008103  
1406.000000	0.008129  
1405.000000	0.008123  
1404.000000	0.008137  
1403.000000	0.008222  
1402.000000	0.008328  
1401.000000	0.008388  
1400.000000	0.008432  
1399.000000	0.008523  
1398.000000	0.008650  
1397.000000	0.008781  
1396.000000	0.008960  
1395.000000	0.009246  
1394.000000	0.009622  
1393.000000	0.010061  
1392.000000	0.010605  
1391.000000	0.011318  
1390.000000	0.012266  
1389.000000	0.013607  
1388.000000	0.015583  
1387.000000	0.018201  
1386.000000	0.021087  
1385.000000	0.023949  
1384.000000	0.026886  
1383.000000	0.030172  
1382.000000	0.033970  
1381.000000	0.038220  
1380.000000	0.042546  
1379.000000	0.046186  
1378.000000	0.048303  
1377.000000	0.048488  
1376.000000	0.046808  
1375.000000	0.043579  
1374.000000	0.039455  
1373.000000	0.035373  
1372.000000	0.031994  
1371.000000	0.029461  
1370.000000	0.027726  
1369.000000	0.026744  
1368.000000	0.026326  
1367.000000	0.026038  
1366.000000	0.025411  
1365.000000	0.024185  
1364.000000	0.022392  
1363.000000	0.020348  
1362.000000	0.018496  
1361.000000	0.017100  
1360.000000	0.016139  
1359.000000	0.015462  
1358.000000	0.014953  
1357.000000	0.014567  
1356.000000	0.014306  
1355.000000	0.014175  
1354.000000	0.014143  
1353.000000	0.014147  
1352.000000	0.014132  
1351.000000	0.014068  
1350.000000	0.013947  
1349.000000	0.013791  
1348.000000	0.013630  
1347.000000	0.013469  
1346.000000	0.013304  
1345.000000	0.013160  
1344.000000	0.013086  
1343.000000	0.013079  
1342.000000	0.013067  
1341.000000	0.012976  
1340.000000	0.012794  
1339.000000	0.012546  
1338.000000	0.012255  
1337.000000	0.011940  
1336.000000	0.011633  
1335.000000	0.011354  
1334.000000	0.011086  
1333.000000	0.010818  
1332.000000	0.010591  
1331.000000	0.010452  
1330.000000	0.010382  
1329.000000	0.010306  
1328.000000	0.010185  
1327.000000	0.010039  
1326.000000	0.009901  
1325.000000	0.009792  
1324.000000	0.009728  
1323.000000	0.009718  
1322.000000	0.009742  
1321.000000	0.009764  
1320.000000	0.009765  
1319.000000	0.009759  
1318.000000	0.009768  
1317.000000	0.009801  
1316.000000	0.009864  
1315.000000	0.009960  
1314.000000	0.010089  
1313.000000	0.010244  
1312.000000	0.010413  
1311.000000	0.010577  
1310.000000	0.010721  
1309.000000	0.010840  
1308.000000	0.010950  
1307.000000	0.011055  
1306.000000	0.011135  
1305.000000	0.011163  
1304.000000	0.011133  
1303.000000	0.011065  
1302.000000	0.010985  
1301.000000	0.010915  
1300.000000	0.010865  
1299.000000	0.010824  
1298.000000	0.010764  
1297.000000	0.010662  
1296.000000	0.010523  
1295.000000	0.010357  
1294.000000	0.010158  
1293.000000	0.009925  
1292.000000	0.009691  
1291.000000	0.009522  
1290.000000	0.009454  
1289.000000	0.009460  
1288.000000	0.009477  
1287.000000	0.009469  
1286.000000	0.009453  
1285.000000	0.009464  
1284.000000	0.009499  
1283.000000	0.009528  
1282.000000	0.009530  
1281.000000	0.009516  
1280.000000	0.009508  
1279.000000	0.009500  
1278.000000	0.009478  
1277.000000	0.009460  
1276.000000	0.009487  
1275.000000	0.009568  
1274.000000	0.009669  
1273.000000	0.009750  
1272.000000	0.009797  
1271.000000	0.009806  
1270.000000	0.009777  
1269.000000	0.009728  
1268.000000	0.009692  
1267.000000	0.009670  
1266.000000	0.009610  
1265.000000	0.009468  
1264.000000	0.009278  
1263.000000	0.009132  
1262.000000	0.009102  
1261.000000	0.009175  
1260.000000	0.009273  
1259.000000	0.009315  
1258.000000	0.009281  
1257.000000	0.009212  
1256.000000	0.009155  
1255.000000	0.009125  
1254.000000	0.009116  
1253.000000	0.009149  
1252.000000	0.009247  
1251.000000	0.009370  
1250.000000	0.009430  
1249.000000	0.009387  
1248.000000	0.009311  
1247.000000	0.009294  
1246.000000	0.009350  
1245.000000	0.009422  
1244.000000	0.009465  
1243.000000	0.009477  
1242.000000	0.009466  
1241.000000	0.009425  
1240.000000	0.009359  
1239.000000	0.009279  
1238.000000	0.009182  
1237.000000	0.009059  
1236.000000	0.008930  
1235.000000	0.008834  
1234.000000	0.008774  
1233.000000	0.008701  
1232.000000	0.008574  
1231.000000	0.008408  
1230.000000	0.008246  
1229.000000	0.008109  
1228.000000	0.007992  
1227.000000	0.007904  
1226.000000	0.007861  
1225.000000	0.007863  
1224.000000	0.007889  
1223.000000	0.007925  
1222.000000	0.007958  
1221.000000	0.007965  
1220.000000	0.007919  
1219.000000	0.007837  
1218.000000	0.007783  
1217.000000	0.007808  
1216.000000	0.007895  
1215.000000	0.007977  
1214.000000	0.007998  
1213.000000	0.007958  
1212.000000	0.007901  
1211.000000	0.007886  
1210.000000	0.007945  
1209.000000	0.008042  
1208.000000	0.008099  
1207.000000	0.008077  
1206.000000	0.008024  
1205.000000	0.008024  
1204.000000	0.008095  
1203.000000	0.008170  
1202.000000	0.008197  
1201.000000	0.008194  
1200.000000	0.008217  
1199.000000	0.008296  
1198.000000	0.008424  
1197.000000	0.008590  
1196.000000	0.008773  
1195.000000	0.008957  
1194.000000	0.009148  
1193.000000	0.009369  
1192.000000	0.009603  
1191.000000	0.009775  
1190.000000	0.009834  
1189.000000	0.009821  
1188.000000	0.009827  
1187.000000	0.009891  
1186.000000	0.010001  
1185.000000	0.010152  
1184.000000	0.010352  
1183.000000	0.010589  
1182.000000	0.010830  
1181.000000	0.011060  
1180.000000	0.011285  
1179.000000	0.011495  
1178.000000	0.011669  
1177.000000	0.011818  
1176.000000	0.011984  
1175.000000	0.012175  
1174.000000	0.012358  
1173.000000	0.012512  
1172.000000	0.012639  
1171.000000	0.012733  
1170.000000	0.012764  
1169.000000	0.012712  
1168.000000	0.012588  
1167.000000	0.012420  
1166.000000	0.012236  
1165.000000	0.012058  
1164.000000	0.011883  
1163.000000	0.011677  
1162.000000	0.011426  
1161.000000	0.011203  
1160.000000	0.011108  
1159.000000	0.011154  
1158.000000	0.011236  
1157.000000	0.011237  
1156.000000	0.011118  
1155.000000	0.010904  
1154.000000	0.010631  
1153.000000	0.010338  
1152.000000	0.010064  
1151.000000	0.009831  
1150.000000	0.009651  
1149.000000	0.009550  
1148.000000	0.009551  
1147.000000	0.009613  
1146.000000	0.009630  
1145.000000	0.009528  
1144.000000	0.009317  
1143.000000	0.009056  
1142.000000	0.008788  
1141.000000	0.008540  
1140.000000	0.008333  
1139.000000	0.008170  
1138.000000	0.008047  
1137.000000	0.007976  
1136.000000	0.007957  
1135.000000	0.007928  
1134.000000	0.007808  
1133.000000	0.007606  
1132.000000	0.007441  
1131.000000	0.007401  
1130.000000	0.007454  
1129.000000	0.007533  
1128.000000	0.007623  
1127.000000	0.007733  
1126.000000	0.007822  
1125.000000	0.007845  
1124.000000	0.007824  
1123.000000	0.007805  
1122.000000	0.007785  
1121.000000	0.007738  
1120.000000	0.007683  
1119.000000	0.007662  
1118.000000	0.007680  
1117.000000	0.007716  
1116.000000	0.007768  
1115.000000	0.007834  
1114.000000	0.007864  
1113.000000	0.007803  
1112.000000	0.007671  
1111.000000	0.007535  
1110.000000	0.007415  
1109.000000	0.007284  
1108.000000	0.007167  
1107.000000	0.007140  
1106.000000	0.007229  
1105.000000	0.007341  
1104.000000	0.007364  
1103.000000	0.007282  
1102.000000	0.007187  
1101.000000	0.007191  
1100.000000	0.007327  
1099.000000	0.007523  
1098.000000	0.007666  
1097.000000	0.007722  
1096.000000	0.007761  
1095.000000	0.007845  
1094.000000	0.007928  
1093.000000	0.007922  
1092.000000	0.007823  
1091.000000	0.007712  
1090.000000	0.007630  
1089.000000	0.007536  
1088.000000	0.007406  
1087.000000	0.007293  
1086.000000	0.007264  
1085.000000	0.007322  
1084.000000	0.007413  
1083.000000	0.007470  
1082.000000	0.007440  
1081.000000	0.007329  
1080.000000	0.007219  
1079.000000	0.007228  
1078.000000	0.007392  
1077.000000	0.007634  
1076.000000	0.007869  
1075.000000	0.008082  
1074.000000	0.008297  
1073.000000	0.008492  
1072.000000	0.008600  
1071.000000	0.008593  
1070.000000	0.008513  
1069.000000	0.008439  
1068.000000	0.008415  
1067.000000	0.008422  
1066.000000	0.008408  
1065.000000	0.008353  
1064.000000	0.008285  
1063.000000	0.008232  
1062.000000	0.008176  
1061.000000	0.008082  
1060.000000	0.007970  
1059.000000	0.007896  
1058.000000	0.007885  
1057.000000	0.007917  
1056.000000	0.007992  
1055.000000	0.008135  
1054.000000	0.008299  
1053.000000	0.008327  
1052.000000	0.008092  
1051.000000	0.007684  
1050.000000	0.007366  
1049.000000	0.007309  
1048.000000	0.007444  
1047.000000	0.007587  
1046.000000	0.007639  
1045.000000	0.007634  
1044.000000	0.007657  
1043.000000	0.007759  
1042.000000	0.007937  
1041.000000	0.008136  
1040.000000	0.008280  
1039.000000	0.008307  
1038.000000	0.008209  
1037.000000	0.008050  
1036.000000	0.007940  
1035.000000	0.007963  
1034.000000	0.008116  
1033.000000	0.008307  
1032.000000	0.008433  
1031.000000	0.008463  
1030.000000	0.008448  
1029.000000	0.008460  
1028.000000	0.008518  
1027.000000	0.008588  
1026.000000	0.008632  
1025.000000	0.008639  
1024.000000	0.008615  
1023.000000	0.008569  
1022.000000	0.008509  
1021.000000	0.008444  
1020.000000	0.008359  
1019.000000	0.008223  
1018.000000	0.008047  
1017.000000	0.007919  
1016.000000	0.007944  
1015.000000	0.008117  
1014.000000	0.008305  
1013.000000	0.008359  
1012.000000	0.008252  
1011.000000	0.008076  
1010.000000	0.007947  
1009.000000	0.007918  
1008.000000	0.007972  
1007.000000	0.008056  
1006.000000	0.008118  
1005.000000	0.008134  
1004.000000	0.008118  
1003.000000	0.008111  
1002.000000	0.008144  
1001.000000	0.008207  
1000.000000	0.008236  
999.000000	 0.008154  
998.000000	 0.007947  
997.000000	 0.007703  
996.000000	 0.007558  
995.000000	 0.007581  
994.000000	 0.007713  
993.000000	 0.007837  
992.000000	 0.007874  
991.000000	 0.007828  
990.000000	 0.007768  
989.000000	 0.007769  
988.000000	 0.007854  
987.000000	 0.007965  
986.000000	 0.008014  
985.000000	 0.007984  
984.000000	 0.007952  
983.000000	 0.007999  
982.000000	 0.008120  
981.000000	 0.008258  
980.000000	 0.008393  
979.000000	 0.008555  
978.000000	 0.008750  
977.000000	 0.008930  
976.000000	 0.009043  
975.000000	 0.009087  
974.000000	 0.009107  
973.000000	 0.009149  
972.000000	 0.009232  
971.000000	 0.009346  
970.000000	 0.009468  
969.000000	 0.009590  
968.000000	 0.009712  
967.000000	 0.009814  
966.000000	 0.009833  
965.000000	 0.009724  
964.000000	 0.009520  
963.000000	 0.009326  
962.000000	 0.009228  
961.000000	 0.009222  
960.000000	 0.009234  
959.000000	 0.009199  
958.000000	 0.009120  
957.000000	 0.009060  
956.000000	 0.009073  
955.000000	 0.009141  
954.000000	 0.009179  
953.000000	 0.009127  
952.000000	 0.009018  
951.000000	 0.008951  
950.000000	 0.008975  
949.000000	 0.009041  
948.000000	 0.009071  
947.000000	 0.009060  
946.000000	 0.009078  
945.000000	 0.009186  
944.000000	 0.009364  
943.000000	 0.009531  
942.000000	 0.009609  
941.000000	 0.009572  
940.000000	 0.009440  
939.000000	 0.009245  
938.000000	 0.009023  
937.000000	 0.008814  
936.000000	 0.008643  
935.000000	 0.008514  
934.000000	 0.008422  
933.000000	 0.008382  
932.000000	 0.008419  
931.000000	 0.008505  
930.000000	 0.008547  
929.000000	 0.008473  
928.000000	 0.008328  
927.000000	 0.008239  
926.000000	 0.008286  
925.000000	 0.008431  
924.000000	 0.008572  
923.000000	 0.008651  
922.000000	 0.008678  
921.000000	 0.008673  
920.000000	 0.008625  
919.000000	 0.008507  
918.000000	 0.008349  
917.000000	 0.008246  
916.000000	 0.008275  
915.000000	 0.008410  
914.000000	 0.008521  
913.000000	 0.008500  
912.000000	 0.008359  
911.000000	 0.008210  
910.000000	 0.008166  
909.000000	 0.008262  
908.000000	 0.008439  
907.000000	 0.008572  
906.000000	 0.008537  
905.000000	 0.008321  
904.000000	 0.008062  
903.000000	 0.007940  
902.000000	 0.008011  
901.000000	 0.008174  
900.000000	 0.008311  
899.000000	 0.008413  
898.000000	 0.008545  
897.000000	 0.008736  
896.000000	 0.008938  
895.000000	 0.009082  
894.000000	 0.009148  
893.000000	 0.009158  
892.000000	 0.009155  
891.000000	 0.009178  
890.000000	 0.009250  
889.000000	 0.009354  
888.000000	 0.009442  
887.000000	 0.009461  
886.000000	 0.009398  
885.000000	 0.009279  
884.000000	 0.009134  
883.000000	 0.008985  
882.000000	 0.008858  
881.000000	 0.008791  
880.000000	 0.008796  
879.000000	 0.008832  
878.000000	 0.008837  
877.000000	 0.008796  
876.000000	 0.008752  
875.000000	 0.008741  
874.000000	 0.008727  
873.000000	 0.008632  
872.000000	 0.008419  
871.000000	 0.008153  
870.000000	 0.007986  
869.000000	 0.008057  
868.000000	 0.008357  
867.000000	 0.008696  
866.000000	 0.008836  
865.000000	 0.008689  
864.000000	 0.008384  
863.000000	 0.008123  
862.000000	 0.008007  
861.000000	 0.008021  
860.000000	 0.008111  
859.000000	 0.008232  
858.000000	 0.008327  
857.000000	 0.008365  
856.000000	 0.008395  
855.000000	 0.008522  
854.000000	 0.008801  
853.000000	 0.009170  
852.000000	 0.009522  
851.000000	 0.009797  
850.000000	 0.009984  
849.000000	 0.010066  
848.000000	 0.010016  
847.000000	 0.009845  
846.000000	 0.009622  
845.000000	 0.009432  
844.000000	 0.009311  
843.000000	 0.009231  
842.000000	 0.009146  
841.000000	 0.009041  
840.000000	 0.008943  
839.000000	 0.008893  
838.000000	 0.008906  
837.000000	 0.008944  
836.000000	 0.008916  
835.000000	 0.008725  
834.000000	 0.008364  
833.000000	 0.007964  
832.000000	 0.007713  
831.000000	 0.007694  
830.000000	 0.007825  
829.000000	 0.007986  
828.000000	 0.008170  
827.000000	 0.008450  
826.000000	 0.008816  
825.000000	 0.009125  
824.000000	 0.009255  
823.000000	 0.009233  
822.000000	 0.009170  
821.000000	 0.009147  
820.000000	 0.009200  
819.000000	 0.009362  
818.000000	 0.009658  
817.000000	 0.010065  
816.000000	 0.010486  
815.000000	 0.010785  
814.000000	 0.010859  
813.000000	 0.010709  
812.000000	 0.010468  
811.000000	 0.010341  
810.000000	 0.010478  
809.000000	 0.010888  
808.000000	 0.011427  
807.000000	 0.011883  
806.000000	 0.012082  
805.000000	 0.011972  
804.000000	 0.011621  
803.000000	 0.011153  
802.000000	 0.010673  
801.000000	 0.010247  
800.000000	 0.009904  
799.000000	 0.009633  
798.000000	 0.009389  
797.000000	 0.009145  
796.000000	 0.008919  
795.000000	 0.008737  
794.000000	 0.008582  
793.000000	 0.008431  
792.000000	 0.008333  
791.000000	 0.008386  
790.000000	 0.008585  
789.000000	 0.008780  
788.000000	 0.008826  
787.000000	 0.008763  
786.000000	 0.008790  
785.000000	 0.009054  
784.000000	 0.009505  
783.000000	 0.009975  
782.000000	 0.010360  
781.000000	 0.010685  
780.000000	 0.011010  
779.000000	 0.011334  
778.000000	 0.011617  
777.000000	 0.011860  
776.000000	 0.012129  
775.000000	 0.012468  
774.000000	 0.012841  
773.000000	 0.013184  
772.000000	 0.013490  
771.000000	 0.013806  
770.000000	 0.014144  
769.000000	 0.014438  
768.000000	 0.014602  
767.000000	 0.014597  
766.000000	 0.014418  
765.000000	 0.014067  
764.000000	 0.013585  
763.000000	 0.013108  
762.000000	 0.012813  
761.000000	 0.012764  
760.000000	 0.012848  
759.000000	 0.012900  
758.000000	 0.012883  
757.000000	 0.012918  
756.000000	 0.013115  
755.000000	 0.013429  
754.000000	 0.013705  
753.000000	 0.013836  
752.000000	 0.013856  
751.000000	 0.013876  
750.000000	 0.013982  
749.000000	 0.014191  
748.000000	 0.014496  
747.000000	 0.014942  
746.000000	 0.015655  
745.000000	 0.016768  
744.000000	 0.018261  
743.000000	 0.019858  
742.000000	 0.021139  
741.000000	 0.021796  
740.000000	 0.021829  
739.000000	 0.021485  
738.000000	 0.021028  
737.000000	 0.020566  
736.000000	 0.020083  
735.000000	 0.019566  
734.000000	 0.019108  
733.000000	 0.018873  
732.000000	 0.018964  
731.000000	 0.019316  
730.000000	 0.019778  
729.000000	 0.020305  
728.000000	 0.021015  
727.000000	 0.022017  
726.000000	 0.023228  
725.000000	 0.024411  
724.000000	 0.025366  
723.000000	 0.026013  
722.000000	 0.026278  
721.000000	 0.025957  
720.000000	 0.024847  
719.000000	 0.023033  
718.000000	 0.020939  
717.000000	 0.019044  
716.000000	 0.017613  
715.000000	 0.016607  
714.000000	 0.015768  
713.000000	 0.014858  
712.000000	 0.013869  
711.000000	 0.013000  
710.000000	 0.012449  
709.000000	 0.012241  
708.000000	 0.012242  
707.000000	 0.012307  
706.000000	 0.012417  
705.000000	 0.012659  
704.000000	 0.013055  
703.000000	 0.013468  
702.000000	 0.013718  
701.000000	 0.013774  
700.000000	 0.013783  
699.000000	 0.013838  
698.000000	 0.013788  
697.000000	 0.013371  
696.000000	 0.012567  
695.000000	 0.011728  
694.000000	 0.011233  
693.000000	 0.011047  
692.000000	 0.010746  
691.000000	 0.009997  
690.000000	 0.008946  
689.000000	 0.008030  
688.000000	 0.007448  
687.000000	 0.006995  
686.000000	 0.006441  
685.000000	 0.005874  
684.000000	 0.005540  
683.000000	 0.005518  
682.000000	 0.005711  
681.000000	 0.006000  
680.000000	 0.006259  
679.000000	 0.006296  
678.000000	 0.006028  
677.000000	 0.005676  
676.000000	 0.005463  
675.000000	 0.005345  
674.000000	 0.005194  
673.000000	 0.005006  
672.000000	 0.004625  
671.000000	 0.003388  
670.000000	 0.000614  
669.000000	 -0.003661 
668.000000	 -0.007017 
667.000000	 -0.005594 
666.000000	 -0.001203 
665.000000	 0.002320  
664.000000	 0.004173  
663.000000	 0.004985  
662.000000	 0.005276  
661.000000	 0.005169  
660.000000	 0.004855  
659.000000	 0.004729  
658.000000	 0.004870  
657.000000	 0.004859  
656.000000	 0.004274  
655.000000	 0.003324  
654.000000	 0.002700  
653.000000	 0.002824  
652.000000	 0.003467  
651.000000	 0.004076  
650.000000	 0.004322  

