PE IR                   SPECTRUM    ASCII       PEDS        1.60        
  -1
NB4-25~2.ASC
17/04/10
13:50:08.00
17/04/10
13:50:08.00
Admin

650.000000
6









SPECTRUM ONE,CPU32 MAIN 00.02.5000 17-APRIL-2002 13:00:00
MIR TGS
MIR
OPTKBR
68128
0.200000

4.000000
STRONG
RATIO
SPECTRUM
MAGNITUDE

DOUBLE

COMBINED


0


#HDR
-1
-1
#GR
CM-1
A
0.00000011920928955078
0.0
4000.000000
-1.000000
3351
8
0.207056
-0.016610
#DATA
4000.000000	0.001146  
3999.000000	0.001166  
3998.000000	0.001310  
3997.000000	0.001557  
3996.000000	0.001838  
3995.000000	0.002065  
3994.000000	0.001827  
3993.000000	0.001820  
3992.000000	0.001743  
3991.000000	0.001656  
3990.000000	0.001595  
3989.000000	0.001553  
3988.000000	0.001488  
3987.000000	0.001373  
3986.000000	0.001256  
3985.000000	0.001223  
3984.000000	0.001304  
3983.000000	0.001414  
3982.000000	0.001426  
3981.000000	0.001296  
3980.000000	0.001108  
3979.000000	0.000994  
3978.000000	0.001016  
3977.000000	0.001138  
3976.000000	0.001277  
3975.000000	0.001375  
3974.000000	0.001405  
3973.000000	0.001368  
3972.000000	0.001284  
3971.000000	0.001201  
3970.000000	0.001183  
3969.000000	0.001247  
3968.000000	0.001344  
3967.000000	0.001392  
3966.000000	0.001370  
3965.000000	0.001340  
3964.000000	0.001386  
3963.000000	0.001520  
3962.000000	0.001661  
3961.000000	0.001714  
3960.000000	0.001661  
3959.000000	0.001558  
3958.000000	0.001476  
3957.000000	0.001442  
3956.000000	0.001423  
3955.000000	0.001376  
3954.000000	0.001297  
3953.000000	0.001226  
3952.000000	0.001216  
3951.000000	0.001287  
3950.000000	0.001421  
3949.000000	0.001573  
3948.000000	0.001690  
3947.000000	0.001735  
3946.000000	0.001689  
3945.000000	0.001565  
3944.000000	0.001415  
3943.000000	0.001306  
3942.000000	0.001275  
3941.000000	0.001316  
3940.000000	0.001406  
3939.000000	0.001523  
3938.000000	0.001645  
3937.000000	0.001739  
3936.000000	0.001775  
3935.000000	0.001753  
3934.000000	0.001712  
3933.000000	0.001697  
3932.000000	0.001710  
3931.000000	0.001718  
3930.000000	0.001696  
3929.000000	0.001656  
3928.000000	0.001639  
3927.000000	0.001678  
3926.000000	0.001767  
3925.000000	0.001868  
3924.000000	0.001956  
3923.000000	0.002034  
3922.000000	0.002119  
3921.000000	0.002210  
3920.000000	0.002284  
3919.000000	0.002302  
3918.000000	0.002227  
3917.000000	0.002058  
3916.000000	0.001852  
3915.000000	0.001686  
3914.000000	0.001594  
3913.000000	0.001551  
3912.000000	0.001507  
3911.000000	0.001435  
3910.000000	0.001367  
3909.000000	0.001371  
3908.000000	0.001494  
3907.000000	0.001720  
3906.000000	0.001967  
3905.000000	0.002135  
3904.000000	0.002172  
3903.000000	0.002088  
3902.000000	0.001945  
3901.000000	0.001813  
3900.000000	0.001741  
3899.000000	0.001736  
3898.000000	0.001761  
3897.000000	0.001761  
3896.000000	0.001710  
3895.000000	0.001630  
3894.000000	0.001582  
3893.000000	0.001608  
3892.000000	0.001667  
3891.000000	0.001670  
3890.000000	0.001617  
3889.000000	0.001597  
3888.000000	0.001665  
3887.000000	0.001773  
3886.000000	0.001835  
3885.000000	0.001822  
3884.000000	0.001785  
3883.000000	0.001775  
3882.000000	0.001796  
3881.000000	0.001813  
3880.000000	0.001792  
3879.000000	0.001758  
3878.000000	0.001777  
3877.000000	0.001861  
3876.000000	0.001944  
3875.000000	0.001981  
3874.000000	0.002017  
3873.000000	0.002139  
3872.000000	0.002363  
3871.000000	0.002590  
3870.000000	0.002706  
3869.000000	0.002711  
3868.000000	0.002689  
3867.000000	0.002647  
3866.000000	0.002492  
3865.000000	0.002212  
3864.000000	0.001941  
3863.000000	0.001812  
3862.000000	0.001825  
3861.000000	0.001872  
3860.000000	0.001843  
3859.000000	0.001716  
3858.000000	0.001560  
3857.000000	0.001482  
3856.000000	0.001512  
3855.000000	0.001555  
3854.000000	0.001566  
3853.000000	0.001543  
3852.000000	0.001544  
3851.000000	0.001670  
3850.000000	0.001907  
3849.000000	0.002177  
3848.000000	0.002425  
3847.000000	0.002623  
3846.000000	0.002765  
3845.000000	0.002896  
3844.000000	0.003062  
3843.000000	0.003255  
3842.000000	0.003422  
3841.000000	0.003494  
3840.000000	0.003415  
3839.000000	0.003169  
3838.000000	0.002811  
3837.000000	0.002479  
3836.000000	0.002306  
3835.000000	0.002337  
3834.000000	0.002507  
3833.000000	0.002674  
3832.000000	0.002714  
3831.000000	0.002635  
3830.000000	0.002547  
3829.000000	0.002529  
3828.000000	0.002532  
3827.000000	0.002453  
3826.000000	0.002305  
3825.000000	0.002274  
3824.000000	0.002523  
3823.000000	0.003000  
3822.000000	0.003429  
3821.000000	0.003508  
3820.000000	0.003199  
3819.000000	0.002732  
3818.000000	0.002324  
3817.000000	0.002023  
3816.000000	0.001800  
3815.000000	0.001658  
3814.000000	0.001613  
3813.000000	0.001622  
3812.000000	0.001619  
3811.000000	0.001601  
3810.000000	0.001622  
3809.000000	0.001710  
3808.000000	0.001830  
3807.000000	0.001931  
3806.000000	0.002044  
3805.000000	0.002243  
3804.000000	0.002503  
3803.000000	0.002653  
3802.000000	0.002531  
3801.000000	0.002207  
3800.000000	0.001958  
3799.000000	0.001969  
3798.000000	0.002181  
3797.000000	0.002411  
3796.000000	0.002527  
3795.000000	0.002519  
3794.000000	0.002451  
3793.000000	0.002354  
3792.000000	0.002227  
3791.000000	0.002064  
3790.000000	0.001883  
3789.000000	0.001721  
3788.000000	0.001631  
3787.000000	0.001647  
3786.000000	0.001745  
3785.000000	0.001854  
3784.000000	0.001914  
3783.000000	0.001926  
3782.000000	0.001903  
3781.000000	0.001845  
3780.000000	0.001758  
3779.000000	0.001677  
3778.000000	0.001647  
3777.000000	0.001682  
3776.000000	0.001734  
3775.000000	0.001737  
3774.000000	0.001689  
3773.000000	0.001653  
3772.000000	0.001692  
3771.000000	0.001821  
3770.000000	0.002020  
3769.000000	0.002228  
3768.000000	0.002345  
3767.000000	0.002269  
3766.000000	0.001971  
3765.000000	0.001593  
3764.000000	0.001372  
3763.000000	0.001435  
3762.000000	0.001699  
3761.000000	0.001975  
3760.000000	0.002166  
3759.000000	0.002301  
3758.000000	0.002416  
3757.000000	0.002481  
3756.000000	0.002464  
3755.000000	0.002429  
3754.000000	0.002566  
3753.000000	0.003084  
3752.000000	0.003918  
3751.000000	0.004532  
3750.000000	0.004413  
3749.000000	0.003734  
3748.000000	0.003061  
3747.000000	0.002797  
3746.000000	0.002965  
3745.000000	0.003250  
3744.000000	0.003338  
3743.000000	0.003297  
3742.000000	0.003337  
3741.000000	0.003496  
3740.000000	0.003742  
3739.000000	0.004063  
3738.000000	0.004402  
3737.000000	0.004643  
3736.000000	0.004704  
3735.000000	0.004605  
3734.000000	0.004446  
3733.000000	0.004278  
3732.000000	0.004091  
3731.000000	0.003934  
3730.000000	0.003900  
3729.000000	0.003986  
3728.000000	0.004062  
3727.000000	0.003996  
3726.000000	0.003810  
3725.000000	0.003634  
3724.000000	0.003517  
3723.000000	0.003380  
3722.000000	0.003132  
3721.000000	0.002783  
3720.000000	0.002430  
3719.000000	0.002162  
3718.000000	0.002001  
3717.000000	0.001921  
3716.000000	0.001879  
3715.000000	0.001846  
3714.000000	0.001841  
3713.000000	0.001972  
3712.000000	0.002316  
3711.000000	0.002726  
3710.000000	0.002955  
3709.000000	0.002954  
3708.000000	0.002875  
3707.000000	0.002879  
3706.000000	0.002977  
3705.000000	0.003013  
3704.000000	0.002818  
3703.000000	0.002402  
3702.000000	0.001987  
3701.000000	0.001788  
3700.000000	0.001831  
3699.000000	0.001986  
3698.000000	0.002103  
3697.000000	0.002146  
3696.000000	0.002208  
3695.000000	0.002392  
3694.000000	0.002656  
3693.000000	0.002829  
3692.000000	0.002768  
3691.000000	0.002529  
3690.000000	0.002316  
3689.000000	0.002238  
3688.000000	0.002215  
3687.000000	0.002174  
3686.000000	0.002110  
3685.000000	0.002064  
3684.000000	0.002105  
3683.000000	0.002257  
3682.000000	0.002435  
3681.000000	0.002482  
3680.000000	0.002341  
3679.000000	0.002148  
3678.000000	0.002117  
3677.000000	0.002323  
3676.000000	0.002642  
3675.000000	0.002857  
3674.000000	0.002970  
3673.000000	0.003144  
3672.000000	0.003404  
3671.000000	0.003605  
3670.000000	0.003617  
3669.000000	0.003444  
3668.000000	0.003181  
3667.000000	0.002916  
3666.000000	0.002661  
3665.000000	0.002378  
3664.000000	0.002033  
3663.000000	0.001631  
3662.000000	0.001228  
3661.000000	0.000912  
3660.000000	0.000754  
3659.000000	0.000779  
3658.000000	0.000971  
3657.000000	0.001271  
3656.000000	0.001599  
3655.000000	0.001898  
3654.000000	0.002142  
3653.000000	0.002280  
3652.000000	0.002261  
3651.000000	0.002167  
3650.000000	0.002191  
3649.000000	0.002356  
3648.000000	0.002509  
3647.000000	0.002575  
3646.000000	0.002585  
3645.000000	0.002588  
3644.000000	0.002617  
3643.000000	0.002685  
3642.000000	0.002783  
3641.000000	0.002882  
3640.000000	0.002936  
3639.000000	0.002904  
3638.000000	0.002799  
3637.000000	0.002706  
3636.000000	0.002720  
3635.000000	0.002863  
3634.000000	0.003066  
3633.000000	0.003253  
3632.000000	0.003411  
3631.000000	0.003581  
3630.000000	0.003794  
3629.000000	0.003950  
3628.000000	0.003870  
3627.000000	0.003584  
3626.000000	0.003264  
3625.000000	0.003009  
3624.000000	0.002842  
3623.000000	0.002724  
3622.000000	0.002586  
3621.000000	0.002389  
3620.000000	0.002206  
3619.000000	0.002139  
3618.000000	0.002187  
3617.000000	0.002296  
3616.000000	0.002428  
3615.000000	0.002584  
3614.000000	0.002782  
3613.000000	0.003015  
3612.000000	0.003240  
3611.000000	0.003425  
3610.000000	0.003536  
3609.000000	0.003514  
3608.000000	0.003315  
3607.000000	0.002966  
3606.000000	0.002586  
3605.000000	0.002307  
3604.000000	0.002218  
3603.000000	0.002344  
3602.000000	0.002631  
3601.000000	0.002970  
3600.000000	0.003268  
3599.000000	0.003490  
3598.000000	0.003628  
3597.000000	0.003664  
3596.000000	0.003580  
3595.000000	0.003407  
3594.000000	0.003211  
3593.000000	0.003033  
3592.000000	0.002859  
3591.000000	0.002668  
3590.000000	0.002505  
3589.000000	0.002489  
3588.000000	0.002682  
3587.000000	0.002952  
3586.000000	0.003108  
3585.000000	0.003088  
3584.000000	0.002939  
3583.000000	0.002738  
3582.000000	0.002566  
3581.000000	0.002496  
3580.000000	0.002545  
3579.000000	0.002638  
3578.000000	0.002657  
3577.000000	0.002544  
3576.000000	0.002357  
3575.000000	0.002192  
3574.000000	0.002069  
3573.000000	0.001921  
3572.000000	0.001696  
3571.000000	0.001463  
3570.000000	0.001399  
3569.000000	0.001652  
3568.000000	0.002164  
3567.000000	0.002627  
3566.000000	0.002801  
3565.000000	0.002742  
3564.000000	0.002624  
3563.000000	0.002510  
3562.000000	0.002379  
3561.000000	0.002245  
3560.000000	0.002192  
3559.000000	0.002286  
3558.000000	0.002474  
3557.000000	0.002615  
3556.000000	0.002609  
3555.000000	0.002474  
3554.000000	0.002307  
3553.000000	0.002196  
3552.000000	0.002163  
3551.000000	0.002180  
3550.000000	0.002201  
3549.000000	0.002174  
3548.000000	0.002089  
3547.000000	0.002015  
3546.000000	0.002058  
3545.000000	0.002247  
3544.000000	0.002485  
3543.000000	0.002655  
3542.000000	0.002734  
3541.000000	0.002788  
3540.000000	0.002862  
3539.000000	0.002904  
3538.000000	0.002820  
3537.000000	0.002597  
3536.000000	0.002350  
3535.000000	0.002227  
3534.000000	0.002284  
3533.000000	0.002455  
3532.000000	0.002641  
3531.000000	0.002790  
3530.000000	0.002893  
3529.000000	0.002945  
3528.000000	0.002921  
3527.000000	0.002817  
3526.000000	0.002671  
3525.000000	0.002536  
3524.000000	0.002441  
3523.000000	0.002398  
3522.000000	0.002412  
3521.000000	0.002462  
3520.000000	0.002501  
3519.000000	0.002495  
3518.000000	0.002466  
3517.000000	0.002475  
3516.000000	0.002550  
3515.000000	0.002662  
3514.000000	0.002773  
3513.000000	0.002875  
3512.000000	0.002982  
3511.000000	0.003088  
3510.000000	0.003159  
3509.000000	0.003157  
3508.000000	0.003074  
3507.000000	0.002957  
3506.000000	0.002874  
3505.000000	0.002876  
3504.000000	0.002955  
3503.000000	0.003055  
3502.000000	0.003129  
3501.000000	0.003168  
3500.000000	0.003178  
3499.000000	0.003161  
3498.000000	0.003128  
3497.000000	0.003101  
3496.000000	0.003099  
3495.000000	0.003118  
3494.000000	0.003139  
3493.000000	0.003129  
3492.000000	0.003038  
3491.000000	0.002850  
3490.000000	0.002635  
3489.000000	0.002524  
3488.000000	0.002609  
3487.000000	0.002873  
3486.000000	0.003225  
3485.000000	0.003567  
3484.000000	0.003815  
3483.000000	0.003887  
3482.000000	0.003760  
3481.000000	0.003519  
3480.000000	0.003312  
3479.000000	0.003232  
3478.000000	0.003261  
3477.000000	0.003313  
3476.000000	0.003327  
3475.000000	0.003305  
3474.000000	0.003293  
3473.000000	0.003328  
3472.000000	0.003390  
3471.000000	0.003414  
3470.000000	0.003356  
3469.000000	0.003240  
3468.000000	0.003147  
3467.000000	0.003138  
3466.000000	0.003211  
3465.000000	0.003304  
3464.000000	0.003336  
3463.000000	0.003260  
3462.000000	0.003104  
3461.000000	0.002964  
3460.000000	0.002922  
3459.000000	0.002979  
3458.000000	0.003074  
3457.000000	0.003168  
3456.000000	0.003265  
3455.000000	0.003374  
3454.000000	0.003479  
3453.000000	0.003568  
3452.000000	0.003642  
3451.000000	0.003693  
3450.000000	0.003694  
3449.000000	0.003643  
3448.000000	0.003598  
3447.000000	0.003629  
3446.000000	0.003748  
3445.000000	0.003900  
3444.000000	0.004011  
3443.000000	0.004041  
3442.000000	0.004004  
3441.000000	0.003958  
3440.000000	0.003967  
3439.000000	0.004045  
3438.000000	0.004131  
3437.000000	0.004122  
3436.000000	0.003962  
3435.000000	0.003699  
3434.000000	0.003476  
3433.000000	0.003428  
3432.000000	0.003576  
3431.000000	0.003805  
3430.000000	0.003953  
3429.000000	0.003938  
3428.000000	0.003791  
3427.000000	0.003602  
3426.000000	0.003453  
3425.000000	0.003399  
3424.000000	0.003461  
3423.000000	0.003614  
3422.000000	0.003791  
3421.000000	0.003923  
3420.000000	0.003986  
3419.000000	0.003998  
3418.000000	0.003987  
3417.000000	0.003975  
3416.000000	0.003968  
3415.000000	0.003965  
3414.000000	0.003962  
3413.000000	0.003975  
3412.000000	0.004031  
3411.000000	0.004133  
3410.000000	0.004232  
3409.000000	0.004250  
3408.000000	0.004141  
3407.000000	0.003931  
3406.000000	0.003718  
3405.000000	0.003607  
3404.000000	0.003645  
3403.000000	0.003797  
3402.000000	0.003995  
3401.000000	0.004189  
3400.000000	0.004352  
3399.000000	0.004445  
3398.000000	0.004444  
3397.000000	0.004394  
3396.000000	0.004400  
3395.000000	0.004530  
3394.000000	0.004732  
3393.000000	0.004882  
3392.000000	0.004890  
3391.000000	0.004771  
3390.000000	0.004612  
3389.000000	0.004499  
3388.000000	0.004453  
3387.000000	0.004424  
3386.000000	0.004352  
3385.000000	0.004247  
3384.000000	0.004203  
3383.000000	0.004300  
3382.000000	0.004511  
3381.000000	0.004724  
3380.000000	0.004849  
3379.000000	0.004860  
3378.000000	0.004755  
3377.000000	0.004527  
3376.000000	0.004200  
3375.000000	0.003880  
3374.000000	0.003703  
3373.000000	0.003731  
3372.000000	0.003911  
3371.000000	0.004148  
3370.000000	0.004394  
3369.000000	0.004647  
3368.000000	0.004893  
3367.000000	0.005072  
3366.000000	0.005137  
3365.000000	0.005108  
3364.000000	0.005050  
3363.000000	0.005002  
3362.000000	0.004968  
3361.000000	0.004953  
3360.000000	0.004968  
3359.000000	0.004990  
3358.000000	0.004957  
3357.000000	0.004840  
3356.000000	0.004704  
3355.000000	0.004636  
3354.000000	0.004642  
3353.000000	0.004649  
3352.000000	0.004606  
3351.000000	0.004533  
3350.000000	0.004480  
3349.000000	0.004475  
3348.000000	0.004528  
3347.000000	0.004649  
3346.000000	0.004812  
3345.000000	0.004940  
3344.000000	0.004960  
3343.000000	0.004884  
3342.000000	0.004801  
3341.000000	0.004781  
3340.000000	0.004796  
3339.000000	0.004763  
3338.000000	0.004649  
3337.000000	0.004517  
3336.000000	0.004468  
3335.000000	0.004536  
3334.000000	0.004658  
3333.000000	0.004745  
3332.000000	0.004753  
3331.000000	0.004701  
3330.000000	0.004648  
3329.000000	0.004645  
3328.000000	0.004711  
3327.000000	0.004802  
3326.000000	0.004842  
3325.000000	0.004795  
3324.000000	0.004714  
3323.000000	0.004690  
3322.000000	0.004758  
3321.000000	0.004863  
3320.000000	0.004943  
3319.000000	0.005002  
3318.000000	0.005080  
3317.000000	0.005182  
3316.000000	0.005244  
3315.000000	0.005204  
3314.000000	0.005075  
3313.000000	0.004936  
3312.000000	0.004870  
3311.000000	0.004901  
3310.000000	0.004989  
3309.000000	0.005056  
3308.000000	0.005028  
3307.000000	0.004883  
3306.000000	0.004706  
3305.000000	0.004653  
3304.000000	0.004824  
3303.000000	0.005156  
3302.000000	0.005465  
3301.000000	0.005611  
3300.000000	0.005577  
3299.000000	0.005421  
3298.000000	0.005206  
3297.000000	0.005001  
3296.000000	0.004894  
3295.000000	0.004917  
3294.000000	0.004999  
3293.000000	0.005044  
3292.000000	0.005053  
3291.000000	0.005097  
3290.000000	0.005188  
3289.000000	0.005250  
3288.000000	0.005226  
3287.000000	0.005148  
3286.000000	0.005067  
3285.000000	0.004973  
3284.000000	0.004829  
3283.000000	0.004654  
3282.000000	0.004530  
3281.000000	0.004519  
3280.000000	0.004603  
3279.000000	0.004720  
3278.000000	0.004812  
3277.000000	0.004872  
3276.000000	0.004938  
3275.000000	0.005058  
3274.000000	0.005240  
3273.000000	0.005429  
3272.000000	0.005547  
3271.000000	0.005545  
3270.000000	0.005430  
3269.000000	0.005251  
3268.000000	0.005053  
3267.000000	0.004859  
3266.000000	0.004697  
3265.000000	0.004614  
3264.000000	0.004661  
3263.000000	0.004821  
3262.000000	0.005006  
3261.000000	0.005139  
3260.000000	0.005235  
3259.000000	0.005351  
3258.000000	0.005480  
3257.000000	0.005529  
3256.000000	0.005429  
3255.000000	0.005233  
3254.000000	0.005092  
3253.000000	0.005130  
3252.000000	0.005331  
3251.000000	0.005543  
3250.000000	0.005599  
3249.000000	0.005470  
3248.000000	0.005292  
3247.000000	0.005212  
3246.000000	0.005233  
3245.000000	0.005252  
3244.000000	0.005231  
3243.000000	0.005236  
3242.000000	0.005311  
3241.000000	0.005384  
3240.000000	0.005355  
3239.000000	0.005205  
3238.000000	0.004991  
3237.000000	0.004765  
3236.000000	0.004568  
3235.000000	0.004448  
3234.000000	0.004443  
3233.000000	0.004541  
3232.000000	0.004703  
3231.000000	0.004890  
3230.000000	0.005052  
3229.000000	0.005123  
3228.000000	0.005083  
3227.000000	0.005005  
3226.000000	0.004977  
3225.000000	0.005009  
3224.000000	0.005048  
3223.000000	0.005061  
3222.000000	0.005052  
3221.000000	0.005015  
3220.000000	0.004939  
3219.000000	0.004860  
3218.000000	0.004846  
3217.000000	0.004915  
3216.000000	0.005016  
3215.000000	0.005099  
3214.000000	0.005169  
3213.000000	0.005237  
3212.000000	0.005279  
3211.000000	0.005254  
3210.000000	0.005155  
3209.000000	0.005022  
3208.000000	0.004923  
3207.000000	0.004917  
3206.000000	0.005009  
3205.000000	0.005136  
3204.000000	0.005233  
3203.000000	0.005300  
3202.000000	0.005374  
3201.000000	0.005432  
3200.000000	0.005382  
3199.000000	0.005165  
3198.000000	0.004838  
3197.000000	0.004524  
3196.000000	0.004302  
3195.000000	0.004186  
3194.000000	0.004169  
3193.000000	0.004243  
3192.000000	0.004378  
3191.000000	0.004548  
3190.000000	0.004746  
3189.000000	0.004966  
3188.000000	0.005164  
3187.000000	0.005266  
3186.000000	0.005248  
3185.000000	0.005172  
3184.000000	0.005112  
3183.000000	0.005078  
3182.000000	0.005021  
3181.000000	0.004909  
3180.000000	0.004775  
3179.000000	0.004678  
3178.000000	0.004639  
3177.000000	0.004646  
3176.000000	0.004692  
3175.000000	0.004779  
3174.000000	0.004874  
3173.000000	0.004900  
3172.000000	0.004809  
3171.000000	0.004642  
3170.000000	0.004506  
3169.000000	0.004490  
3168.000000	0.004598  
3167.000000	0.004766  
3166.000000	0.004911  
3165.000000	0.004980  
3164.000000	0.004966  
3163.000000	0.004899  
3162.000000	0.004809  
3161.000000	0.004721  
3160.000000	0.004665  
3159.000000	0.004676  
3158.000000	0.004759  
3157.000000	0.004877  
3156.000000	0.004975  
3155.000000	0.005031  
3154.000000	0.005062  
3153.000000	0.005101  
3152.000000	0.005156  
3151.000000	0.005186  
3150.000000	0.005120  
3149.000000	0.004932  
3148.000000	0.004691  
3147.000000	0.004505  
3146.000000	0.004416  
3145.000000	0.004375  
3144.000000	0.004336  
3143.000000	0.004319  
3142.000000	0.004356  
3141.000000	0.004413  
3140.000000	0.004436  
3139.000000	0.004440  
3138.000000	0.004494  
3137.000000	0.004605  
3136.000000	0.004689  
3135.000000	0.004661  
3134.000000	0.004531  
3133.000000	0.004400  
3132.000000	0.004374  
3131.000000	0.004491  
3130.000000	0.004680  
3129.000000	0.004814  
3128.000000	0.004821  
3127.000000	0.004751  
3126.000000	0.004702  
3125.000000	0.004701  
3124.000000	0.004709  
3123.000000	0.004716  
3122.000000	0.004774  
3121.000000	0.004892  
3120.000000	0.004981  
3119.000000	0.004935  
3118.000000	0.004746  
3117.000000	0.004509  
3116.000000	0.004348  
3115.000000	0.004337  
3114.000000	0.004472  
3113.000000	0.004673  
3112.000000	0.004838  
3111.000000	0.004914  
3110.000000	0.004921  
3109.000000	0.004892  
3108.000000	0.004827  
3107.000000	0.004712  
3106.000000	0.004562  
3105.000000	0.004422  
3104.000000	0.004341  
3103.000000	0.004359  
3102.000000	0.004487  
3101.000000	0.004668  
3100.000000	0.004783  
3099.000000	0.004740  
3098.000000	0.004564  
3097.000000	0.004370  
3096.000000	0.004272  
3095.000000	0.004302  
3094.000000	0.004420  
3093.000000	0.004561  
3092.000000	0.004669  
3091.000000	0.004730  
3090.000000	0.004758  
3089.000000	0.004759  
3088.000000	0.004729  
3087.000000	0.004686  
3086.000000	0.004688  
3085.000000	0.004763  
3084.000000	0.004853  
3083.000000	0.004875  
3082.000000	0.004825  
3081.000000	0.004801  
3080.000000	0.004891  
3079.000000	0.005085  
3078.000000	0.005295  
3077.000000	0.005434  
3076.000000	0.005466  
3075.000000	0.005392  
3074.000000	0.005239  
3073.000000	0.005057  
3072.000000	0.004924  
3071.000000	0.004910  
3070.000000	0.005031  
3069.000000	0.005214  
3068.000000	0.005342  
3067.000000	0.005353  
3066.000000	0.005296  
3065.000000	0.005283  
3064.000000	0.005378  
3063.000000	0.005546  
3062.000000	0.005686  
3061.000000	0.005719  
3060.000000	0.005637  
3059.000000	0.005506  
3058.000000	0.005405  
3057.000000	0.005371  
3056.000000	0.005383  
3055.000000	0.005419  
3054.000000	0.005482  
3053.000000	0.005567  
3052.000000	0.005617  
3051.000000	0.005570  
3050.000000	0.005448  
3049.000000	0.005352  
3048.000000	0.005371  
3047.000000	0.005496  
3046.000000	0.005661  
3045.000000	0.005803  
3044.000000	0.005888  
3043.000000	0.005894  
3042.000000	0.005824  
3041.000000	0.005736  
3040.000000	0.005721  
3039.000000	0.005826  
3038.000000	0.006012  
3037.000000	0.006176  
3036.000000	0.006242  
3035.000000	0.006206  
3034.000000	0.006125  
3033.000000	0.006064  
3032.000000	0.006078  
3031.000000	0.006201  
3030.000000	0.006433  
3029.000000	0.006721  
3028.000000	0.006990  
3027.000000	0.007204  
3026.000000	0.007396  
3025.000000	0.007630  
3024.000000	0.007949  
3023.000000	0.008350  
3022.000000	0.008784  
3021.000000	0.009175  
3020.000000	0.009458  
3019.000000	0.009662  
3018.000000	0.009916  
3017.000000	0.010339  
3016.000000	0.010921  
3015.000000	0.011537  
3014.000000	0.012076  
3013.000000	0.012497  
3012.000000	0.012802  
3011.000000	0.012980  
3010.000000	0.013041  
3009.000000	0.013031  
3008.000000	0.013007  
3007.000000	0.012978  
3006.000000	0.012910  
3005.000000	0.012751  
3004.000000	0.012463  
3003.000000	0.012051  
3002.000000	0.011611  
3001.000000	0.011302  
3000.000000	0.011237  
2999.000000	0.011380  
2998.000000	0.011579  
2997.000000	0.011696  
2996.000000	0.011714  
2995.000000	0.011718  
2994.000000	0.011821  
2993.000000	0.012099  
2992.000000	0.012567  
2991.000000	0.013178  
2990.000000	0.013847  
2989.000000	0.014493  
2988.000000	0.015092  
2987.000000	0.015695  
2986.000000	0.016393  
2985.000000	0.017253  
2984.000000	0.018266  
2983.000000	0.019384  
2982.000000	0.020580  
2981.000000	0.021871  
2980.000000	0.023296  
2979.000000	0.024877  
2978.000000	0.026647  
2977.000000	0.028666  
2976.000000	0.031004  
2975.000000	0.033698  
2974.000000	0.036735  
2973.000000	0.040081  
2972.000000	0.043691  
2971.000000	0.047532  
2970.000000	0.051621  
2969.000000	0.056045  
2968.000000	0.060877  
2967.000000	0.066053  
2966.000000	0.071361  
2965.000000	0.076575  
2964.000000	0.081589  
2963.000000	0.086391  
2962.000000	0.090970  
2961.000000	0.095277  
2960.000000	0.099255  
2959.000000	0.102828  
2958.000000	0.105851  
2957.000000	0.108149  
2956.000000	0.109628  
2955.000000	0.110312  
2954.000000	0.110262  
2953.000000	0.109506  
2952.000000	0.108103  
2951.000000	0.106224  
2950.000000	0.104152  
2949.000000	0.102186  
2948.000000	0.100545  
2947.000000	0.099340  
2946.000000	0.098620  
2945.000000	0.098440  
2944.000000	0.098904  
2943.000000	0.100135  
2942.000000	0.102212  
2941.000000	0.105134  
2940.000000	0.108838  
2939.000000	0.113261  
2938.000000	0.118365  
2937.000000	0.124110  
2936.000000	0.130397  
2935.000000	0.137048  
2934.000000	0.143883  
2933.000000	0.150822  
2932.000000	0.157898  
2931.000000	0.165143  
2930.000000	0.172455  
2929.000000	0.179603  
2928.000000	0.186320  
2927.000000	0.192371  
2926.000000	0.197570  
2925.000000	0.201775  
2924.000000	0.204869  
2923.000000	0.206694  
2922.000000	0.207056  
2921.000000	0.205886  
2920.000000	0.203354  
2919.000000	0.199771  
2918.000000	0.195390  
2917.000000	0.190380  
2916.000000	0.184942  
2915.000000	0.179320  
2914.000000	0.173693  
2913.000000	0.168140  
2912.000000	0.162740  
2911.000000	0.157629  
2910.000000	0.152910  
2909.000000	0.148539  
2908.000000	0.144341  
2907.000000	0.140153  
2906.000000	0.135939  
2905.000000	0.131782  
2904.000000	0.127790  
2903.000000	0.124014  
2902.000000	0.120437  
2901.000000	0.117014  
2900.000000	0.113690  
2899.000000	0.110393  
2898.000000	0.107066  
2897.000000	0.103723  
2896.000000	0.100460  
2895.000000	0.097374  
2894.000000	0.094460  
2893.000000	0.091606  
2892.000000	0.088690  
2891.000000	0.085684  
2890.000000	0.082685  
2889.000000	0.079861  
2888.000000	0.077359  
2887.000000	0.075245  
2886.000000	0.073516  
2885.000000	0.072156  
2884.000000	0.071185  
2883.000000	0.070646  
2882.000000	0.070573  
2881.000000	0.070994  
2880.000000	0.071956  
2879.000000	0.073534  
2878.000000	0.075772  
2877.000000	0.078589  
2876.000000	0.081734  
2875.000000	0.084848  
2874.000000	0.087598  
2873.000000	0.089789  
2872.000000	0.091357  
2871.000000	0.092332  
2870.000000	0.092819  
2869.000000	0.093026  
2868.000000	0.093240  
2867.000000	0.093717  
2866.000000	0.094622  
2865.000000	0.096070  
2864.000000	0.098181  
2863.000000	0.101035  
2862.000000	0.104591  
2861.000000	0.108709  
2860.000000	0.113237  
2859.000000	0.118023  
2858.000000	0.122834  
2857.000000	0.127306  
2856.000000	0.130999  
2855.000000	0.133472  
2854.000000	0.134350  
2853.000000	0.133420  
2852.000000	0.130717  
2851.000000	0.126492  
2850.000000	0.121079  
2849.000000	0.114791  
2848.000000	0.107931  
2847.000000	0.100812  
2846.000000	0.093740  
2845.000000	0.086930  
2844.000000	0.080458  
2843.000000	0.074286  
2842.000000	0.068364  
2841.000000	0.062729  
2840.000000	0.057492  
2839.000000	0.052755  
2838.000000	0.048533  
2837.000000	0.044773  
2836.000000	0.041409  
2835.000000	0.038379  
2834.000000	0.035627  
2833.000000	0.033127  
2832.000000	0.030895  
2831.000000	0.028974  
2830.000000	0.027372  
2829.000000	0.026023  
2828.000000	0.024828  
2827.000000	0.023709  
2826.000000	0.022642  
2825.000000	0.021632  
2824.000000	0.020688  
2823.000000	0.019821  
2822.000000	0.019055  
2821.000000	0.018406  
2820.000000	0.017850  
2819.000000	0.017331  
2818.000000	0.016798  
2817.000000	0.016246  
2816.000000	0.015700  
2815.000000	0.015176  
2814.000000	0.014663  
2813.000000	0.014152  
2812.000000	0.013657  
2811.000000	0.013212  
2810.000000	0.012853  
2809.000000	0.012594  
2808.000000	0.012425  
2807.000000	0.012308  
2806.000000	0.012200  
2805.000000	0.012069  
2804.000000	0.011893  
2803.000000	0.011653  
2802.000000	0.011357  
2801.000000	0.011060  
2800.000000	0.010837  
2799.000000	0.010712  
2798.000000	0.010635  
2797.000000	0.010537  
2796.000000	0.010405  
2795.000000	0.010260  
2794.000000	0.010095  
2793.000000	0.009864  
2792.000000	0.009546  
2791.000000	0.009205  
2790.000000	0.008946  
2789.000000	0.008829  
2788.000000	0.008827  
2787.000000	0.008866  
2786.000000	0.008885  
2785.000000	0.008871  
2784.000000	0.008835  
2783.000000	0.008782  
2782.000000	0.008715  
2781.000000	0.008655  
2780.000000	0.008636  
2779.000000	0.008669  
2778.000000	0.008702  
2777.000000	0.008638  
2776.000000	0.008419  
2775.000000	0.008091  
2774.000000	0.007777  
2773.000000	0.007586  
2772.000000	0.007528  
2771.000000	0.007530  
2770.000000	0.007508  
2769.000000	0.007429  
2768.000000	0.007300  
2767.000000	0.007136  
2766.000000	0.006965  
2765.000000	0.006839  
2764.000000	0.006802  
2763.000000	0.006829  
2762.000000	0.006836  
2761.000000	0.006764  
2760.000000	0.006640  
2759.000000	0.006525  
2758.000000	0.006437  
2757.000000	0.006352  
2756.000000	0.006274  
2755.000000	0.006235  
2754.000000	0.006235  
2753.000000	0.006222  
2752.000000	0.006150  
2751.000000	0.006048  
2750.000000	0.005993  
2749.000000	0.006018  
2748.000000	0.006080  
2747.000000	0.006091  
2746.000000	0.006001  
2745.000000	0.005842  
2744.000000	0.005707  
2743.000000	0.005668  
2742.000000	0.005722  
2741.000000	0.005812  
2740.000000	0.005897  
2739.000000	0.005970  
2738.000000	0.006032  
2737.000000	0.006083  
2736.000000	0.006141  
2735.000000	0.006244  
2734.000000	0.006397  
2733.000000	0.006534  
2732.000000	0.006570  
2731.000000	0.006485  
2730.000000	0.006357  
2729.000000	0.006287  
2728.000000	0.006318  
2727.000000	0.006402  
2726.000000	0.006445  
2725.000000	0.006387  
2724.000000	0.006262  
2723.000000	0.006151  
2722.000000	0.006098  
2721.000000	0.006080  
2720.000000	0.006066  
2719.000000	0.006061  
2718.000000	0.006076  
2717.000000	0.006089  
2716.000000	0.006066  
2715.000000	0.006009  
2714.000000	0.005937  
2713.000000	0.005837  
2712.000000	0.005693  
2711.000000	0.005542  
2710.000000	0.005455  
2709.000000	0.005444  
2708.000000	0.005440  
2707.000000	0.005376  
2706.000000	0.005254  
2705.000000	0.005121  
2704.000000	0.005001  
2703.000000	0.004895  
2702.000000	0.004807  
2701.000000	0.004738  
2700.000000	0.004676  
2699.000000	0.004616  
2698.000000	0.004595  
2697.000000	0.004660  
2696.000000	0.004800  
2695.000000	0.004945  
2694.000000	0.005038  
2693.000000	0.005076  
2692.000000	0.005083  
2691.000000	0.005073  
2690.000000	0.005066  
2689.000000	0.005110  
2688.000000	0.005239  
2687.000000	0.005418  
2686.000000	0.005553  
2685.000000	0.005587  
2684.000000	0.005548  
2683.000000	0.005507  
2682.000000	0.005498  
2681.000000	0.005505  
2680.000000	0.005504  
2679.000000	0.005485  
2678.000000	0.005458  
2677.000000	0.005445  
2676.000000	0.005480  
2675.000000	0.005577  
2674.000000	0.005695  
2673.000000	0.005752  
2672.000000	0.005701  
2671.000000	0.005565  
2670.000000	0.005407  
2669.000000	0.005282  
2668.000000	0.005228  
2667.000000	0.005269  
2666.000000	0.005397  
2665.000000	0.005560  
2664.000000	0.005685  
2663.000000	0.005710  
2662.000000	0.005604  
2661.000000	0.005384  
2660.000000	0.005129  
2659.000000	0.004941  
2658.000000	0.004854  
2657.000000	0.004813  
2656.000000	0.004757  
2655.000000	0.004704  
2654.000000	0.004698  
2653.000000	0.004719  
2652.000000	0.004699  
2651.000000	0.004629  
2650.000000	0.004585  
2649.000000	0.004624  
2648.000000	0.004707  
2647.000000	0.004748  
2646.000000	0.004708  
2645.000000	0.004612  
2644.000000	0.004522  
2643.000000	0.004504  
2642.000000	0.004593  
2641.000000	0.004747  
2640.000000	0.004855  
2639.000000	0.004822  
2638.000000	0.004649  
2637.000000	0.004411  
2636.000000	0.004204  
2635.000000	0.004115  
2634.000000	0.004198  
2633.000000	0.004426  
2632.000000	0.004678  
2631.000000	0.004817  
2630.000000	0.004782  
2629.000000	0.004617  
2628.000000	0.004421  
2627.000000	0.004297  
2626.000000	0.004294  
2625.000000	0.004354  
2624.000000	0.004350  
2623.000000	0.004215  
2622.000000	0.004020  
2621.000000	0.003878  
2620.000000	0.003816  
2619.000000	0.003775  
2618.000000	0.003726  
2617.000000	0.003710  
2616.000000	0.003756  
2615.000000	0.003830  
2614.000000	0.003887  
2613.000000	0.003929  
2612.000000	0.003987  
2611.000000	0.004073  
2610.000000	0.004175  
2609.000000	0.004276  
2608.000000	0.004357  
2607.000000	0.004394  
2606.000000	0.004373  
2605.000000	0.004307  
2604.000000	0.004209  
2603.000000	0.004098  
2602.000000	0.004010  
2601.000000	0.003999  
2600.000000	0.004070  
2599.000000	0.004139  
2598.000000	0.004108  
2597.000000	0.003973  
2596.000000	0.003822  
2595.000000	0.003725  
2594.000000	0.003647  
2593.000000	0.003511  
2592.000000	0.003314  
2591.000000	0.003162  
2590.000000	0.003157  
2589.000000	0.003279  
2588.000000	0.003415  
2587.000000	0.003488  
2586.000000	0.003532  
2585.000000	0.003598  
2584.000000	0.003646  
2583.000000	0.003585  
2582.000000	0.003406  
2581.000000	0.003213  
2580.000000	0.003114  
2579.000000	0.003111  
2578.000000	0.003135  
2577.000000	0.003136  
2576.000000	0.003104  
2575.000000	0.003042  
2574.000000	0.002969  
2573.000000	0.002946  
2572.000000	0.003027  
2571.000000	0.003182  
2570.000000	0.003308  
2569.000000	0.003321  
2568.000000	0.003230  
2567.000000	0.003096  
2566.000000	0.002964  
2565.000000	0.002849  
2564.000000	0.002763  
2563.000000	0.002719  
2562.000000	0.002712  
2561.000000	0.002724  
2560.000000	0.002747  
2559.000000	0.002784  
2558.000000	0.002839  
2557.000000	0.002917  
2556.000000	0.003005  
2555.000000	0.003055  
2554.000000	0.003008  
2553.000000	0.002887  
2552.000000	0.002834  
2551.000000	0.002990  
2550.000000	0.003331  
2549.000000	0.003652  
2548.000000	0.003756  
2547.000000	0.003605  
2546.000000	0.003282  
2545.000000	0.002884  
2544.000000	0.002506  
2543.000000	0.002272  
2542.000000	0.002253  
2541.000000	0.002373  
2540.000000	0.002470  
2539.000000	0.002484  
2538.000000	0.002512  
2537.000000	0.002643  
2536.000000	0.002815  
2535.000000	0.002886  
2534.000000	0.002808  
2533.000000	0.002673  
2532.000000	0.002581  
2531.000000	0.002530  
2530.000000	0.002451  
2529.000000	0.002319  
2528.000000	0.002213  
2527.000000	0.002247  
2526.000000	0.002446  
2525.000000	0.002707  
2524.000000	0.002888  
2523.000000	0.002943  
2522.000000	0.002916  
2521.000000	0.002847  
2520.000000	0.002724  
2519.000000	0.002563  
2518.000000	0.002466  
2517.000000	0.002530  
2516.000000	0.002723  
2515.000000	0.002901  
2514.000000	0.002959  
2513.000000	0.002906  
2512.000000	0.002826  
2511.000000	0.002772  
2510.000000	0.002729  
2509.000000	0.002652  
2508.000000	0.002534  
2507.000000	0.002439  
2506.000000	0.002447  
2505.000000	0.002556  
2504.000000	0.002651  
2503.000000	0.002623  
2502.000000	0.002494  
2501.000000	0.002403  
2500.000000	0.002452  
2499.000000	0.002584  
2498.000000	0.002632  
2497.000000	0.002458  
2496.000000	0.002080  
2495.000000	0.001667  
2494.000000	0.001429  
2493.000000	0.001474  
2492.000000	0.001753  
2491.000000	0.002132  
2490.000000	0.002498  
2489.000000	0.002788  
2488.000000	0.002955  
2487.000000	0.002955  
2486.000000	0.002766  
2485.000000	0.002426  
2484.000000	0.002045  
2483.000000	0.001781  
2482.000000	0.001772  
2481.000000	0.002041  
2480.000000	0.002457  
2479.000000	0.002827  
2478.000000	0.003017  
2477.000000	0.003002  
2476.000000	0.002834  
2475.000000	0.002601  
2474.000000	0.002395  
2473.000000	0.002259  
2472.000000	0.002172  
2471.000000	0.002094  
2470.000000	0.002015  
2469.000000	0.001961  
2468.000000	0.001964  
2467.000000	0.002065  
2466.000000	0.002286  
2465.000000	0.002560  
2464.000000	0.002733  
2463.000000	0.002697  
2462.000000	0.002513  
2461.000000	0.002344  
2460.000000	0.002289  
2459.000000	0.002332  
2458.000000	0.002434  
2457.000000	0.002570  
2456.000000	0.002658  
2455.000000	0.002584  
2454.000000	0.002346  
2453.000000	0.002090  
2452.000000	0.001944  
2451.000000	0.001869  
2450.000000	0.001764  
2449.000000	0.001643  
2448.000000	0.001624  
2447.000000	0.001761  
2446.000000	0.001978  
2445.000000	0.002164  
2444.000000	0.002275  
2443.000000	0.002334  
2442.000000	0.002382  
2441.000000	0.002447  
2440.000000	0.002506  
2439.000000	0.002491  
2438.000000	0.002372  
2437.000000	0.002216  
2436.000000	0.002121  
2435.000000	0.002094  
2434.000000	0.002046  
2433.000000	0.001932  
2432.000000	0.001823  
2431.000000	0.001810  
2430.000000	0.001890  
2429.000000	0.001994  
2428.000000	0.002088  
2427.000000	0.002191  
2426.000000	0.002310  
2425.000000	0.002394  
2424.000000	0.002397  
2423.000000	0.002331  
2422.000000	0.002254  
2421.000000	0.002207  
2420.000000	0.002192  
2419.000000	0.002181  
2418.000000	0.002156  
2417.000000	0.002117  
2416.000000	0.002084  
2415.000000	0.002085  
2414.000000	0.002141  
2413.000000	0.002242  
2412.000000	0.002338  
2411.000000	0.002386  
2410.000000	0.002404  
2409.000000	0.002458  
2408.000000	0.002574  
2407.000000	0.002672  
2406.000000	0.002616  
2405.000000	0.002359  
2404.000000	0.002010  
2403.000000	0.001739  
2402.000000	0.001632  
2401.000000	0.001649  
2400.000000	0.001715  
2399.000000	0.001814  
2398.000000	0.001978  
2397.000000	0.002200  
2396.000000	0.002402  
2395.000000	0.002511  
2394.000000	0.002544  
2393.000000	0.002597  
2392.000000	0.002740  
2391.000000	0.002948  
2390.000000	0.003130  
2389.000000	0.003253  
2388.000000	0.003414  
2387.000000	0.003788  
2386.000000	0.004470  
2385.000000	0.005344  
2384.000000	0.006096  
2383.000000	0.006379  
2382.000000	0.006007  
2381.000000	0.005046  
2380.000000	0.003772  
2379.000000	0.002531  
2378.000000	0.001573  
2377.000000	0.000971  
2376.000000	0.000710  
2375.000000	0.000823  
2374.000000	0.001346  
2373.000000	0.002186  
2372.000000	0.003114  
2371.000000	0.003950  
2370.000000	0.004614  
2369.000000	0.004979  
2368.000000	0.004910  
2367.000000	0.004562  
2366.000000	0.004352  
2365.000000	0.004401  
2364.000000	0.004308  
2363.000000	0.003774  
2362.000000	0.003015  
2361.000000	0.002571  
2360.000000	0.002942  
2359.000000	0.003958  
2358.000000	0.004841  
2357.000000	0.004882  
2356.000000	0.004185  
2355.000000	0.003483  
2354.000000	0.003062  
2353.000000	0.002895  
2352.000000	0.002996  
2351.000000	0.003382  
2350.000000	0.003893  
2349.000000	0.004074  
2348.000000	0.003792  
2347.000000	0.003270  
2346.000000	0.003265  
2345.000000	0.004211  
2344.000000	0.005448  
2343.000000	0.006028  
2342.000000	0.005339  
2341.000000	0.003909  
2340.000000	0.002778  
2339.000000	0.002402  
2338.000000	0.002319  
2337.000000	0.002030  
2336.000000	0.001627  
2335.000000	0.001455  
2334.000000	0.001447  
2333.000000	0.001499  
2332.000000	0.001789  
2331.000000	0.002577  
2330.000000	0.003803  
2329.000000	0.004936  
2328.000000	0.005812  
2327.000000	0.006366  
2326.000000	0.006606  
2325.000000	0.006474  
2324.000000	0.005932  
2323.000000	0.005194  
2322.000000	0.004404  
2321.000000	0.003926  
2320.000000	0.004044  
2319.000000	0.004809  
2318.000000	0.005778  
2317.000000	0.006354  
2316.000000	0.006284  
2315.000000	0.005817  
2314.000000	0.005484  
2313.000000	0.005625  
2312.000000	0.006217  
2311.000000	0.006919  
2310.000000	0.007425  
2309.000000	0.007632  
2308.000000	0.007623  
2307.000000	0.007487  
2306.000000	0.007243  
2305.000000	0.006948  
2304.000000	0.006714  
2303.000000	0.006651  
2302.000000	0.006724  
2301.000000	0.006783  
2300.000000	0.006725  
2299.000000	0.006589  
2298.000000	0.006527  
2297.000000	0.006582  
2296.000000	0.006642  
2295.000000	0.006521  
2294.000000	0.006182  
2293.000000	0.005751  
2292.000000	0.005369  
2291.000000	0.005046  
2290.000000	0.004713  
2289.000000	0.004361  
2288.000000	0.004018  
2287.000000	0.003652  
2286.000000	0.003193  
2285.000000	0.002693  
2284.000000	0.002334  
2283.000000	0.002247  
2282.000000	0.002350  
2281.000000	0.002478  
2280.000000	0.002581  
2279.000000	0.002738  
2278.000000	0.002951  
2277.000000	0.003101  
2276.000000	0.003144  
2275.000000	0.003237  
2274.000000	0.003554  
2273.000000	0.004023  
2272.000000	0.004365  
2271.000000	0.004402  
2270.000000	0.004219  
2269.000000	0.003990  
2268.000000	0.003729  
2267.000000	0.003330  
2266.000000	0.002807  
2265.000000	0.002375  
2264.000000	0.002247  
2263.000000	0.002399  
2262.000000	0.002636  
2261.000000	0.002801  
2260.000000	0.002875  
2259.000000	0.002902  
2258.000000	0.002922  
2257.000000	0.003001  
2256.000000	0.003188  
2255.000000	0.003426  
2254.000000	0.003555  
2253.000000	0.003483  
2252.000000	0.003296  
2251.000000	0.003132  
2250.000000	0.003000  
2249.000000	0.002781  
2248.000000	0.002397  
2247.000000	0.001899  
2246.000000	0.001416  
2245.000000	0.001082  
2244.000000	0.001007  
2243.000000	0.001224  
2242.000000	0.001632  
2241.000000	0.002026  
2240.000000	0.002254  
2239.000000	0.002311  
2238.000000	0.002280  
2237.000000	0.002206  
2236.000000	0.002090  
2235.000000	0.001968  
2234.000000	0.001943  
2233.000000	0.002088  
2232.000000	0.002327  
2231.000000	0.002447  
2230.000000	0.002263  
2229.000000	0.001801  
2228.000000	0.001301  
2227.000000	0.001026  
2226.000000	0.001061  
2225.000000	0.001268  
2224.000000	0.001403  
2223.000000	0.001281  
2222.000000	0.000918  
2221.000000	0.000560  
2220.000000	0.000504  
2219.000000	0.000815  
2218.000000	0.001241  
2217.000000	0.001503  
2216.000000	0.001622  
2215.000000	0.001828  
2214.000000	0.002160  
2213.000000	0.002364  
2212.000000	0.002269  
2211.000000	0.002078  
2210.000000	0.002083  
2209.000000	0.002213  
2208.000000	0.002104  
2207.000000	0.001634  
2206.000000	0.001162  
2205.000000	0.001151  
2204.000000	0.001689  
2203.000000	0.002483  
2202.000000	0.003214  
2201.000000	0.003726  
2200.000000	0.003991  
2199.000000	0.004046  
2198.000000	0.004000  
2197.000000	0.003975  
2196.000000	0.003980  
2195.000000	0.003905  
2194.000000	0.003651  
2193.000000	0.003228  
2192.000000	0.002706  
2191.000000	0.002145  
2190.000000	0.001645  
2189.000000	0.001389  
2188.000000	0.001516  
2187.000000	0.001931  
2186.000000	0.002305  
2185.000000	0.002335  
2184.000000	0.002022  
2183.000000	0.001663  
2182.000000	0.001590  
2181.000000	0.001919  
2180.000000	0.002506  
2179.000000	0.003099  
2178.000000	0.003485  
2177.000000	0.003564  
2176.000000	0.003366  
2175.000000	0.002981  
2174.000000	0.002472  
2173.000000	0.001889  
2172.000000	0.001390  
2171.000000	0.001225  
2170.000000	0.001485  
2169.000000	0.001896  
2168.000000	0.002041  
2167.000000	0.001865  
2166.000000	0.001787  
2165.000000	0.002174  
2164.000000	0.002787  
2163.000000	0.003014  
2162.000000	0.002593  
2161.000000	0.001912  
2160.000000	0.001497  
2159.000000	0.001416  
2158.000000	0.001384  
2157.000000	0.001270  
2156.000000	0.001205  
2155.000000	0.001281  
2154.000000	0.001440  
2153.000000	0.001627  
2152.000000	0.001870  
2151.000000	0.002164  
2150.000000	0.002377  
2149.000000	0.002370  
2148.000000	0.002151  
2147.000000	0.001891  
2146.000000	0.001784  
2145.000000	0.001934  
2144.000000	0.002306  
2143.000000	0.002730  
2142.000000	0.002951  
2141.000000	0.002781  
2140.000000	0.002260  
2139.000000	0.001676  
2138.000000	0.001395  
2137.000000	0.001595  
2136.000000	0.002102  
2135.000000	0.002513  
2134.000000	0.002527  
2133.000000	0.002213  
2132.000000	0.001919  
2131.000000	0.001926  
2130.000000	0.002221  
2129.000000	0.002587  
2128.000000	0.002840  
2127.000000	0.002909  
2126.000000	0.002760  
2125.000000	0.002377  
2124.000000	0.001884  
2123.000000	0.001575  
2122.000000	0.001705  
2121.000000	0.002238  
2120.000000	0.002855  
2119.000000	0.003221  
2118.000000	0.003220  
2117.000000	0.002992  
2116.000000	0.002785  
2115.000000	0.002773  
2114.000000	0.002906  
2113.000000	0.002950  
2112.000000	0.002733  
2111.000000	0.002364  
2110.000000	0.002144  
2109.000000	0.002209  
2108.000000	0.002369  
2107.000000	0.002353  
2106.000000	0.002123  
2105.000000	0.001850  
2104.000000	0.001646  
2103.000000	0.001465  
2102.000000	0.001256  
2101.000000	0.001083  
2100.000000	0.001018  
2099.000000	0.001031  
2098.000000	0.001044  
2097.000000	0.001057  
2096.000000	0.001128  
2095.000000	0.001263  
2094.000000	0.001392  
2093.000000	0.001460  
2092.000000	0.001474  
2091.000000	0.001457  
2090.000000	0.001413  
2089.000000	0.001366  
2088.000000	0.001411  
2087.000000	0.001653  
2086.000000	0.002073  
2085.000000	0.002469  
2084.000000	0.002590  
2083.000000	0.002356  
2082.000000	0.001947  
2081.000000	0.001668  
2080.000000	0.001717  
2079.000000	0.002056  
2078.000000	0.002463  
2077.000000	0.002686  
2076.000000	0.002622  
2075.000000	0.002407  
2074.000000	0.002293  
2073.000000	0.002396  
2072.000000	0.002584  
2071.000000	0.002652  
2070.000000	0.002567  
2069.000000	0.002447  
2068.000000	0.002369  
2067.000000	0.002313  
2066.000000	0.002283  
2065.000000	0.002354  
2064.000000	0.002539  
2063.000000	0.002735  
2062.000000	0.002842  
2061.000000	0.002831  
2060.000000	0.002683  
2059.000000	0.002382  
2058.000000	0.002027  
2057.000000	0.001814  
2056.000000	0.001795  
2055.000000	0.001771  
2054.000000	0.001549  
2053.000000	0.001195  
2052.000000	0.000910  
2051.000000	0.000773  
2050.000000	0.000811  
2049.000000	0.001178  
2048.000000	0.001974  
2047.000000	0.002851  
2046.000000	0.003158  
2045.000000	0.002628  
2044.000000	0.001706  
2043.000000	0.001063  
2042.000000	0.000959  
2041.000000	0.001233  
2040.000000	0.001705  
2039.000000	0.002312  
2038.000000	0.002885  
2037.000000	0.003112  
2036.000000	0.002845  
2035.000000	0.002324  
2034.000000	0.001975  
2033.000000	0.002021  
2032.000000	0.002327  
2031.000000	0.002553  
2030.000000	0.002438  
2029.000000	0.001973  
2028.000000	0.001383  
2027.000000	0.000927  
2026.000000	0.000711  
2025.000000	0.000684  
2024.000000	0.000790  
2023.000000	0.001075  
2022.000000	0.001593  
2021.000000	0.002223  
2020.000000	0.002646  
2019.000000	0.002602  
2018.000000	0.002122  
2017.000000	0.001491  
2016.000000	0.000962  
2015.000000	0.000614  
2014.000000	0.000525  
2013.000000	0.000851  
2012.000000	0.001514  
2011.000000	0.002000  
2010.000000	0.001739  
2009.000000	0.000772  
2008.000000	-0.000216 
2007.000000	-0.000615 
2006.000000	-0.000420 
2005.000000	0.000031  
2004.000000	0.000578  
2003.000000	0.001268  
2002.000000	0.002088  
2001.000000	0.002872  
2000.000000	0.003404  
1999.000000	0.003469  
1998.000000	0.002927  
1997.000000	0.001934  
1996.000000	0.000997  
1995.000000	0.000591  
1994.000000	0.000758  
1993.000000	0.001168  
1992.000000	0.001534  
1991.000000	0.001825  
1990.000000	0.002085  
1989.000000	0.002295  
1988.000000	0.002480  
1987.000000	0.002721  
1986.000000	0.002985  
1985.000000	0.003128  
1984.000000	0.003121  
1983.000000	0.003094  
1982.000000	0.003050  
1981.000000	0.002770  
1980.000000	0.002166  
1979.000000	0.001563  
1978.000000	0.001355  
1977.000000	0.001470  
1976.000000	0.001486  
1975.000000	0.001245  
1974.000000	0.000993  
1973.000000	0.000933  
1972.000000	0.000974  
1971.000000	0.000958  
1970.000000	0.000883  
1969.000000	0.000788  
1968.000000	0.000643  
1967.000000	0.000466  
1966.000000	0.000402  
1965.000000	0.000560  
1964.000000	0.000887  
1963.000000	0.001276  
1962.000000	0.001668  
1961.000000	0.001985  
1960.000000	0.002119  
1959.000000	0.002083  
1958.000000	0.002034  
1957.000000	0.002044  
1956.000000	0.001969  
1955.000000	0.001651  
1954.000000	0.001186  
1953.000000	0.000871  
1952.000000	0.000928  
1951.000000	0.001362  
1950.000000	0.002000  
1949.000000	0.002557  
1948.000000	0.002753  
1947.000000	0.002524  
1946.000000	0.002118  
1945.000000	0.001861  
1944.000000	0.001842  
1943.000000	0.001887  
1942.000000	0.001849  
1941.000000	0.001769  
1940.000000	0.001710  
1939.000000	0.001648  
1938.000000	0.001621  
1937.000000	0.001782  
1936.000000	0.002197  
1935.000000	0.002683  
1934.000000	0.002971  
1933.000000	0.002981  
1932.000000	0.002866  
1931.000000	0.002772  
1930.000000	0.002683  
1929.000000	0.002531  
1928.000000	0.002335  
1927.000000	0.002168  
1926.000000	0.002045  
1925.000000	0.001941  
1924.000000	0.001872  
1923.000000	0.001899  
1922.000000	0.002048  
1921.000000	0.002275  
1920.000000	0.002517  
1919.000000	0.002706  
1918.000000	0.002772  
1917.000000	0.002712  
1916.000000	0.002617  
1915.000000	0.002530  
1914.000000	0.002393  
1913.000000	0.002148  
1912.000000	0.001851  
1911.000000	0.001648  
1910.000000	0.001619  
1909.000000	0.001721  
1908.000000	0.001875  
1907.000000	0.002031  
1906.000000	0.002126  
1905.000000	0.002081  
1904.000000	0.001896  
1903.000000	0.001689  
1902.000000	0.001603  
1901.000000	0.001685  
1900.000000	0.001873  
1899.000000	0.002061  
1898.000000	0.002182  
1897.000000	0.002230  
1896.000000	0.002254  
1895.000000	0.002314  
1894.000000	0.002429  
1893.000000	0.002569  
1892.000000	0.002709  
1891.000000	0.002845  
1890.000000	0.002959  
1889.000000	0.002995  
1888.000000	0.002912  
1887.000000	0.002713  
1886.000000	0.002456  
1885.000000	0.002258  
1884.000000	0.002201  
1883.000000	0.002246  
1882.000000	0.002277  
1881.000000	0.002234  
1880.000000	0.002159  
1879.000000	0.002102  
1878.000000	0.002050  
1877.000000	0.001995  
1876.000000	0.001998  
1875.000000	0.002131  
1874.000000	0.002355  
1873.000000	0.002534  
1872.000000	0.002582  
1871.000000	0.002524  
1870.000000	0.002421  
1869.000000	0.002300  
1868.000000	0.002231  
1867.000000	0.002297  
1866.000000	0.002452  
1865.000000	0.002560  
1864.000000	0.002555  
1863.000000	0.002488  
1862.000000	0.002441  
1861.000000	0.002433  
1860.000000	0.002445  
1859.000000	0.002485  
1858.000000	0.002578  
1857.000000	0.002704  
1856.000000	0.002780  
1855.000000	0.002718  
1854.000000	0.002501  
1853.000000	0.002234  
1852.000000	0.002079  
1851.000000	0.002112  
1850.000000	0.002261  
1849.000000	0.002363  
1848.000000	0.002330  
1847.000000	0.002240  
1846.000000	0.002267  
1845.000000	0.002482  
1844.000000	0.002741  
1843.000000	0.002823  
1842.000000	0.002666  
1841.000000	0.002377  
1840.000000	0.002106  
1839.000000	0.001971  
1838.000000	0.002015  
1837.000000	0.002176  
1836.000000	0.002329  
1835.000000	0.002392  
1834.000000	0.002363  
1833.000000	0.002274  
1832.000000	0.002134  
1831.000000	0.001989  
1830.000000	0.001959  
1829.000000	0.002117  
1828.000000	0.002357  
1827.000000	0.002516  
1826.000000	0.002542  
1825.000000	0.002497  
1824.000000	0.002491  
1823.000000	0.002593  
1822.000000	0.002756  
1821.000000	0.002833  
1820.000000	0.002688  
1819.000000	0.002367  
1818.000000	0.002096  
1817.000000	0.002061  
1816.000000	0.002218  
1815.000000	0.002383  
1814.000000	0.002441  
1813.000000	0.002416  
1812.000000	0.002394  
1811.000000	0.002450  
1810.000000	0.002588  
1809.000000	0.002735  
1808.000000	0.002837  
1807.000000	0.002892  
1806.000000	0.002908  
1805.000000	0.002886  
1804.000000	0.002851  
1803.000000	0.002858  
1802.000000	0.002946  
1801.000000	0.003088  
1800.000000	0.003235  
1799.000000	0.003368  
1798.000000	0.003456  
1797.000000	0.003471  
1796.000000	0.003445  
1795.000000	0.003427  
1794.000000	0.003433  
1793.000000	0.003413  
1792.000000	0.003321  
1791.000000	0.003220  
1790.000000	0.003188  
1789.000000	0.003216  
1788.000000	0.003257  
1787.000000	0.003292  
1786.000000	0.003335  
1785.000000	0.003403  
1784.000000	0.003477  
1783.000000	0.003511  
1782.000000	0.003515  
1781.000000	0.003572  
1780.000000	0.003738  
1779.000000	0.003961  
1778.000000	0.004136  
1777.000000	0.004224  
1776.000000	0.004253  
1775.000000	0.004235  
1774.000000	0.004190  
1773.000000	0.004178  
1772.000000	0.004206  
1771.000000	0.004219  
1770.000000	0.004226  
1769.000000	0.004304  
1768.000000	0.004488  
1767.000000	0.004694  
1766.000000	0.004830  
1765.000000	0.004926  
1764.000000	0.005094  
1763.000000	0.005412  
1762.000000	0.005871  
1761.000000	0.006391  
1760.000000	0.006891  
1759.000000	0.007338  
1758.000000	0.007807  
1757.000000	0.008437  
1756.000000	0.009245  
1755.000000	0.010119  
1754.000000	0.011099  
1753.000000	0.012513  
1752.000000	0.014721  
1751.000000	0.017745  
1750.000000	0.021425  
1749.000000	0.025874  
1748.000000	0.031174  
1747.000000	0.037033  
1746.000000	0.043180  
1745.000000	0.049550  
1744.000000	0.055737  
1743.000000	0.060811  
1742.000000	0.064008  
1741.000000	0.065020  
1740.000000	0.063679  
1739.000000	0.060364  
1738.000000	0.056208  
1737.000000	0.051863  
1736.000000	0.046915  
1735.000000	0.040525  
1734.000000	0.033445  
1733.000000	0.027849  
1732.000000	0.024120  
1731.000000	0.021226  
1730.000000	0.018690  
1729.000000	0.016574  
1728.000000	0.014940  
1727.000000	0.013660  
1726.000000	0.012589  
1725.000000	0.011642  
1724.000000	0.010770  
1723.000000	0.009989  
1722.000000	0.009343  
1721.000000	0.008813  
1720.000000	0.008327  
1719.000000	0.007902  
1718.000000	0.007610  
1717.000000	0.007350  
1716.000000	0.007038  
1715.000000	0.006769  
1714.000000	0.006587  
1713.000000	0.006436  
1712.000000	0.006234  
1711.000000	0.005964  
1710.000000	0.005692  
1709.000000	0.005473  
1708.000000	0.005324  
1707.000000	0.005284  
1706.000000	0.005381  
1705.000000	0.005525  
1704.000000	0.005651  
1703.000000	0.005794  
1702.000000	0.006008  
1701.000000	0.006151  
1700.000000	0.006068  
1699.000000	0.005955  
1698.000000	0.005933  
1697.000000	0.005844  
1696.000000	0.005616  
1695.000000	0.005449  
1694.000000	0.005408  
1693.000000	0.005345  
1692.000000	0.005222  
1691.000000	0.005097  
1690.000000	0.005038  
1689.000000	0.005037  
1688.000000	0.005044  
1687.000000	0.005011  
1686.000000	0.004939  
1685.000000	0.004821  
1684.000000	0.004702  
1683.000000	0.004739  
1682.000000	0.004886  
1681.000000	0.004997  
1680.000000	0.005013  
1679.000000	0.004958  
1678.000000	0.004839  
1677.000000	0.004675  
1676.000000	0.004535  
1675.000000	0.004563  
1674.000000	0.004797  
1673.000000	0.005095  
1672.000000	0.005325  
1671.000000	0.005468  
1670.000000	0.005550  
1669.000000	0.005620  
1668.000000	0.005694  
1667.000000	0.005744  
1666.000000	0.005797  
1665.000000	0.005915  
1664.000000	0.006118  
1663.000000	0.006361  
1662.000000	0.006566  
1661.000000	0.006724  
1660.000000	0.006857  
1659.000000	0.006971  
1658.000000	0.007015  
1657.000000	0.006997  
1656.000000	0.006928  
1655.000000	0.006939  
1654.000000	0.007152  
1653.000000	0.007587  
1652.000000	0.008087  
1651.000000	0.008300  
1650.000000	0.008300  
1649.000000	0.008339  
1648.000000	0.008521  
1647.000000	0.008639  
1646.000000	0.008567  
1645.000000	0.008413  
1644.000000	0.008242  
1643.000000	0.008081  
1642.000000	0.008004  
1641.000000	0.007998  
1640.000000	0.008004  
1639.000000	0.007975  
1638.000000	0.007946  
1637.000000	0.007965  
1636.000000	0.007986  
1635.000000	0.007960  
1634.000000	0.007927  
1633.000000	0.007898  
1632.000000	0.007866  
1631.000000	0.007822  
1630.000000	0.007728  
1629.000000	0.007602  
1628.000000	0.007500  
1627.000000	0.007467  
1626.000000	0.007498  
1625.000000	0.007567  
1624.000000	0.007614  
1623.000000	0.007549  
1622.000000	0.007380  
1621.000000	0.007222  
1620.000000	0.007132  
1619.000000	0.007103  
1618.000000	0.007094  
1617.000000	0.007063  
1616.000000	0.007022  
1615.000000	0.006962  
1614.000000	0.006876  
1613.000000	0.006811  
1612.000000	0.006806  
1611.000000	0.006841  
1610.000000	0.006874  
1609.000000	0.006887  
1608.000000	0.006874  
1607.000000	0.006800  
1606.000000	0.006672  
1605.000000	0.006547  
1604.000000	0.006449  
1603.000000	0.006345  
1602.000000	0.006232  
1601.000000	0.006162  
1600.000000	0.006145  
1599.000000	0.006115  
1598.000000	0.006039  
1597.000000	0.005970  
1596.000000	0.005974  
1595.000000	0.006041  
1594.000000	0.006119  
1593.000000	0.006211  
1592.000000	0.006350  
1591.000000	0.006525  
1590.000000	0.006677  
1589.000000	0.006778  
1588.000000	0.006843  
1587.000000	0.006883  
1586.000000	0.006910  
1585.000000	0.006954  
1584.000000	0.007036  
1583.000000	0.007134  
1582.000000	0.007224  
1581.000000	0.007319  
1580.000000	0.007454  
1579.000000	0.007635  
1578.000000	0.007837  
1577.000000	0.007992  
1576.000000	0.008043  
1575.000000	0.008030  
1574.000000	0.008054  
1573.000000	0.008168  
1572.000000	0.008324  
1571.000000	0.008411  
1570.000000	0.008353  
1569.000000	0.008267  
1568.000000	0.008256  
1567.000000	0.008240  
1566.000000	0.008115  
1565.000000	0.007923  
1564.000000	0.007683  
1563.000000	0.007406  
1562.000000	0.007080  
1561.000000	0.006825  
1560.000000	0.006866  
1559.000000	0.006941  
1558.000000	0.006833  
1557.000000	0.006935  
1556.000000	0.007209  
1555.000000	0.007368  
1554.000000	0.007443  
1553.000000	0.007329  
1552.000000	0.007055  
1551.000000	0.006653  
1550.000000	0.006312  
1549.000000	0.006166  
1548.000000	0.006188  
1547.000000	0.006249  
1546.000000	0.006309  
1545.000000	0.006347  
1544.000000	0.006308  
1543.000000	0.006224  
1542.000000	0.006259  
1541.000000	0.006384  
1540.000000	0.006336  
1539.000000	0.006203  
1538.000000	0.006202  
1537.000000	0.006248  
1536.000000	0.006244  
1535.000000	0.006198  
1534.000000	0.006101  
1533.000000	0.005967  
1532.000000	0.005851  
1531.000000	0.005790  
1530.000000	0.005732  
1529.000000	0.005662  
1528.000000	0.005633  
1527.000000	0.005723  
1526.000000	0.005956  
1525.000000	0.006225  
1524.000000	0.006383  
1523.000000	0.006422  
1522.000000	0.006433  
1521.000000	0.006463  
1520.000000	0.006497  
1519.000000	0.006490  
1518.000000	0.006461  
1517.000000	0.006457  
1516.000000	0.006484  
1515.000000	0.006579  
1514.000000	0.006764  
1513.000000	0.007001  
1512.000000	0.007174  
1511.000000	0.007233  
1510.000000	0.007278  
1509.000000	0.007509  
1508.000000	0.007942  
1507.000000	0.008292  
1506.000000	0.008631  
1505.000000	0.009059  
1504.000000	0.009251  
1503.000000	0.009156  
1502.000000	0.009011  
1501.000000	0.008911  
1500.000000	0.008858  
1499.000000	0.008878  
1498.000000	0.009200  
1497.000000	0.009837  
1496.000000	0.010384  
1495.000000	0.010616  
1494.000000	0.010751  
1493.000000	0.010963  
1492.000000	0.011169  
1491.000000	0.011246  
1490.000000	0.011288  
1489.000000	0.011456  
1488.000000	0.011745  
1487.000000	0.012107  
1486.000000	0.012553  
1485.000000	0.013112  
1484.000000	0.013745  
1483.000000	0.014460  
1482.000000	0.015382  
1481.000000	0.016522  
1480.000000	0.017699  
1479.000000	0.018850  
1478.000000	0.020209  
1477.000000	0.021982  
1476.000000	0.024086  
1475.000000	0.026577  
1474.000000	0.030191  
1473.000000	0.035718  
1472.000000	0.042593  
1471.000000	0.049505  
1470.000000	0.055957  
1469.000000	0.061902  
1468.000000	0.067092  
1467.000000	0.071358  
1466.000000	0.074877  
1465.000000	0.077778  
1464.000000	0.079846  
1463.000000	0.081080  
1462.000000	0.081832  
1461.000000	0.082367  
1460.000000	0.082782  
1459.000000	0.083236  
1458.000000	0.083855  
1457.000000	0.083914  
1456.000000	0.082582  
1455.000000	0.080314  
1454.000000	0.077784  
1453.000000	0.075075  
1452.000000	0.072216  
1451.000000	0.069420  
1450.000000	0.066857  
1449.000000	0.064316  
1448.000000	0.061566  
1447.000000	0.058769  
1446.000000	0.056153  
1445.000000	0.053582  
1444.000000	0.050836  
1443.000000	0.047942  
1442.000000	0.045110  
1441.000000	0.042507  
1440.000000	0.040158  
1439.000000	0.037953  
1438.000000	0.035716  
1437.000000	0.033389  
1436.000000	0.031282  
1435.000000	0.029677  
1434.000000	0.028335  
1433.000000	0.026864  
1432.000000	0.025162  
1431.000000	0.023400  
1430.000000	0.021816  
1429.000000	0.020534  
1428.000000	0.019584  
1427.000000	0.018911  
1426.000000	0.018393  
1425.000000	0.017945  
1424.000000	0.017551  
1423.000000	0.017211  
1422.000000	0.016893  
1421.000000	0.016542  
1420.000000	0.016159  
1419.000000	0.015787  
1418.000000	0.015461  
1417.000000	0.015163  
1416.000000	0.014859  
1415.000000	0.014556  
1414.000000	0.014271  
1413.000000	0.013997  
1412.000000	0.013724  
1411.000000	0.013445  
1410.000000	0.013190  
1409.000000	0.013016  
1408.000000	0.012980  
1407.000000	0.013097  
1406.000000	0.013317  
1405.000000	0.013576  
1404.000000	0.013849  
1403.000000	0.014148  
1402.000000	0.014451  
1401.000000	0.014736  
1400.000000	0.015033  
1399.000000	0.015357  
1398.000000	0.015682  
1397.000000	0.015995  
1396.000000	0.016314  
1395.000000	0.016650  
1394.000000	0.017030  
1393.000000	0.017488  
1392.000000	0.018005  
1391.000000	0.018568  
1390.000000	0.019233  
1389.000000	0.020152  
1388.000000	0.021523  
1387.000000	0.023356  
1386.000000	0.025435  
1385.000000	0.027611  
1384.000000	0.029962  
1383.000000	0.032657  
1382.000000	0.035774  
1381.000000	0.039214  
1380.000000	0.042646  
1379.000000	0.045437  
1378.000000	0.046911  
1377.000000	0.046776  
1376.000000	0.045155  
1375.000000	0.042383  
1374.000000	0.039033  
1373.000000	0.035853  
1372.000000	0.033304  
1371.000000	0.031404  
1370.000000	0.030060  
1369.000000	0.029256  
1368.000000	0.028892  
1367.000000	0.028668  
1366.000000	0.028234  
1365.000000	0.027391  
1364.000000	0.026159  
1363.000000	0.024750  
1362.000000	0.023471  
1361.000000	0.022541  
1360.000000	0.021965  
1359.000000	0.021594  
1358.000000	0.021294  
1357.000000	0.021025  
1356.000000	0.020826  
1355.000000	0.020742  
1354.000000	0.020748  
1353.000000	0.020759  
1352.000000	0.020721  
1351.000000	0.020630  
1350.000000	0.020488  
1349.000000	0.020302  
1348.000000	0.020079  
1347.000000	0.019810  
1346.000000	0.019495  
1345.000000	0.019177  
1344.000000	0.018924  
1343.000000	0.018742  
1342.000000	0.018562  
1341.000000	0.018313  
1340.000000	0.017974  
1339.000000	0.017569  
1338.000000	0.017143  
1337.000000	0.016738  
1336.000000	0.016377  
1335.000000	0.016062  
1334.000000	0.015779  
1333.000000	0.015523  
1332.000000	0.015321  
1331.000000	0.015198  
1330.000000	0.015130  
1329.000000	0.015077  
1328.000000	0.015043  
1327.000000	0.015053  
1326.000000	0.015102  
1325.000000	0.015169  
1324.000000	0.015250  
1323.000000	0.015351  
1322.000000	0.015473  
1321.000000	0.015610  
1320.000000	0.015759  
1319.000000	0.015916  
1318.000000	0.016070  
1317.000000	0.016209  
1316.000000	0.016330  
1315.000000	0.016446  
1314.000000	0.016577  
1313.000000	0.016733  
1312.000000	0.016902  
1311.000000	0.017072  
1310.000000	0.017238  
1309.000000	0.017409  
1308.000000	0.017583  
1307.000000	0.017742  
1306.000000	0.017857  
1305.000000	0.017920  
1304.000000	0.017925  
1303.000000	0.017870  
1302.000000	0.017774  
1301.000000	0.017682  
1300.000000	0.017616  
1299.000000	0.017543  
1298.000000	0.017411  
1297.000000	0.017211  
1296.000000	0.016980  
1295.000000	0.016741  
1294.000000	0.016481  
1293.000000	0.016185  
1292.000000	0.015891  
1291.000000	0.015680  
1290.000000	0.015608  
1289.000000	0.015671  
1288.000000	0.015817  
1287.000000	0.015996  
1286.000000	0.016195  
1285.000000	0.016431  
1284.000000	0.016701  
1283.000000	0.016972  
1282.000000	0.017212  
1281.000000	0.017429  
1280.000000	0.017644  
1279.000000	0.017857  
1278.000000	0.018060  
1277.000000	0.018263  
1276.000000	0.018494  
1275.000000	0.018749  
1274.000000	0.018998  
1273.000000	0.019220  
1272.000000	0.019411  
1271.000000	0.019562  
1270.000000	0.019658  
1269.000000	0.019714  
1268.000000	0.019770  
1267.000000	0.019847  
1266.000000	0.019911  
1265.000000	0.019922  
1264.000000	0.019891  
1263.000000	0.019891  
1262.000000	0.019989  
1261.000000	0.020186  
1260.000000	0.020407  
1259.000000	0.020561  
1258.000000	0.020616  
1257.000000	0.020610  
1256.000000	0.020599  
1255.000000	0.020621  
1254.000000	0.020723  
1253.000000	0.020959  
1252.000000	0.021335  
1251.000000	0.021768  
1250.000000	0.022147  
1249.000000	0.022448  
1248.000000	0.022748  
1247.000000	0.023119  
1246.000000	0.023539  
1245.000000	0.023914  
1244.000000	0.024153  
1243.000000	0.024232  
1242.000000	0.024191  
1241.000000	0.024091  
1240.000000	0.023965  
1239.000000	0.023792  
1238.000000	0.023530  
1237.000000	0.023173  
1236.000000	0.022767  
1235.000000	0.022368  
1234.000000	0.021986  
1233.000000	0.021587  
1232.000000	0.021149  
1231.000000	0.020696  
1230.000000	0.020277  
1229.000000	0.019925  
1228.000000	0.019646  
1227.000000	0.019444  
1226.000000	0.019312  
1225.000000	0.019214  
1224.000000	0.019098  
1223.000000	0.018944  
1222.000000	0.018780  
1221.000000	0.018642  
1220.000000	0.018537  
1219.000000	0.018460  
1218.000000	0.018433  
1217.000000	0.018490  
1216.000000	0.018634  
1215.000000	0.018811  
1214.000000	0.018955  
1213.000000	0.019042  
1212.000000	0.019109  
1211.000000	0.019228  
1210.000000	0.019435  
1209.000000	0.019684  
1208.000000	0.019890  
1207.000000	0.020023  
1206.000000	0.020155  
1205.000000	0.020371  
1204.000000	0.020668  
1203.000000	0.020980  
1202.000000	0.021284  
1201.000000	0.021630  
1200.000000	0.022058  
1199.000000	0.022551  
1198.000000	0.023080  
1197.000000	0.023658  
1196.000000	0.024305  
1195.000000	0.025017  
1194.000000	0.025787  
1193.000000	0.026613  
1192.000000	0.027462  
1191.000000	0.028251  
1190.000000	0.028933  
1189.000000	0.029562  
1188.000000	0.030242  
1187.000000	0.031026  
1186.000000	0.031886  
1185.000000	0.032774  
1184.000000	0.033660  
1183.000000	0.034538  
1182.000000	0.035418  
1181.000000	0.036306  
1180.000000	0.037167  
1179.000000	0.037925  
1178.000000	0.038530  
1177.000000	0.038985  
1176.000000	0.039312  
1175.000000	0.039503  
1174.000000	0.039548  
1173.000000	0.039474  
1172.000000	0.039315  
1171.000000	0.039078  
1170.000000	0.038750  
1169.000000	0.038330  
1168.000000	0.037832  
1167.000000	0.037258  
1166.000000	0.036615  
1165.000000	0.035901  
1164.000000	0.035095  
1163.000000	0.034168  
1162.000000	0.033153  
1161.000000	0.032158  
1160.000000	0.031275  
1159.000000	0.030485  
1158.000000	0.029703  
1157.000000	0.028883  
1156.000000	0.028053  
1155.000000	0.027253  
1154.000000	0.026490  
1153.000000	0.025763  
1152.000000	0.025087  
1151.000000	0.024476  
1150.000000	0.023940  
1149.000000	0.023483  
1148.000000	0.023097  
1147.000000	0.022742  
1146.000000	0.022363  
1145.000000	0.021935  
1144.000000	0.021468  
1143.000000	0.020954  
1142.000000	0.020377  
1141.000000	0.019750  
1140.000000	0.019130  
1139.000000	0.018569  
1138.000000	0.018098  
1137.000000	0.017736  
1136.000000	0.017483  
1135.000000	0.017269  
1134.000000	0.017000  
1133.000000	0.016663  
1132.000000	0.016359  
1131.000000	0.016191  
1130.000000	0.016166  
1129.000000	0.016236  
1128.000000	0.016395  
1127.000000	0.016656  
1126.000000	0.016986  
1125.000000	0.017319  
1124.000000	0.017639  
1123.000000	0.017966  
1122.000000	0.018292  
1121.000000	0.018560  
1120.000000	0.018724  
1119.000000	0.018773  
1118.000000	0.018711  
1117.000000	0.018556  
1116.000000	0.018344  
1115.000000	0.018111  
1114.000000	0.017853  
1113.000000	0.017546  
1112.000000	0.017200  
1111.000000	0.016863  
1110.000000	0.016553  
1109.000000	0.016264  
1108.000000	0.016029  
1107.000000	0.015941  
1106.000000	0.016045  
1105.000000	0.016256  
1104.000000	0.016418  
1103.000000	0.016451  
1102.000000	0.016423  
1101.000000	0.016463  
1100.000000	0.016623  
1099.000000	0.016844  
1098.000000	0.017008  
1097.000000	0.017063  
1096.000000	0.017058  
1095.000000	0.017064  
1094.000000	0.017079  
1093.000000	0.017048  
1092.000000	0.016944  
1091.000000	0.016807  
1090.000000	0.016669  
1089.000000	0.016510  
1088.000000	0.016305  
1087.000000	0.016086  
1086.000000	0.015924  
1085.000000	0.015847  
1084.000000	0.015808  
1083.000000	0.015718  
1082.000000	0.015524  
1081.000000	0.015260  
1080.000000	0.015049  
1079.000000	0.015025  
1078.000000	0.015238  
1077.000000	0.015608  
1076.000000	0.016011  
1075.000000	0.016378  
1074.000000	0.016720  
1073.000000	0.017054  
1072.000000	0.017356  
1071.000000	0.017591  
1070.000000	0.017773  
1069.000000	0.017956  
1068.000000	0.018180  
1067.000000	0.018420  
1066.000000	0.018618  
1065.000000	0.018747  
1064.000000	0.018813  
1063.000000	0.018805  
1062.000000	0.018660  
1061.000000	0.018320  
1060.000000	0.017826  
1059.000000	0.017332  
1058.000000	0.016994  
1057.000000	0.016866  
1056.000000	0.016892  
1055.000000	0.016966  
1054.000000	0.016959  
1053.000000	0.016734  
1052.000000	0.016240  
1051.000000	0.015619  
1050.000000	0.015159  
1049.000000	0.015048  
1048.000000	0.015210  
1047.000000	0.015419  
1046.000000	0.015528  
1045.000000	0.015550  
1044.000000	0.015581  
1043.000000	0.015698  
1042.000000	0.015911  
1041.000000	0.016161  
1040.000000	0.016340  
1039.000000	0.016365  
1038.000000	0.016235  
1037.000000	0.016034  
1036.000000	0.015865  
1035.000000	0.015795  
1034.000000	0.015851  
1033.000000	0.016014  
1032.000000	0.016204  
1031.000000	0.016315  
1030.000000	0.016300  
1029.000000	0.016210  
1028.000000	0.016137  
1027.000000	0.016129  
1026.000000	0.016164  
1025.000000	0.016183  
1024.000000	0.016126  
1023.000000	0.015967  
1022.000000	0.015729  
1021.000000	0.015466  
1020.000000	0.015196  
1019.000000	0.014902  
1018.000000	0.014583  
1017.000000	0.014311  
1016.000000	0.014165  
1015.000000	0.014137  
1014.000000	0.014137  
1013.000000	0.014076  
1012.000000	0.013938  
1011.000000	0.013762  
1010.000000	0.013607  
1009.000000	0.013521  
1008.000000	0.013511  
1007.000000	0.013535  
1006.000000	0.013537  
1005.000000	0.013503  
1004.000000	0.013455  
1003.000000	0.013407  
1002.000000	0.013349  
1001.000000	0.013275  
1000.000000	0.013173  
999.000000	 0.013010  
998.000000	 0.012759  
997.000000	 0.012477  
996.000000	 0.012286  
995.000000	 0.012263  
994.000000	 0.012353  
993.000000	 0.012434  
992.000000	 0.012430  
991.000000	 0.012355  
990.000000	 0.012274  
989.000000	 0.012253  
988.000000	 0.012315  
987.000000	 0.012405  
986.000000	 0.012424  
985.000000	 0.012345  
984.000000	 0.012262  
983.000000	 0.012303  
982.000000	 0.012492  
981.000000	 0.012745  
980.000000	 0.012978  
979.000000	 0.013181  
978.000000	 0.013384  
977.000000	 0.013601  
976.000000	 0.013818  
975.000000	 0.014018  
974.000000	 0.014189  
973.000000	 0.014332  
972.000000	 0.014472  
971.000000	 0.014637  
970.000000	 0.014823  
969.000000	 0.014991  
968.000000	 0.015098  
967.000000	 0.015121  
966.000000	 0.015051  
965.000000	 0.014890  
964.000000	 0.014659  
963.000000	 0.014410  
962.000000	 0.014201  
961.000000	 0.014060  
960.000000	 0.013964  
959.000000	 0.013863  
958.000000	 0.013733  
957.000000	 0.013609  
956.000000	 0.013551  
955.000000	 0.013570  
954.000000	 0.013603  
953.000000	 0.013588  
952.000000	 0.013528  
951.000000	 0.013474  
950.000000	 0.013447  
949.000000	 0.013421  
948.000000	 0.013377  
947.000000	 0.013340  
946.000000	 0.013351  
945.000000	 0.013413  
944.000000	 0.013480  
943.000000	 0.013492  
942.000000	 0.013405  
941.000000	 0.013202  
940.000000	 0.012891  
939.000000	 0.012499  
938.000000	 0.012083  
937.000000	 0.011715  
936.000000	 0.011455  
935.000000	 0.011316  
934.000000	 0.011272  
933.000000	 0.011305  
932.000000	 0.011409  
931.000000	 0.011536  
930.000000	 0.011585  
929.000000	 0.011494  
928.000000	 0.011333  
927.000000	 0.011255  
926.000000	 0.011343  
925.000000	 0.011530  
924.000000	 0.011692  
923.000000	 0.011783  
922.000000	 0.011837  
921.000000	 0.011890  
920.000000	 0.011930  
919.000000	 0.011944  
918.000000	 0.011960  
917.000000	 0.012020  
916.000000	 0.012121  
915.000000	 0.012199  
914.000000	 0.012182  
913.000000	 0.012046  
912.000000	 0.011829  
911.000000	 0.011613  
910.000000	 0.011477  
909.000000	 0.011456  
908.000000	 0.011506  
907.000000	 0.011517  
906.000000	 0.011404  
905.000000	 0.011194  
904.000000	 0.011017  
903.000000	 0.010981  
902.000000	 0.011068  
901.000000	 0.011166  
900.000000	 0.011190  
899.000000	 0.011155  
898.000000	 0.011124  
897.000000	 0.011124  
896.000000	 0.011127  
895.000000	 0.011093  
894.000000	 0.011024  
893.000000	 0.010965  
892.000000	 0.010959  
891.000000	 0.011018  
890.000000	 0.011124  
889.000000	 0.011247  
888.000000	 0.011354  
887.000000	 0.011413  
886.000000	 0.011419  
885.000000	 0.011399  
884.000000	 0.011378  
883.000000	 0.011338  
882.000000	 0.011258  
881.000000	 0.011184  
880.000000	 0.011204  
879.000000	 0.011338  
878.000000	 0.011489  
877.000000	 0.011553  
876.000000	 0.011534  
875.000000	 0.011497  
874.000000	 0.011447  
873.000000	 0.011319  
872.000000	 0.011091  
871.000000	 0.010865  
870.000000	 0.010796  
869.000000	 0.010967  
868.000000	 0.011297  
867.000000	 0.011591  
866.000000	 0.011662  
865.000000	 0.011476  
864.000000	 0.011163  
863.000000	 0.010898  
862.000000	 0.010778  
861.000000	 0.010809  
860.000000	 0.010958  
859.000000	 0.011163  
858.000000	 0.011329  
857.000000	 0.011386  
856.000000	 0.011380  
855.000000	 0.011446  
854.000000	 0.011676  
853.000000	 0.012026  
852.000000	 0.012377  
851.000000	 0.012651  
850.000000	 0.012835  
849.000000	 0.012942  
848.000000	 0.012982  
847.000000	 0.012980  
846.000000	 0.012983  
845.000000	 0.013027  
844.000000	 0.013102  
843.000000	 0.013160  
842.000000	 0.013159  
841.000000	 0.013100  
840.000000	 0.013015  
839.000000	 0.012938  
838.000000	 0.012881  
837.000000	 0.012826  
836.000000	 0.012702  
835.000000	 0.012420  
834.000000	 0.011967  
833.000000	 0.011483  
832.000000	 0.011177  
831.000000	 0.011122  
830.000000	 0.011183  
829.000000	 0.011193  
828.000000	 0.011175  
827.000000	 0.011293  
826.000000	 0.011601  
825.000000	 0.011922  
824.000000	 0.012038  
823.000000	 0.011912  
822.000000	 0.011676  
821.000000	 0.011494  
820.000000	 0.011474  
819.000000	 0.011650  
818.000000	 0.011980  
817.000000	 0.012361  
816.000000	 0.012680  
815.000000	 0.012850  
814.000000	 0.012830  
813.000000	 0.012650  
812.000000	 0.012420  
811.000000	 0.012287  
810.000000	 0.012348  
809.000000	 0.012606  
808.000000	 0.012986  
807.000000	 0.013372  
806.000000	 0.013622  
805.000000	 0.013611  
804.000000	 0.013302  
803.000000	 0.012777  
802.000000	 0.012188  
801.000000	 0.011688  
800.000000	 0.011372  
799.000000	 0.011245  
798.000000	 0.011221  
797.000000	 0.011188  
796.000000	 0.011082  
795.000000	 0.010912  
794.000000	 0.010731  
793.000000	 0.010616  
792.000000	 0.010663  
791.000000	 0.010917  
790.000000	 0.011279  
789.000000	 0.011540  
788.000000	 0.011571  
787.000000	 0.011467  
786.000000	 0.011463  
785.000000	 0.011696  
784.000000	 0.012086  
783.000000	 0.012453  
782.000000	 0.012714  
781.000000	 0.012943  
780.000000	 0.013255  
779.000000	 0.013667  
778.000000	 0.014094  
777.000000	 0.014478  
776.000000	 0.014847  
775.000000	 0.015258  
774.000000	 0.015698  
773.000000	 0.016088  
772.000000	 0.016378  
771.000000	 0.016584  
770.000000	 0.016756  
769.000000	 0.016922  
768.000000	 0.017072  
767.000000	 0.017167  
766.000000	 0.017153  
765.000000	 0.017014  
764.000000	 0.016824  
763.000000	 0.016722  
762.000000	 0.016815  
761.000000	 0.017094  
760.000000	 0.017443  
759.000000	 0.017726  
758.000000	 0.017872  
757.000000	 0.017915  
756.000000	 0.017957  
755.000000	 0.018076  
754.000000	 0.018266  
753.000000	 0.018469  
752.000000	 0.018671  
751.000000	 0.018920  
750.000000	 0.019261  
749.000000	 0.019691  
748.000000	 0.020191  
747.000000	 0.020800  
746.000000	 0.021617  
745.000000	 0.022715  
744.000000	 0.024056  
743.000000	 0.025456  
742.000000	 0.026673  
741.000000	 0.027553  
740.000000	 0.028133  
739.000000	 0.028571  
738.000000	 0.028978  
737.000000	 0.029330  
736.000000	 0.029556  
735.000000	 0.029663  
734.000000	 0.029759  
733.000000	 0.029965  
732.000000	 0.030337  
731.000000	 0.030837  
730.000000	 0.031410  
729.000000	 0.032102  
728.000000	 0.033052  
727.000000	 0.034306  
726.000000	 0.035718  
725.000000	 0.037041  
724.000000	 0.038125  
723.000000	 0.038969  
722.000000	 0.039511  
721.000000	 0.039414  
720.000000	 0.038257  
719.000000	 0.036101  
718.000000	 0.033602  
717.000000	 0.031469  
716.000000	 0.030008  
715.000000	 0.029088  
714.000000	 0.028365  
713.000000	 0.027573  
712.000000	 0.026653  
711.000000	 0.025717  
710.000000	 0.024935  
709.000000	 0.024436  
708.000000	 0.024214  
707.000000	 0.024133  
706.000000	 0.024097  
705.000000	 0.024148  
704.000000	 0.024316  
703.000000	 0.024496  
702.000000	 0.024533  
701.000000	 0.024420  
700.000000	 0.024317  
699.000000	 0.024295  
698.000000	 0.024184  
697.000000	 0.023720  
696.000000	 0.022861  
695.000000	 0.021936  
694.000000	 0.021342  
693.000000	 0.021099  
692.000000	 0.020816  
691.000000	 0.020081  
690.000000	 0.018932  
689.000000	 0.017805  
688.000000	 0.016999  
687.000000	 0.016411  
686.000000	 0.015801  
685.000000	 0.015164  
684.000000	 0.014681  
683.000000	 0.014410  
682.000000	 0.014243  
681.000000	 0.014086  
680.000000	 0.013900  
679.000000	 0.013595  
678.000000	 0.013176  
677.000000	 0.012949  
676.000000	 0.012994  
675.000000	 0.013101  
674.000000	 0.013114  
673.000000	 0.012897  
672.000000	 0.011802  
671.000000	 0.008362  
670.000000	 0.001357  
669.000000	 -0.009031 
668.000000	 -0.016610 
667.000000	 -0.012215 
666.000000	 -0.001741 
665.000000	 0.005904  
664.000000	 0.009811  
663.000000	 0.011400  
662.000000	 0.011767  
661.000000	 0.011446  
660.000000	 0.010947  
659.000000	 0.010759  
658.000000	 0.010860  
657.000000	 0.010821  
656.000000	 0.010222  
655.000000	 0.009286  
654.000000	 0.008674  
653.000000	 0.008750  
652.000000	 0.009266  
651.000000	 0.009753  
650.000000	 0.009980  

