PE IR                   SPECTRUM    ASCII       PEDS        1.60        
  -1
NB4-00~1.ASC
17/04/10
13:08:14.00
17/04/10
13:08:14.00
Admin

650.000000
6









SPECTRUM ONE,CPU32 MAIN 00.02.5000 17-APRIL-2002 13:00:00
MIR TGS
MIR
OPTKBR
68128
0.200000

4.000000
STRONG
RATIO
SPECTRUM
MAGNITUDE

DOUBLE

COMBINED


0


#HDR
-1
-1
#GR
CM-1
A
0.00000011920928955078
0.0
4000.000000
-1.000000
3351
8
0.219809
-0.001468
#DATA
4000.000000	0.000875  
3999.000000	0.000877  
3998.000000	0.000925  
3997.000000	0.001004  
3996.000000	0.001175  
3995.000000	0.001351  
3994.000000	0.001468  
3993.000000	0.001493  
3992.000000	0.001438  
3991.000000	0.001348  
3990.000000	0.001268  
3989.000000	0.001221  
3988.000000	0.001198  
3987.000000	0.001185  
3986.000000	0.001189  
3985.000000	0.001224  
3984.000000	0.001275  
3983.000000	0.001281  
3982.000000	0.001185  
3981.000000	0.000999  
3980.000000	0.000806  
3979.000000	0.000695  
3978.000000	0.000695  
3977.000000	0.000782  
3976.000000	0.000919  
3975.000000	0.001092  
3974.000000	0.001274  
3973.000000	0.001408  
3972.000000	0.001438  
3971.000000	0.001361  
3970.000000	0.001238  
3969.000000	0.001134  
3968.000000	0.001060  
3967.000000	0.000979  
3966.000000	0.000874  
3965.000000	0.000782  
3964.000000	0.000768  
3963.000000	0.000862  
3962.000000	0.001028  
3961.000000	0.001194  
3960.000000	0.001309  
3959.000000	0.001361  
3958.000000	0.001357  
3957.000000	0.001304  
3956.000000	0.001209  
3955.000000	0.001089  
3954.000000	0.000974  
3953.000000	0.000887  
3952.000000	0.000832  
3951.000000	0.000799  
3950.000000	0.000789  
3949.000000	0.000826  
3948.000000	0.000932  
3947.000000	0.001093  
3946.000000	0.001243  
3945.000000	0.001299  
3944.000000	0.001209  
3943.000000	0.001009  
3942.000000	0.000797  
3941.000000	0.000672  
3940.000000	0.000676  
3939.000000	0.000794  
3938.000000	0.000966  
3937.000000	0.001121  
3936.000000	0.001201  
3935.000000	0.001191  
3934.000000	0.001134  
3933.000000	0.001099  
3932.000000	0.001126  
3931.000000	0.001182  
3930.000000	0.001202  
3929.000000	0.001164  
3928.000000	0.001114  
3927.000000	0.001114  
3926.000000	0.001180  
3925.000000	0.001266  
3924.000000	0.001327  
3923.000000	0.001356  
3922.000000	0.001373  
3921.000000	0.001382  
3920.000000	0.001375  
3919.000000	0.001342  
3918.000000	0.001285  
3917.000000	0.001216  
3916.000000	0.001160  
3915.000000	0.001146  
3914.000000	0.001180  
3913.000000	0.001230  
3912.000000	0.001242  
3911.000000	0.001191  
3910.000000	0.001096  
3909.000000	0.000999  
3908.000000	0.000931  
3907.000000	0.000897  
3906.000000	0.000886  
3905.000000	0.000888  
3904.000000	0.000884  
3903.000000	0.000847  
3902.000000	0.000763  
3901.000000	0.000667  
3900.000000	0.000632  
3899.000000	0.000709  
3898.000000	0.000859  
3897.000000	0.000984  
3896.000000	0.001005  
3895.000000	0.000933  
3894.000000	0.000861  
3893.000000	0.000877  
3892.000000	0.000958  
3891.000000	0.000989  
3890.000000	0.000925  
3889.000000	0.000845  
3888.000000	0.000851  
3887.000000	0.000945  
3886.000000	0.001026  
3885.000000	0.001014  
3884.000000	0.000946  
3883.000000	0.000911  
3882.000000	0.000946  
3881.000000	0.000999  
3880.000000	0.000991  
3879.000000	0.000922  
3878.000000	0.000870  
3877.000000	0.000914  
3876.000000	0.001054  
3875.000000	0.001214  
3874.000000	0.001329  
3873.000000	0.001410  
3872.000000	0.001492  
3871.000000	0.001551  
3870.000000	0.001521  
3869.000000	0.001413  
3868.000000	0.001317  
3867.000000	0.001274  
3866.000000	0.001231  
3865.000000	0.001135  
3864.000000	0.001017  
3863.000000	0.000956  
3862.000000	0.000964  
3861.000000	0.000977  
3860.000000	0.000934  
3859.000000	0.000835  
3858.000000	0.000740  
3857.000000	0.000704  
3856.000000	0.000722  
3855.000000	0.000702  
3854.000000	0.000592  
3853.000000	0.000501  
3852.000000	0.000547  
3851.000000	0.000725  
3850.000000	0.000982  
3849.000000	0.001278  
3848.000000	0.001580  
3847.000000	0.001839  
3846.000000	0.002002  
3845.000000	0.002068  
3844.000000	0.002101  
3843.000000	0.002176  
3842.000000	0.002307  
3841.000000	0.002419  
3840.000000	0.002386  
3839.000000	0.002140  
3838.000000	0.001756  
3837.000000	0.001429  
3836.000000	0.001326  
3835.000000	0.001484  
3834.000000	0.001794  
3833.000000	0.002054  
3832.000000	0.002109  
3831.000000	0.001968  
3830.000000	0.001781  
3829.000000	0.001683  
3828.000000	0.001671  
3827.000000	0.001633  
3826.000000	0.001509  
3825.000000	0.001402  
3824.000000	0.001483  
3823.000000	0.001799  
3822.000000	0.002140  
3821.000000	0.002207  
3820.000000	0.001954  
3819.000000	0.001595  
3818.000000	0.001338  
3817.000000	0.001227  
3816.000000	0.001194  
3815.000000	0.001188  
3814.000000	0.001208  
3813.000000	0.001232  
3812.000000	0.001216  
3811.000000	0.001146  
3810.000000	0.001075  
3809.000000	0.001058  
3808.000000	0.001080  
3807.000000	0.001091  
3806.000000	0.001105  
3805.000000	0.001210  
3804.000000	0.001438  
3803.000000	0.001666  
3802.000000	0.001692  
3801.000000	0.001483  
3800.000000	0.001229  
3799.000000	0.001122  
3798.000000	0.001201  
3797.000000	0.001382  
3796.000000	0.001555  
3795.000000	0.001649  
3794.000000	0.001653  
3793.000000	0.001589  
3792.000000	0.001501  
3791.000000	0.001437  
3790.000000	0.001416  
3789.000000	0.001426  
3788.000000	0.001449  
3787.000000	0.001476  
3786.000000	0.001482  
3785.000000	0.001423  
3784.000000	0.001290  
3783.000000	0.001142  
3782.000000	0.001055  
3781.000000	0.001053  
3780.000000	0.001093  
3779.000000	0.001130  
3778.000000	0.001167  
3777.000000	0.001221  
3776.000000	0.001260  
3775.000000	0.001224  
3774.000000	0.001106  
3773.000000	0.000983  
3772.000000	0.000956  
3771.000000	0.001066  
3770.000000	0.001270  
3769.000000	0.001485  
3768.000000	0.001639  
3767.000000	0.001667  
3766.000000	0.001529  
3765.000000	0.001270  
3764.000000	0.001026  
3763.000000	0.000926  
3762.000000	0.000997  
3761.000000	0.001164  
3760.000000	0.001319  
3759.000000	0.001386  
3758.000000	0.001325  
3757.000000	0.001136  
3756.000000	0.000883  
3755.000000	0.000717  
3754.000000	0.000837  
3753.000000	0.001357  
3752.000000	0.002094  
3751.000000	0.002543  
3750.000000	0.002330  
3749.000000	0.001625  
3748.000000	0.000910  
3747.000000	0.000564  
3746.000000	0.000667  
3745.000000	0.000950  
3744.000000	0.001073  
3743.000000	0.001007  
3742.000000	0.000929  
3741.000000	0.000954  
3740.000000	0.001117  
3739.000000	0.001409  
3738.000000	0.001751  
3737.000000	0.001989  
3736.000000	0.002032  
3735.000000	0.001967  
3734.000000	0.001943  
3733.000000	0.001951  
3732.000000	0.001867  
3731.000000	0.001649  
3730.000000	0.001398  
3729.000000	0.001237  
3728.000000	0.001196  
3727.000000	0.001215  
3726.000000	0.001233  
3725.000000	0.001247  
3724.000000	0.001270  
3723.000000	0.001281  
3722.000000	0.001235  
3721.000000	0.001118  
3720.000000	0.000969  
3719.000000	0.000837  
3718.000000	0.000737  
3717.000000	0.000656  
3716.000000	0.000574  
3715.000000	0.000468  
3714.000000	0.000313  
3713.000000	0.000134  
3712.000000	0.000037  
3711.000000	0.000116  
3710.000000	0.000343  
3709.000000	0.000611  
3708.000000	0.000858  
3707.000000	0.001084  
3706.000000	0.001298  
3705.000000	0.001459  
3704.000000	0.001488  
3703.000000	0.001339  
3702.000000	0.001072  
3701.000000	0.000825  
3700.000000	0.000707  
3699.000000	0.000737  
3698.000000	0.000850  
3697.000000	0.000966  
3696.000000	0.001042  
3695.000000	0.001088  
3694.000000	0.001110  
3693.000000	0.001093  
3692.000000	0.001031  
3691.000000	0.000974  
3690.000000	0.000998  
3689.000000	0.001099  
3688.000000	0.001188  
3687.000000	0.001214  
3686.000000	0.001211  
3685.000000	0.001235  
3684.000000	0.001312  
3683.000000	0.001399  
3682.000000	0.001394  
3681.000000	0.001190  
3680.000000	0.000793  
3679.000000	0.000393  
3678.000000	0.000257  
3677.000000	0.000504  
3676.000000	0.000926  
3675.000000	0.001173  
3674.000000	0.001179  
3673.000000	0.001143  
3672.000000	0.001243  
3671.000000	0.001482  
3670.000000	0.001735  
3669.000000	0.001894  
3668.000000	0.001949  
3667.000000	0.001934  
3666.000000	0.001847  
3665.000000	0.001655  
3664.000000	0.001346  
3663.000000	0.000962  
3662.000000	0.000580  
3661.000000	0.000261  
3660.000000	0.000039  
3659.000000	-0.000047 
3658.000000	0.000044  
3657.000000	0.000316  
3656.000000	0.000670  
3655.000000	0.000965  
3654.000000	0.001109  
3653.000000	0.001067  
3652.000000	0.000843  
3651.000000	0.000517  
3650.000000	0.000269  
3649.000000	0.000244  
3648.000000	0.000409  
3647.000000	0.000626  
3646.000000	0.000800  
3645.000000	0.000913  
3644.000000	0.000991  
3643.000000	0.001089  
3642.000000	0.001253  
3641.000000	0.001477  
3640.000000	0.001668  
3639.000000	0.001701  
3638.000000	0.001542  
3637.000000	0.001304  
3636.000000	0.001167  
3635.000000	0.001213  
3634.000000	0.001357  
3633.000000	0.001444  
3632.000000	0.001397  
3631.000000	0.001263  
3630.000000	0.001152  
3629.000000	0.001131  
3628.000000	0.001151  
3627.000000	0.001158  
3626.000000	0.001179  
3625.000000	0.001267  
3624.000000	0.001420  
3623.000000	0.001567  
3622.000000	0.001599  
3621.000000	0.001452  
3620.000000	0.001183  
3619.000000	0.000930  
3618.000000	0.000772  
3617.000000	0.000700  
3616.000000	0.000695  
3615.000000	0.000770  
3614.000000	0.000920  
3613.000000	0.001087  
3612.000000	0.001199  
3611.000000	0.001243  
3610.000000	0.001247  
3609.000000	0.001224  
3608.000000	0.001147  
3607.000000	0.000999  
3606.000000	0.000813  
3605.000000	0.000653  
3604.000000	0.000579  
3603.000000	0.000624  
3602.000000	0.000793  
3601.000000	0.001047  
3600.000000	0.001328  
3599.000000	0.001566  
3598.000000	0.001689  
3597.000000	0.001643  
3596.000000	0.001436  
3595.000000	0.001167  
3594.000000	0.000957  
3593.000000	0.000835  
3592.000000	0.000729  
3591.000000	0.000582  
3590.000000	0.000446  
3589.000000	0.000466  
3588.000000	0.000724  
3587.000000	0.001116  
3586.000000	0.001444  
3585.000000	0.001589  
3584.000000	0.001541  
3583.000000	0.001349  
3582.000000	0.001119  
3581.000000	0.000987  
3580.000000	0.001027  
3579.000000	0.001174  
3578.000000	0.001273  
3577.000000	0.001225  
3576.000000	0.001076  
3575.000000	0.000925  
3574.000000	0.000794  
3573.000000	0.000614  
3572.000000	0.000352  
3571.000000	0.000097  
3570.000000	0.000013  
3569.000000	0.000178  
3568.000000	0.000478  
3567.000000	0.000706  
3566.000000	0.000789  
3565.000000	0.000822  
3564.000000	0.000897  
3563.000000	0.001001  
3562.000000	0.001068  
3561.000000	0.001084  
3560.000000	0.001116  
3559.000000	0.001231  
3558.000000	0.001400  
3557.000000	0.001497  
3556.000000	0.001416  
3555.000000	0.001177  
3554.000000	0.000909  
3553.000000	0.000742  
3552.000000	0.000695  
3551.000000	0.000697  
3550.000000	0.000675  
3549.000000	0.000603  
3548.000000	0.000497  
3547.000000	0.000397  
3546.000000	0.000357  
3545.000000	0.000416  
3544.000000	0.000571  
3543.000000	0.000785  
3542.000000	0.001012  
3541.000000	0.001219  
3540.000000	0.001375  
3539.000000	0.001440  
3538.000000	0.001377  
3537.000000	0.001185  
3536.000000	0.000923  
3535.000000	0.000689  
3534.000000	0.000574  
3533.000000	0.000625  
3532.000000	0.000816  
3531.000000	0.001055  
3530.000000	0.001221  
3529.000000	0.001236  
3528.000000	0.001121  
3527.000000	0.000955  
3526.000000	0.000792  
3525.000000	0.000624  
3524.000000	0.000453  
3523.000000	0.000356  
3522.000000	0.000418  
3521.000000	0.000626  
3520.000000	0.000859  
3519.000000	0.001006  
3518.000000	0.001063  
3517.000000	0.001111  
3516.000000	0.001216  
3515.000000	0.001366  
3514.000000	0.001496  
3513.000000	0.001542  
3512.000000	0.001489  
3511.000000	0.001388  
3510.000000	0.001315  
3509.000000	0.001303  
3508.000000	0.001311  
3507.000000	0.001288  
3506.000000	0.001229  
3505.000000	0.001175  
3504.000000	0.001170  
3503.000000	0.001225  
3502.000000	0.001313  
3501.000000	0.001380  
3500.000000	0.001376  
3499.000000	0.001307  
3498.000000	0.001247  
3497.000000	0.001278  
3496.000000	0.001400  
3495.000000	0.001528  
3494.000000	0.001558  
3493.000000	0.001436  
3492.000000	0.001163  
3491.000000	0.000811  
3490.000000	0.000509  
3489.000000	0.000378  
3488.000000	0.000439  
3487.000000	0.000622  
3486.000000	0.000850  
3485.000000	0.001086  
3484.000000	0.001283  
3483.000000	0.001360  
3482.000000	0.001269  
3481.000000	0.001074  
3480.000000	0.000909  
3479.000000	0.000867  
3478.000000	0.000942  
3477.000000	0.001059  
3476.000000	0.001144  
3475.000000	0.001167  
3474.000000	0.001155  
3473.000000	0.001149  
3472.000000	0.001145  
3471.000000	0.001087  
3470.000000	0.000937  
3469.000000	0.000734  
3468.000000	0.000564  
3467.000000	0.000491  
3466.000000	0.000514  
3465.000000	0.000586  
3464.000000	0.000636  
3463.000000	0.000620  
3462.000000	0.000555  
3461.000000	0.000514  
3460.000000	0.000556  
3459.000000	0.000670  
3458.000000	0.000799  
3457.000000	0.000905  
3456.000000	0.000972  
3455.000000	0.000986  
3454.000000	0.000946  
3453.000000	0.000908  
3452.000000	0.000948  
3451.000000	0.001084  
3450.000000	0.001242  
3449.000000	0.001318  
3448.000000	0.001266  
3447.000000	0.001128  
3446.000000	0.000998  
3445.000000	0.000959  
3444.000000	0.001024  
3443.000000	0.001141  
3442.000000	0.001247  
3441.000000	0.001338  
3440.000000	0.001464  
3439.000000	0.001637  
3438.000000	0.001772  
3437.000000	0.001740  
3436.000000	0.001496  
3435.000000	0.001152  
3434.000000	0.000911  
3433.000000	0.000917  
3432.000000	0.001142  
3431.000000	0.001407  
3430.000000	0.001532  
3429.000000	0.001453  
3428.000000	0.001229  
3427.000000	0.000957  
3426.000000	0.000721  
3425.000000	0.000586  
3424.000000	0.000584  
3423.000000	0.000696  
3422.000000	0.000850  
3421.000000	0.000977  
3420.000000	0.001054  
3419.000000	0.001089  
3418.000000	0.001097  
3417.000000	0.001091  
3416.000000	0.001094  
3415.000000	0.001122  
3414.000000	0.001178  
3413.000000	0.001253  
3412.000000	0.001336  
3411.000000	0.001413  
3410.000000	0.001455  
3409.000000	0.001419  
3408.000000	0.001268  
3407.000000	0.001009  
3406.000000	0.000703  
3405.000000	0.000450  
3404.000000	0.000337  
3403.000000	0.000389  
3402.000000	0.000570  
3401.000000	0.000810  
3400.000000	0.001020  
3399.000000	0.001112  
3398.000000	0.001057  
3397.000000	0.000938  
3396.000000	0.000912  
3395.000000	0.001068  
3394.000000	0.001346  
3393.000000	0.001590  
3392.000000	0.001674  
3391.000000	0.001587  
3390.000000	0.001411  
3389.000000	0.001251  
3388.000000	0.001173  
3387.000000	0.001165  
3386.000000	0.001158  
3385.000000	0.001106  
3384.000000	0.001048  
3383.000000	0.001061  
3382.000000	0.001188  
3381.000000	0.001396  
3380.000000	0.001605  
3379.000000	0.001729  
3378.000000	0.001694  
3377.000000	0.001468  
3376.000000	0.001115  
3375.000000	0.000780  
3374.000000	0.000606  
3373.000000	0.000639  
3372.000000	0.000808  
3371.000000	0.001007  
3370.000000	0.001184  
3369.000000	0.001352  
3368.000000	0.001518  
3367.000000	0.001644  
3366.000000	0.001686  
3365.000000	0.001646  
3364.000000	0.001570  
3363.000000	0.001488  
3362.000000	0.001406  
3361.000000	0.001355  
3360.000000	0.001387  
3359.000000	0.001494  
3358.000000	0.001569  
3357.000000	0.001505  
3356.000000	0.001321  
3355.000000	0.001142  
3354.000000	0.001060  
3353.000000	0.001051  
3352.000000	0.001044  
3351.000000	0.001011  
3350.000000	0.000975  
3349.000000	0.000969  
3348.000000	0.001017  
3347.000000	0.001126  
3346.000000	0.001272  
3345.000000	0.001384  
3344.000000	0.001401  
3343.000000	0.001327  
3342.000000	0.001229  
3341.000000	0.001160  
3340.000000	0.001106  
3339.000000	0.001026  
3338.000000	0.000923  
3337.000000	0.000858  
3336.000000	0.000891  
3335.000000	0.001005  
3334.000000	0.001115  
3333.000000	0.001143  
3332.000000	0.001092  
3331.000000	0.001029  
3330.000000	0.001012  
3329.000000	0.001057  
3328.000000	0.001141  
3327.000000	0.001224  
3326.000000	0.001262  
3325.000000	0.001233  
3324.000000	0.001163  
3323.000000	0.001117  
3322.000000	0.001128  
3321.000000	0.001175  
3320.000000	0.001221  
3319.000000	0.001267  
3318.000000	0.001338  
3317.000000	0.001424  
3316.000000	0.001472  
3315.000000	0.001439  
3314.000000	0.001336  
3313.000000	0.001219  
3312.000000	0.001144  
3311.000000	0.001154  
3310.000000	0.001257  
3309.000000	0.001400  
3308.000000	0.001470  
3307.000000	0.001386  
3306.000000	0.001191  
3305.000000	0.001043  
3304.000000	0.001060  
3303.000000	0.001208  
3302.000000	0.001345  
3301.000000	0.001383  
3300.000000	0.001343  
3299.000000	0.001279  
3298.000000	0.001208  
3297.000000	0.001132  
3296.000000	0.001094  
3295.000000	0.001140  
3294.000000	0.001252  
3293.000000	0.001361  
3292.000000	0.001427  
3291.000000	0.001447  
3290.000000	0.001412  
3289.000000	0.001300  
3288.000000	0.001127  
3287.000000	0.000972  
3286.000000	0.000897  
3285.000000	0.000884  
3284.000000	0.000882  
3283.000000	0.000887  
3282.000000	0.000938  
3281.000000	0.001039  
3280.000000	0.001129  
3279.000000	0.001147  
3278.000000	0.001101  
3277.000000	0.001059  
3276.000000	0.001080  
3275.000000	0.001176  
3274.000000	0.001316  
3273.000000	0.001453  
3272.000000	0.001547  
3271.000000	0.001575  
3270.000000	0.001531  
3269.000000	0.001420  
3268.000000	0.001252  
3267.000000	0.001051  
3266.000000	0.000878  
3265.000000	0.000820  
3264.000000	0.000929  
3263.000000	0.001161  
3262.000000	0.001405  
3261.000000	0.001576  
3260.000000	0.001682  
3259.000000	0.001780  
3258.000000	0.001886  
3257.000000	0.001941  
3256.000000	0.001876  
3255.000000	0.001696  
3254.000000	0.001492  
3253.000000	0.001385  
3252.000000	0.001437  
3251.000000	0.001592  
3250.000000	0.001728  
3249.000000	0.001779  
3248.000000	0.001784  
3247.000000	0.001805  
3246.000000	0.001814  
3245.000000	0.001737  
3244.000000	0.001580  
3243.000000	0.001459  
3242.000000	0.001458  
3241.000000	0.001540  
3240.000000	0.001598  
3239.000000	0.001572  
3238.000000	0.001465  
3237.000000	0.001296  
3236.000000	0.001099  
3235.000000	0.000929  
3234.000000	0.000842  
3233.000000	0.000858  
3232.000000	0.000966  
3231.000000	0.001140  
3230.000000	0.001332  
3229.000000	0.001462  
3228.000000	0.001488  
3227.000000	0.001446  
3226.000000	0.001408  
3225.000000	0.001402  
3224.000000	0.001407  
3223.000000	0.001416  
3222.000000	0.001431  
3221.000000	0.001420  
3220.000000	0.001333  
3219.000000	0.001195  
3218.000000	0.001109  
3217.000000	0.001155  
3216.000000	0.001305  
3215.000000	0.001460  
3214.000000	0.001550  
3213.000000	0.001573  
3212.000000	0.001572  
3211.000000	0.001600  
3210.000000	0.001682  
3209.000000	0.001792  
3208.000000	0.001884  
3207.000000	0.001940  
3206.000000	0.001988  
3205.000000	0.002060  
3204.000000	0.002155  
3203.000000	0.002257  
3202.000000	0.002340  
3201.000000	0.002357  
3200.000000	0.002236  
3199.000000	0.001946  
3198.000000	0.001549  
3197.000000	0.001173  
3196.000000	0.000922  
3195.000000	0.000833  
3194.000000	0.000883  
3193.000000	0.001023  
3192.000000	0.001198  
3191.000000	0.001381  
3190.000000	0.001578  
3189.000000	0.001799  
3188.000000	0.002011  
3187.000000	0.002155  
3186.000000	0.002214  
3185.000000	0.002222  
3184.000000	0.002214  
3183.000000	0.002175  
3182.000000	0.002080  
3181.000000	0.001948  
3180.000000	0.001829  
3179.000000	0.001745  
3178.000000	0.001679  
3177.000000	0.001629  
3176.000000	0.001649  
3175.000000	0.001778  
3174.000000	0.001971  
3173.000000	0.002109  
3172.000000	0.002120  
3171.000000	0.002043  
3170.000000	0.001973  
3169.000000	0.001963  
3168.000000	0.001988  
3167.000000	0.001997  
3166.000000	0.001972  
3165.000000	0.001934  
3164.000000	0.001902  
3163.000000	0.001878  
3162.000000	0.001854  
3161.000000	0.001835  
3160.000000	0.001846  
3159.000000	0.001904  
3158.000000	0.001994  
3157.000000	0.002076  
3156.000000	0.002123  
3155.000000	0.002146  
3154.000000	0.002183  
3153.000000	0.002256  
3152.000000	0.002333  
3151.000000	0.002340  
3150.000000	0.002216  
3149.000000	0.001978  
3148.000000	0.001723  
3147.000000	0.001548  
3146.000000	0.001474  
3145.000000	0.001458  
3144.000000	0.001463  
3143.000000	0.001489  
3142.000000	0.001530  
3141.000000	0.001552  
3140.000000	0.001543  
3139.000000	0.001557  
3138.000000	0.001657  
3137.000000	0.001822  
3136.000000	0.001944  
3135.000000	0.001933  
3134.000000	0.001807  
3133.000000	0.001682  
3132.000000	0.001668  
3131.000000	0.001785  
3130.000000	0.001942  
3129.000000	0.002018  
3128.000000	0.001967  
3127.000000	0.001850  
3126.000000	0.001753  
3125.000000	0.001710  
3124.000000	0.001715  
3123.000000	0.001774  
3122.000000	0.001889  
3121.000000	0.002008  
3120.000000	0.002045  
3119.000000	0.001962  
3118.000000	0.001813  
3117.000000	0.001690  
3116.000000	0.001662  
3115.000000	0.001746  
3114.000000	0.001910  
3113.000000	0.002072  
3112.000000	0.002156  
3111.000000	0.002154  
3110.000000	0.002129  
3109.000000	0.002125  
3108.000000	0.002110  
3107.000000	0.002027  
3106.000000	0.001875  
3105.000000	0.001718  
3104.000000	0.001646  
3103.000000	0.001714  
3102.000000	0.001898  
3101.000000	0.002094  
3100.000000	0.002178  
3099.000000	0.002108  
3098.000000	0.001959  
3097.000000	0.001847  
3096.000000	0.001841  
3095.000000	0.001922  
3094.000000	0.002024  
3093.000000	0.002081  
3092.000000	0.002077  
3091.000000	0.002059  
3090.000000	0.002091  
3089.000000	0.002176  
3088.000000	0.002250  
3087.000000	0.002274  
3086.000000	0.002280  
3085.000000	0.002311  
3084.000000	0.002348  
3083.000000	0.002347  
3082.000000	0.002328  
3081.000000	0.002373  
3080.000000	0.002527  
3079.000000	0.002750  
3078.000000	0.002966  
3077.000000	0.003123  
3076.000000	0.003192  
3075.000000	0.003156  
3074.000000	0.003029  
3073.000000	0.002868  
3072.000000	0.002756  
3071.000000	0.002750  
3070.000000	0.002842  
3069.000000	0.002967  
3068.000000	0.003048  
3067.000000	0.003060  
3066.000000	0.003056  
3065.000000	0.003117  
3064.000000	0.003271  
3063.000000	0.003458  
3062.000000	0.003582  
3061.000000	0.003589  
3060.000000	0.003503  
3059.000000	0.003401  
3058.000000	0.003348  
3057.000000	0.003352  
3056.000000	0.003383  
3055.000000	0.003428  
3054.000000	0.003498  
3053.000000	0.003580  
3052.000000	0.003617  
3051.000000	0.003569  
3050.000000	0.003489  
3049.000000	0.003482  
3048.000000	0.003598  
3047.000000	0.003785  
3046.000000	0.003961  
3045.000000	0.004076  
3044.000000	0.004114  
3043.000000	0.004062  
3042.000000	0.003936  
3041.000000	0.003803  
3040.000000	0.003758  
3039.000000	0.003845  
3038.000000	0.004028  
3037.000000	0.004216  
3036.000000	0.004334  
3035.000000	0.004350  
3034.000000	0.004286  
3033.000000	0.004197  
3032.000000	0.004153  
3031.000000	0.004213  
3030.000000	0.004385  
3029.000000	0.004616  
3028.000000	0.004817  
3027.000000	0.004932  
3026.000000	0.004971  
3025.000000	0.005002  
3024.000000	0.005105  
3023.000000	0.005312  
3022.000000	0.005579  
3021.000000	0.005793  
3020.000000	0.005854  
3019.000000	0.005780  
3018.000000	0.005712  
3017.000000	0.005784  
3016.000000	0.005995  
3015.000000	0.006231  
3014.000000	0.006397  
3013.000000	0.006499  
3012.000000	0.006585  
3011.000000	0.006683  
3010.000000	0.006796  
3009.000000	0.006927  
3008.000000	0.007084  
3007.000000	0.007257  
3006.000000	0.007416  
3005.000000	0.007518  
3004.000000	0.007522  
3003.000000	0.007429  
3002.000000	0.007328  
3001.000000	0.007364  
3000.000000	0.007619  
2999.000000	0.008032  
2998.000000	0.008446  
2997.000000	0.008742  
2996.000000	0.008908  
2995.000000	0.009019  
2994.000000	0.009176  
2993.000000	0.009466  
2992.000000	0.009917  
2991.000000	0.010476  
2990.000000	0.011044  
2989.000000	0.011559  
2988.000000	0.012050  
2987.000000	0.012614  
2986.000000	0.013341  
2985.000000	0.014254  
2984.000000	0.015317  
2983.000000	0.016469  
2982.000000	0.017688  
2981.000000	0.019009  
2980.000000	0.020503  
2979.000000	0.022225  
2978.000000	0.024210  
2977.000000	0.026481  
2976.000000	0.029063  
2975.000000	0.031973  
2974.000000	0.035222  
2973.000000	0.038803  
2972.000000	0.042695  
2971.000000	0.046874  
2970.000000	0.051363  
2969.000000	0.056242  
2968.000000	0.061564  
2967.000000	0.067243  
2966.000000	0.073066  
2965.000000	0.078833  
2964.000000	0.084453  
2963.000000	0.089903  
2962.000000	0.095142  
2961.000000	0.100121  
2960.000000	0.104822  
2959.000000	0.109194  
2958.000000	0.113065  
2957.000000	0.116178  
2956.000000	0.118362  
2955.000000	0.119579  
2954.000000	0.119847  
2953.000000	0.119185  
2952.000000	0.117674  
2951.000000	0.115511  
2950.000000	0.112954  
2949.000000	0.110256  
2948.000000	0.107634  
2947.000000	0.105290  
2946.000000	0.103417  
2945.000000	0.102204  
2944.000000	0.101827  
2943.000000	0.102421  
2942.000000	0.104022  
2941.000000	0.106572  
2940.000000	0.109980  
2939.000000	0.114183  
2938.000000	0.119138  
2937.000000	0.124793  
2936.000000	0.131055  
2935.000000	0.137785  
2934.000000	0.144837  
2933.000000	0.152141  
2932.000000	0.159742  
2931.000000	0.167704  
2930.000000	0.175932  
2929.000000	0.184147  
2928.000000	0.192023  
2927.000000	0.199309  
2926.000000	0.205809  
2925.000000	0.211322  
2924.000000	0.215641  
2923.000000	0.218544  
2922.000000	0.219809  
2921.000000	0.219348  
2920.000000	0.217341  
2919.000000	0.214168  
2918.000000	0.210167  
2917.000000	0.205535  
2916.000000	0.200428  
2915.000000	0.195033  
2914.000000	0.189497  
2913.000000	0.183892  
2912.000000	0.178315  
2911.000000	0.172966  
2910.000000	0.168032  
2909.000000	0.163506  
2908.000000	0.159178  
2907.000000	0.154825  
2906.000000	0.150381  
2905.000000	0.145948  
2904.000000	0.141676  
2903.000000	0.137648  
2902.000000	0.133824  
2901.000000	0.130090  
2900.000000	0.126342  
2899.000000	0.122545  
2898.000000	0.118731  
2897.000000	0.114958  
2896.000000	0.111285  
2895.000000	0.107752  
2894.000000	0.104357  
2893.000000	0.101029  
2892.000000	0.097669  
2891.000000	0.094240  
2890.000000	0.090822  
2889.000000	0.087580  
2888.000000	0.084660  
2887.000000	0.082127  
2886.000000	0.079992  
2885.000000	0.078264  
2884.000000	0.076979  
2883.000000	0.076184  
2882.000000	0.075914  
2881.000000	0.076203  
2880.000000	0.077104  
2879.000000	0.078702  
2878.000000	0.081058  
2877.000000	0.084125  
2876.000000	0.087685  
2875.000000	0.091381  
2874.000000	0.094811  
2873.000000	0.097634  
2872.000000	0.099639  
2871.000000	0.100782  
2870.000000	0.101197  
2869.000000	0.101163  
2868.000000	0.101018  
2867.000000	0.101061  
2866.000000	0.101514  
2865.000000	0.102559  
2864.000000	0.104340  
2863.000000	0.106914  
2862.000000	0.110208  
2861.000000	0.114076  
2860.000000	0.118387  
2859.000000	0.123021  
2858.000000	0.127776  
2857.000000	0.132321  
2856.000000	0.136240  
2855.000000	0.139092  
2854.000000	0.140468  
2853.000000	0.140070  
2852.000000	0.137826  
2851.000000	0.133923  
2850.000000	0.128696  
2849.000000	0.122496  
2848.000000	0.115639  
2847.000000	0.108433  
2846.000000	0.101180  
2845.000000	0.094105  
2844.000000	0.087273  
2843.000000	0.080623  
2842.000000	0.074099  
2841.000000	0.067749  
2840.000000	0.061707  
2839.000000	0.056093  
2838.000000	0.050971  
2837.000000	0.046350  
2836.000000	0.042208  
2835.000000	0.038487  
2834.000000	0.035126  
2833.000000	0.032100  
2832.000000	0.029426  
2831.000000	0.027132  
2830.000000	0.025204  
2829.000000	0.023582  
2828.000000	0.022171  
2827.000000	0.020887  
2826.000000	0.019682  
2825.000000	0.018554  
2824.000000	0.017530  
2823.000000	0.016635  
2822.000000	0.015885  
2821.000000	0.015272  
2820.000000	0.014757  
2819.000000	0.014275  
2818.000000	0.013775  
2817.000000	0.013254  
2816.000000	0.012740  
2815.000000	0.012250  
2814.000000	0.011780  
2813.000000	0.011323  
2812.000000	0.010893  
2811.000000	0.010507  
2810.000000	0.010176  
2809.000000	0.009902  
2808.000000	0.009690  
2807.000000	0.009531  
2806.000000	0.009398  
2805.000000	0.009248  
2804.000000	0.009043  
2803.000000	0.008774  
2802.000000	0.008467  
2801.000000	0.008180  
2800.000000	0.007970  
2799.000000	0.007843  
2798.000000	0.007757  
2797.000000	0.007663  
2796.000000	0.007554  
2795.000000	0.007443  
2794.000000	0.007317  
2793.000000	0.007123  
2792.000000	0.006828  
2791.000000	0.006466  
2790.000000	0.006134  
2789.000000	0.005927  
2788.000000	0.005873  
2787.000000	0.005916  
2786.000000	0.005955  
2785.000000	0.005913  
2784.000000	0.005784  
2783.000000	0.005624  
2782.000000	0.005506  
2781.000000	0.005469  
2780.000000	0.005495  
2779.000000	0.005526  
2778.000000	0.005488  
2777.000000	0.005328  
2776.000000	0.005055  
2775.000000	0.004757  
2774.000000	0.004551  
2773.000000	0.004502  
2772.000000	0.004564  
2771.000000	0.004622  
2770.000000	0.004591  
2769.000000	0.004474  
2768.000000	0.004330  
2767.000000	0.004209  
2766.000000	0.004126  
2765.000000	0.004092  
2764.000000	0.004118  
2763.000000	0.004190  
2762.000000	0.004254  
2761.000000	0.004254  
2760.000000	0.004187  
2759.000000	0.004105  
2758.000000	0.004068  
2757.000000	0.004091  
2756.000000	0.004150  
2755.000000	0.004199  
2754.000000	0.004206  
2753.000000	0.004172  
2752.000000	0.004122  
2751.000000	0.004084  
2750.000000	0.004067  
2749.000000	0.004054  
2748.000000	0.004026  
2747.000000	0.003970  
2746.000000	0.003891  
2745.000000	0.003824  
2744.000000	0.003818  
2743.000000	0.003896  
2742.000000	0.004030  
2741.000000	0.004165  
2740.000000	0.004276  
2739.000000	0.004367  
2738.000000	0.004443  
2737.000000	0.004496  
2736.000000	0.004550  
2735.000000	0.004653  
2734.000000	0.004821  
2733.000000	0.004988  
2732.000000	0.005056  
2731.000000	0.004994  
2730.000000	0.004868  
2729.000000	0.004786  
2728.000000	0.004800  
2727.000000	0.004866  
2726.000000	0.004890  
2725.000000	0.004819  
2724.000000	0.004701  
2723.000000	0.004623  
2722.000000	0.004622  
2721.000000	0.004650  
2720.000000	0.004653  
2719.000000	0.004623  
2718.000000	0.004578  
2717.000000	0.004519  
2716.000000	0.004447  
2715.000000	0.004383  
2714.000000	0.004332  
2713.000000	0.004250  
2712.000000	0.004102  
2711.000000	0.003930  
2710.000000	0.003831  
2709.000000	0.003835  
2708.000000	0.003872  
2707.000000	0.003872  
2706.000000	0.003832  
2705.000000	0.003781  
2704.000000	0.003712  
2703.000000	0.003601  
2702.000000	0.003465  
2701.000000	0.003354  
2700.000000	0.003294  
2699.000000	0.003273  
2698.000000	0.003276  
2697.000000	0.003305  
2696.000000	0.003363  
2695.000000	0.003442  
2694.000000	0.003531  
2693.000000	0.003613  
2692.000000	0.003669  
2691.000000	0.003689  
2690.000000	0.003705  
2689.000000	0.003776  
2688.000000	0.003919  
2687.000000	0.004079  
2686.000000	0.004166  
2685.000000	0.004153  
2684.000000	0.004092  
2683.000000	0.004062  
2682.000000	0.004088  
2681.000000	0.004132  
2680.000000	0.004148  
2679.000000	0.004137  
2678.000000	0.004133  
2677.000000	0.004174  
2676.000000	0.004261  
2675.000000	0.004365  
2674.000000	0.004445  
2673.000000	0.004471  
2672.000000	0.004443  
2671.000000	0.004385  
2670.000000	0.004318  
2669.000000	0.004259  
2668.000000	0.004228  
2667.000000	0.004254  
2666.000000	0.004341  
2665.000000	0.004455  
2664.000000	0.004533  
2663.000000	0.004528  
2662.000000	0.004422  
2661.000000	0.004227  
2660.000000	0.004003  
2659.000000	0.003838  
2658.000000	0.003779  
2657.000000	0.003796  
2656.000000	0.003829  
2655.000000	0.003854  
2654.000000	0.003876  
2653.000000	0.003870  
2652.000000	0.003798  
2651.000000	0.003691  
2650.000000	0.003648  
2649.000000	0.003718  
2648.000000	0.003835  
2647.000000	0.003894  
2646.000000	0.003867  
2645.000000	0.003803  
2644.000000	0.003761  
2643.000000	0.003774  
2642.000000	0.003852  
2641.000000	0.003970  
2640.000000	0.004048  
2639.000000	0.003995  
2638.000000	0.003797  
2637.000000	0.003536  
2636.000000	0.003338  
2635.000000	0.003302  
2634.000000	0.003452  
2633.000000	0.003716  
2632.000000	0.003962  
2631.000000	0.004079  
2630.000000	0.004049  
2629.000000	0.003932  
2628.000000	0.003808  
2627.000000	0.003734  
2626.000000	0.003724  
2625.000000	0.003734  
2624.000000	0.003683  
2623.000000	0.003534  
2622.000000	0.003330  
2621.000000	0.003138  
2620.000000	0.002986  
2619.000000	0.002880  
2618.000000	0.002856  
2617.000000	0.002941  
2616.000000	0.003088  
2615.000000	0.003212  
2614.000000	0.003288  
2613.000000	0.003358  
2612.000000	0.003439  
2611.000000	0.003494  
2610.000000	0.003506  
2609.000000	0.003516  
2608.000000	0.003559  
2607.000000	0.003614  
2606.000000	0.003638  
2605.000000	0.003611  
2604.000000	0.003526  
2603.000000	0.003391  
2602.000000	0.003261  
2601.000000	0.003235  
2600.000000	0.003343  
2599.000000	0.003477  
2598.000000	0.003483  
2597.000000	0.003328  
2596.000000	0.003129  
2595.000000	0.003010  
2594.000000	0.002964  
2593.000000	0.002879  
2592.000000	0.002693  
2591.000000	0.002477  
2590.000000	0.002364  
2589.000000	0.002409  
2588.000000	0.002535  
2587.000000	0.002633  
2586.000000	0.002677  
2585.000000	0.002710  
2584.000000	0.002756  
2583.000000	0.002773  
2582.000000	0.002722  
2581.000000	0.002625  
2580.000000	0.002542  
2579.000000	0.002523  
2578.000000	0.002590  
2577.000000	0.002721  
2576.000000	0.002836  
2575.000000	0.002838  
2574.000000	0.002706  
2573.000000	0.002540  
2572.000000	0.002465  
2571.000000	0.002497  
2570.000000	0.002533  
2569.000000	0.002477  
2568.000000	0.002334  
2567.000000	0.002183  
2566.000000	0.002090  
2565.000000	0.002066  
2564.000000	0.002090  
2563.000000	0.002135  
2562.000000	0.002172  
2561.000000	0.002171  
2560.000000	0.002111  
2559.000000	0.002017  
2558.000000	0.001968  
2557.000000	0.002050  
2556.000000	0.002260  
2555.000000	0.002475  
2554.000000	0.002544  
2553.000000	0.002441  
2552.000000	0.002314  
2551.000000	0.002348  
2550.000000	0.002587  
2549.000000	0.002889  
2548.000000	0.003060  
2547.000000	0.002991  
2546.000000	0.002690  
2545.000000	0.002256  
2544.000000	0.001859  
2543.000000	0.001674  
2542.000000	0.001742  
2541.000000	0.001909  
2540.000000	0.001961  
2539.000000	0.001856  
2538.000000	0.001756  
2537.000000	0.001805  
2536.000000	0.001940  
2535.000000	0.001978  
2534.000000	0.001848  
2533.000000	0.001662  
2532.000000	0.001558  
2531.000000	0.001550  
2530.000000	0.001542  
2529.000000	0.001464  
2528.000000	0.001354  
2527.000000	0.001323  
2526.000000	0.001444  
2525.000000	0.001679  
2524.000000	0.001915  
2523.000000	0.002058  
2522.000000	0.002079  
2521.000000	0.001993  
2520.000000	0.001840  
2519.000000	0.001721  
2518.000000	0.001774  
2517.000000	0.002056  
2516.000000	0.002441  
2515.000000	0.002718  
2514.000000	0.002774  
2513.000000	0.002671  
2512.000000	0.002529  
2511.000000	0.002403  
2510.000000	0.002268  
2509.000000	0.002105  
2508.000000	0.001956  
2507.000000	0.001899  
2506.000000	0.001981  
2505.000000	0.002149  
2504.000000	0.002265  
2503.000000	0.002217  
2502.000000	0.002038  
2501.000000	0.001882  
2500.000000	0.001869  
2499.000000	0.001964  
2498.000000	0.002006  
2497.000000	0.001857  
2496.000000	0.001517  
2495.000000	0.001130  
2494.000000	0.000882  
2493.000000	0.000880  
2492.000000	0.001104  
2491.000000	0.001450  
2490.000000	0.001802  
2489.000000	0.002069  
2488.000000	0.002192  
2487.000000	0.002150  
2486.000000	0.001971  
2485.000000	0.001703  
2484.000000	0.001393  
2483.000000	0.001125  
2482.000000	0.001030  
2481.000000	0.001206  
2480.000000	0.001603  
2479.000000	0.002016  
2478.000000	0.002234  
2477.000000	0.002191  
2476.000000	0.001990  
2475.000000	0.001793  
2474.000000	0.001704  
2473.000000	0.001717  
2472.000000	0.001759  
2471.000000	0.001762  
2470.000000	0.001694  
2469.000000	0.001574  
2468.000000	0.001473  
2467.000000	0.001501  
2466.000000	0.001707  
2465.000000	0.001982  
2464.000000	0.002115  
2463.000000	0.002005  
2462.000000	0.001768  
2461.000000	0.001597  
2460.000000	0.001555  
2459.000000	0.001584  
2458.000000	0.001654  
2457.000000	0.001782  
2456.000000	0.001913  
2455.000000	0.001914  
2454.000000	0.001729  
2453.000000	0.001471  
2452.000000	0.001277  
2451.000000	0.001164  
2450.000000	0.001080  
2449.000000	0.001031  
2448.000000	0.001088  
2447.000000	0.001263  
2446.000000	0.001471  
2445.000000	0.001616  
2444.000000	0.001672  
2443.000000	0.001693  
2442.000000	0.001752  
2441.000000	0.001874  
2440.000000	0.002006  
2439.000000	0.002055  
2438.000000	0.001993  
2437.000000	0.001885  
2436.000000	0.001801  
2435.000000	0.001725  
2434.000000	0.001597  
2433.000000	0.001419  
2432.000000	0.001271  
2431.000000	0.001227  
2430.000000	0.001287  
2429.000000	0.001411  
2428.000000	0.001563  
2427.000000	0.001722  
2426.000000	0.001862  
2425.000000	0.001944  
2424.000000	0.001943  
2423.000000	0.001866  
2422.000000	0.001763  
2421.000000	0.001685  
2420.000000	0.001652  
2419.000000	0.001631  
2418.000000	0.001589  
2417.000000	0.001532  
2416.000000	0.001502  
2415.000000	0.001539  
2414.000000	0.001653  
2413.000000	0.001816  
2412.000000	0.001969  
2411.000000	0.002052  
2410.000000	0.002046  
2409.000000	0.001995  
2408.000000	0.001956  
2407.000000	0.001928  
2406.000000	0.001853  
2405.000000	0.001690  
2404.000000	0.001481  
2403.000000	0.001323  
2402.000000	0.001273  
2401.000000	0.001308  
2400.000000	0.001376  
2399.000000	0.001468  
2398.000000	0.001620  
2397.000000	0.001821  
2396.000000	0.001985  
2395.000000	0.002035  
2394.000000	0.001998  
2393.000000	0.001990  
2392.000000	0.002087  
2391.000000	0.002244  
2390.000000	0.002341  
2389.000000	0.002290  
2388.000000	0.002116  
2387.000000	0.001945  
2386.000000	0.001930  
2385.000000	0.002130  
2384.000000	0.002446  
2383.000000	0.002690  
2382.000000	0.002750  
2381.000000	0.002694  
2380.000000	0.002681  
2379.000000	0.002777  
2378.000000	0.002881  
2377.000000	0.002838  
2376.000000	0.002601  
2375.000000	0.002273  
2374.000000	0.002009  
2373.000000	0.001918  
2372.000000	0.002025  
2371.000000	0.002298  
2370.000000	0.002626  
2369.000000	0.002786  
2368.000000	0.002558  
2367.000000	0.001984  
2366.000000	0.001419  
2365.000000	0.001171  
2364.000000	0.001138  
2363.000000	0.001030  
2362.000000	0.000882  
2361.000000	0.001037  
2360.000000	0.001654  
2359.000000	0.002438  
2358.000000	0.003011  
2357.000000	0.003266  
2356.000000	0.003225  
2355.000000	0.002936  
2354.000000	0.002545  
2353.000000	0.002320  
2352.000000	0.002373  
2351.000000	0.002526  
2350.000000	0.002569  
2349.000000	0.002408  
2348.000000	0.002108  
2347.000000	0.001818  
2346.000000	0.001735  
2345.000000	0.001987  
2344.000000	0.002389  
2343.000000	0.002634  
2342.000000	0.002616  
2341.000000	0.002616  
2340.000000	0.002935  
2339.000000	0.003402  
2338.000000	0.003533  
2337.000000	0.003085  
2336.000000	0.002330  
2335.000000	0.001726  
2334.000000	0.001523  
2333.000000	0.001741  
2332.000000	0.002283  
2331.000000	0.002905  
2330.000000	0.003307  
2329.000000	0.003288  
2328.000000	0.002976  
2327.000000	0.002647  
2326.000000	0.002483  
2325.000000	0.002515  
2324.000000	0.002618  
2323.000000	0.002655  
2322.000000	0.002494  
2321.000000	0.002181  
2320.000000	0.001952  
2319.000000	0.002045  
2318.000000	0.002441  
2317.000000	0.002827  
2316.000000	0.002887  
2315.000000	0.002563  
2314.000000	0.002112  
2313.000000	0.001843  
2312.000000	0.001868  
2311.000000	0.002053  
2310.000000	0.002240  
2309.000000	0.002388  
2308.000000	0.002530  
2307.000000	0.002647  
2306.000000	0.002655  
2305.000000	0.002517  
2304.000000	0.002295  
2303.000000	0.002080  
2302.000000	0.001885  
2301.000000	0.001645  
2300.000000	0.001349  
2299.000000	0.001129  
2298.000000	0.001158  
2297.000000	0.001446  
2296.000000	0.001777  
2295.000000	0.001915  
2294.000000	0.001839  
2293.000000	0.001728  
2292.000000	0.001718  
2291.000000	0.001771  
2290.000000	0.001785  
2289.000000	0.001743  
2288.000000	0.001666  
2287.000000	0.001521  
2286.000000	0.001270  
2285.000000	0.001003  
2284.000000	0.000884  
2283.000000	0.000951  
2282.000000	0.001061  
2281.000000	0.001076  
2280.000000	0.001047  
2279.000000	0.001122  
2278.000000	0.001319  
2277.000000	0.001495  
2276.000000	0.001565  
2275.000000	0.001666  
2274.000000	0.002019  
2273.000000	0.002622  
2272.000000	0.003172  
2271.000000	0.003336  
2270.000000	0.003072  
2269.000000	0.002608  
2268.000000	0.002150  
2267.000000	0.001720  
2266.000000	0.001313  
2265.000000	0.001064  
2264.000000	0.001116  
2263.000000	0.001401  
2262.000000	0.001694  
2261.000000	0.001878  
2260.000000	0.002001  
2259.000000	0.002115  
2258.000000	0.002196  
2257.000000	0.002249  
2256.000000	0.002362  
2255.000000	0.002566  
2254.000000	0.002745  
2253.000000	0.002785  
2252.000000	0.002718  
2251.000000	0.002653  
2250.000000	0.002606  
2249.000000	0.002481  
2248.000000	0.002190  
2247.000000	0.001736  
2246.000000	0.001231  
2245.000000	0.000866  
2244.000000	0.000819  
2243.000000	0.001087  
2242.000000	0.001464  
2241.000000	0.001734  
2240.000000	0.001859  
2239.000000	0.001920  
2238.000000	0.001928  
2237.000000	0.001814  
2236.000000	0.001594  
2235.000000	0.001412  
2234.000000	0.001401  
2233.000000	0.001552  
2232.000000	0.001734  
2231.000000	0.001816  
2230.000000	0.001740  
2229.000000	0.001553  
2228.000000	0.001372  
2227.000000	0.001285  
2226.000000	0.001271  
2225.000000	0.001228  
2224.000000	0.001073  
2223.000000	0.000807  
2222.000000	0.000517  
2221.000000	0.000361  
2220.000000	0.000472  
2219.000000	0.000800  
2218.000000	0.001100  
2217.000000	0.001177  
2216.000000	0.001138  
2215.000000	0.001268  
2214.000000	0.001640  
2213.000000	0.002002  
2212.000000	0.002107  
2211.000000	0.002021  
2210.000000	0.001956  
2209.000000	0.001918  
2208.000000	0.001690  
2207.000000	0.001196  
2206.000000	0.000691  
2205.000000	0.000531  
2204.000000	0.000803  
2203.000000	0.001293  
2202.000000	0.001755  
2201.000000	0.002121  
2200.000000	0.002466  
2199.000000	0.002851  
2198.000000	0.003239  
2197.000000	0.003512  
2196.000000	0.003514  
2195.000000	0.003127  
2194.000000	0.002393  
2193.000000	0.001576  
2192.000000	0.000999  
2191.000000	0.000786  
2190.000000	0.000810  
2189.000000	0.000918  
2188.000000	0.001100  
2187.000000	0.001378  
2186.000000	0.001613  
2185.000000	0.001585  
2184.000000	0.001292  
2183.000000	0.001057  
2182.000000	0.001252  
2181.000000	0.001945  
2180.000000	0.002848  
2179.000000	0.003561  
2178.000000	0.003848  
2177.000000	0.003745  
2176.000000	0.003446  
2175.000000	0.003068  
2174.000000	0.002549  
2173.000000	0.001848  
2172.000000	0.001188  
2171.000000	0.000956  
2170.000000	0.001282  
2169.000000	0.001827  
2168.000000	0.002094  
2167.000000	0.001933  
2166.000000	0.001676  
2165.000000	0.001737  
2164.000000	0.002153  
2163.000000	0.002559  
2162.000000	0.002581  
2161.000000	0.002228  
2160.000000	0.001885  
2159.000000	0.001890  
2158.000000	0.002171  
2157.000000	0.002406  
2156.000000	0.002425  
2155.000000	0.002312  
2154.000000	0.002191  
2153.000000	0.002101  
2152.000000	0.002047  
2151.000000	0.002026  
2150.000000	0.001952  
2149.000000	0.001698  
2148.000000	0.001285  
2147.000000	0.000974  
2146.000000	0.001042  
2145.000000	0.001511  
2144.000000	0.002128  
2143.000000	0.002579  
2142.000000	0.002648  
2141.000000	0.002274  
2140.000000	0.001587  
2139.000000	0.000916  
2138.000000	0.000627  
2137.000000	0.000856  
2136.000000	0.001372  
2135.000000	0.001745  
2134.000000	0.001695  
2133.000000	0.001313  
2132.000000	0.000964  
2131.000000	0.000942  
2130.000000	0.001237  
2129.000000	0.001612  
2128.000000	0.001880  
2127.000000	0.002031  
2126.000000	0.002087  
2125.000000	0.001982  
2124.000000	0.001697  
2123.000000	0.001412  
2122.000000	0.001392  
2121.000000	0.001687  
2120.000000	0.002053  
2119.000000	0.002194  
2118.000000	0.002045  
2117.000000	0.001789  
2116.000000	0.001681  
2115.000000	0.001845  
2114.000000	0.002174  
2113.000000	0.002383  
2112.000000	0.002253  
2111.000000	0.001874  
2110.000000	0.001579  
2109.000000	0.001599  
2108.000000	0.001825  
2107.000000	0.001974  
2106.000000	0.001908  
2105.000000	0.001712  
2104.000000	0.001509  
2103.000000	0.001338  
2102.000000	0.001206  
2101.000000	0.001126  
2100.000000	0.001064  
2099.000000	0.000924  
2098.000000	0.000688  
2097.000000	0.000495  
2096.000000	0.000506  
2095.000000	0.000692  
2094.000000	0.000854  
2093.000000	0.000866  
2092.000000	0.000817  
2091.000000	0.000874  
2090.000000	0.001067  
2089.000000	0.001272  
2088.000000	0.001405  
2087.000000	0.001525  
2086.000000	0.001696  
2085.000000	0.001834  
2084.000000	0.001766  
2083.000000	0.001444  
2082.000000	0.001036  
2081.000000	0.000801  
2080.000000	0.000894  
2079.000000	0.001271  
2078.000000	0.001705  
2077.000000	0.001903  
2076.000000	0.001730  
2075.000000	0.001365  
2074.000000	0.001165  
2073.000000	0.001319  
2072.000000	0.001677  
2071.000000	0.001973  
2070.000000	0.002111  
2069.000000	0.002155  
2068.000000	0.002135  
2067.000000	0.002011  
2066.000000	0.001829  
2065.000000	0.001746  
2064.000000	0.001842  
2063.000000	0.002011  
2062.000000	0.002093  
2061.000000	0.002024  
2060.000000	0.001827  
2059.000000	0.001545  
2058.000000	0.001259  
2057.000000	0.001088  
2056.000000	0.001071  
2055.000000	0.001081  
2054.000000	0.000963  
2053.000000	0.000736  
2052.000000	0.000567  
2051.000000	0.000566  
2050.000000	0.000731  
2049.000000	0.001069  
2048.000000	0.001615  
2047.000000	0.002221  
2046.000000	0.002496  
2045.000000	0.002171  
2044.000000	0.001465  
2043.000000	0.000902  
2042.000000	0.000764  
2041.000000	0.000907  
2040.000000	0.001113  
2039.000000	0.001392  
2038.000000	0.001771  
2037.000000	0.002018  
2036.000000	0.001886  
2035.000000	0.001543  
2034.000000	0.001478  
2033.000000	0.001880  
2032.000000	0.002388  
2031.000000	0.002523  
2030.000000	0.002152  
2029.000000	0.001429  
2028.000000	0.000555  
2027.000000	-0.000239 
2026.000000	-0.000670 
2025.000000	-0.000616 
2024.000000	-0.000293 
2023.000000	0.000012  
2022.000000	0.000299  
2021.000000	0.000725  
2020.000000	0.001207  
2019.000000	0.001414  
2018.000000	0.001188  
2017.000000	0.000736  
2016.000000	0.000320  
2015.000000	-0.000011 
2014.000000	-0.000221 
2013.000000	-0.000107 
2012.000000	0.000388  
2011.000000	0.000857  
2010.000000	0.000717  
2009.000000	-0.000116 
2008.000000	-0.001062 
2007.000000	-0.001468 
2006.000000	-0.001213 
2005.000000	-0.000635 
2004.000000	-0.000044 
2003.000000	0.000531  
2002.000000	0.001210  
2001.000000	0.001984  
2000.000000	0.002590  
1999.000000	0.002643  
1998.000000	0.001978  
1997.000000	0.000923  
1996.000000	0.000110  
1995.000000	-0.000058 
1994.000000	0.000300  
1993.000000	0.000777  
1992.000000	0.001087  
1991.000000	0.001199  
1990.000000	0.001177  
1989.000000	0.001114  
1988.000000	0.001181  
1987.000000	0.001506  
1986.000000	0.001969  
1985.000000	0.002300  
1984.000000	0.002408  
1983.000000	0.002432  
1982.000000	0.002417  
1981.000000	0.002197  
1980.000000	0.001735  
1979.000000	0.001350  
1978.000000	0.001329  
1977.000000	0.001459  
1976.000000	0.001303  
1975.000000	0.000863  
1974.000000	0.000545  
1973.000000	0.000539  
1972.000000	0.000586  
1971.000000	0.000430  
1970.000000	0.000165  
1969.000000	0.000019  
1968.000000	0.000023  
1967.000000	0.000061  
1966.000000	0.000125  
1965.000000	0.000297  
1964.000000	0.000562  
1963.000000	0.000794  
1962.000000	0.000913  
1961.000000	0.000948  
1960.000000	0.000979  
1959.000000	0.001065  
1958.000000	0.001177  
1957.000000	0.001189  
1956.000000	0.000974  
1955.000000	0.000588  
1954.000000	0.000277  
1953.000000	0.000271  
1952.000000	0.000592  
1951.000000	0.001094  
1950.000000	0.001612  
1949.000000	0.001994  
1948.000000	0.002114  
1947.000000	0.001964  
1946.000000	0.001716  
1945.000000	0.001576  
1944.000000	0.001570  
1943.000000	0.001556  
1942.000000	0.001438  
1941.000000	0.001282  
1940.000000	0.001168  
1939.000000	0.001099  
1938.000000	0.001086  
1937.000000	0.001208  
1936.000000	0.001506  
1935.000000	0.001879  
1934.000000	0.002164  
1933.000000	0.002292  
1932.000000	0.002307  
1931.000000	0.002258  
1930.000000	0.002127  
1929.000000	0.001882  
1928.000000	0.001549  
1927.000000	0.001198  
1926.000000	0.000901  
1925.000000	0.000729  
1924.000000	0.000740  
1923.000000	0.000924  
1922.000000	0.001185  
1921.000000	0.001415  
1920.000000	0.001570  
1919.000000	0.001661  
1918.000000	0.001717  
1917.000000	0.001779  
1916.000000	0.001878  
1915.000000	0.001968  
1914.000000	0.001932  
1913.000000	0.001703  
1912.000000	0.001379  
1911.000000	0.001156  
1910.000000	0.001136  
1909.000000	0.001245  
1908.000000	0.001367  
1907.000000	0.001470  
1906.000000	0.001564  
1905.000000	0.001605  
1904.000000	0.001553  
1903.000000	0.001470  
1902.000000	0.001477  
1901.000000	0.001610  
1900.000000	0.001758  
1899.000000	0.001794  
1898.000000	0.001718  
1897.000000	0.001646  
1896.000000	0.001674  
1895.000000	0.001786  
1894.000000	0.001895  
1893.000000	0.001950  
1892.000000	0.001974  
1891.000000	0.002000  
1890.000000	0.002019  
1889.000000	0.002000  
1888.000000	0.001948  
1887.000000	0.001889  
1886.000000	0.001830  
1885.000000	0.001771  
1884.000000	0.001724  
1883.000000	0.001687  
1882.000000	0.001621  
1881.000000	0.001490  
1880.000000	0.001324  
1879.000000	0.001199  
1878.000000	0.001151  
1877.000000	0.001160  
1876.000000	0.001219  
1875.000000	0.001350  
1874.000000	0.001546  
1873.000000	0.001731  
1872.000000	0.001836  
1871.000000	0.001848  
1870.000000	0.001770  
1869.000000	0.001590  
1868.000000	0.001379  
1867.000000	0.001299  
1866.000000	0.001415  
1865.000000	0.001611  
1864.000000	0.001725  
1863.000000	0.001712  
1862.000000	0.001652  
1861.000000	0.001623  
1860.000000	0.001632  
1859.000000	0.001678  
1858.000000	0.001779  
1857.000000	0.001910  
1856.000000	0.001966  
1855.000000	0.001843  
1854.000000	0.001557  
1853.000000	0.001270  
1852.000000	0.001171  
1851.000000	0.001312  
1850.000000	0.001551  
1849.000000	0.001659  
1848.000000	0.001539  
1847.000000	0.001322  
1846.000000	0.001232  
1845.000000	0.001370  
1844.000000	0.001603  
1843.000000	0.001727  
1842.000000	0.001690  
1841.000000	0.001564  
1840.000000	0.001434  
1839.000000	0.001386  
1838.000000	0.001451  
1837.000000	0.001560  
1836.000000	0.001613  
1835.000000	0.001591  
1834.000000	0.001538  
1833.000000	0.001462  
1832.000000	0.001332  
1831.000000	0.001198  
1830.000000	0.001210  
1829.000000	0.001413  
1828.000000	0.001666  
1827.000000	0.001817  
1826.000000	0.001841  
1825.000000	0.001795  
1824.000000	0.001751  
1823.000000	0.001762  
1822.000000	0.001824  
1821.000000	0.001847  
1820.000000	0.001711  
1819.000000	0.001431  
1818.000000	0.001203  
1817.000000	0.001207  
1816.000000	0.001402  
1815.000000	0.001592  
1814.000000	0.001647  
1813.000000	0.001580  
1812.000000	0.001476  
1811.000000	0.001433  
1810.000000	0.001503  
1809.000000	0.001661  
1808.000000	0.001812  
1807.000000	0.001881  
1806.000000	0.001878  
1805.000000	0.001858  
1804.000000	0.001858  
1803.000000	0.001876  
1802.000000	0.001910  
1801.000000	0.001962  
1800.000000	0.002021  
1799.000000	0.002068  
1798.000000	0.002092  
1797.000000	0.002101  
1796.000000	0.002093  
1795.000000	0.002054  
1794.000000	0.001977  
1793.000000	0.001879  
1792.000000	0.001780  
1791.000000	0.001703  
1790.000000	0.001672  
1789.000000	0.001683  
1788.000000	0.001708  
1787.000000	0.001728  
1786.000000	0.001737  
1785.000000	0.001720  
1784.000000	0.001644  
1783.000000	0.001504  
1782.000000	0.001360  
1781.000000	0.001317  
1780.000000	0.001421  
1779.000000	0.001615  
1778.000000	0.001805  
1777.000000	0.001933  
1776.000000	0.001968  
1775.000000	0.001892  
1774.000000	0.001732  
1773.000000	0.001580  
1772.000000	0.001500  
1771.000000	0.001454  
1770.000000	0.001414  
1769.000000	0.001408  
1768.000000	0.001458  
1767.000000	0.001532  
1766.000000	0.001574  
1765.000000	0.001575  
1764.000000	0.001576  
1763.000000	0.001634  
1762.000000	0.001758  
1761.000000	0.001878  
1760.000000	0.001918  
1759.000000	0.001859  
1758.000000	0.001742  
1757.000000	0.001646  
1756.000000	0.001616  
1755.000000	0.001629  
1754.000000	0.001640  
1753.000000	0.001648  
1752.000000	0.001683  
1751.000000	0.001745  
1750.000000	0.001780  
1749.000000	0.001759  
1748.000000	0.001715  
1747.000000	0.001687  
1746.000000	0.001685  
1745.000000	0.001694  
1744.000000	0.001698  
1743.000000	0.001688  
1742.000000	0.001661  
1741.000000	0.001603  
1740.000000	0.001521  
1739.000000	0.001445  
1738.000000	0.001397  
1737.000000	0.001344  
1736.000000	0.001241  
1735.000000	0.001136  
1734.000000	0.001149  
1733.000000	0.001253  
1732.000000	0.001332  
1731.000000	0.001380  
1730.000000	0.001472  
1729.000000	0.001641  
1728.000000	0.001819  
1727.000000	0.001920  
1726.000000	0.001928  
1725.000000	0.001898  
1724.000000	0.001876  
1723.000000	0.001863  
1722.000000	0.001841  
1721.000000	0.001808  
1720.000000	0.001770  
1719.000000	0.001735  
1718.000000	0.001694  
1717.000000	0.001631  
1716.000000	0.001602  
1715.000000	0.001677  
1714.000000	0.001828  
1713.000000	0.001956  
1712.000000	0.001978  
1711.000000	0.001899  
1710.000000	0.001803  
1709.000000	0.001772  
1708.000000	0.001825  
1707.000000	0.001929  
1706.000000	0.002050  
1705.000000	0.002163  
1704.000000	0.002278  
1703.000000	0.002391  
1702.000000	0.002451  
1701.000000	0.002415  
1700.000000	0.002316  
1699.000000	0.002251  
1698.000000	0.002258  
1697.000000	0.002277  
1696.000000	0.002258  
1695.000000	0.002219  
1694.000000	0.002170  
1693.000000	0.002099  
1692.000000	0.002017  
1691.000000	0.001967  
1690.000000	0.002001  
1689.000000	0.002119  
1688.000000	0.002258  
1687.000000	0.002332  
1686.000000	0.002296  
1685.000000	0.002219  
1684.000000	0.002192  
1683.000000	0.002199  
1682.000000	0.002221  
1681.000000	0.002251  
1680.000000	0.002278  
1679.000000	0.002288  
1678.000000	0.002234  
1677.000000	0.002076  
1676.000000	0.001852  
1675.000000	0.001727  
1674.000000	0.001804  
1673.000000	0.002006  
1672.000000	0.002208  
1671.000000	0.002352  
1670.000000	0.002426  
1669.000000	0.002429  
1668.000000	0.002376  
1667.000000	0.002307  
1666.000000	0.002266  
1665.000000	0.002276  
1664.000000	0.002325  
1663.000000	0.002366  
1662.000000	0.002357  
1661.000000	0.002322  
1660.000000	0.002306  
1659.000000	0.002317  
1658.000000	0.002340  
1657.000000	0.002362  
1656.000000	0.002362  
1655.000000	0.002324  
1654.000000	0.002328  
1653.000000	0.002434  
1652.000000	0.002527  
1651.000000	0.002519  
1650.000000	0.002475  
1649.000000	0.002481  
1648.000000	0.002542  
1647.000000	0.002541  
1646.000000	0.002428  
1645.000000	0.002282  
1644.000000	0.002155  
1643.000000	0.002062  
1642.000000	0.002031  
1641.000000	0.002057  
1640.000000	0.002093  
1639.000000	0.002090  
1638.000000	0.002047  
1637.000000	0.002016  
1636.000000	0.002031  
1635.000000	0.002054  
1634.000000	0.002057  
1633.000000	0.002058  
1632.000000	0.002068  
1631.000000	0.002091  
1630.000000	0.002128  
1629.000000	0.002181  
1628.000000	0.002245  
1627.000000	0.002315  
1626.000000	0.002401  
1625.000000	0.002503  
1624.000000	0.002595  
1623.000000	0.002657  
1622.000000	0.002717  
1621.000000	0.002825  
1620.000000	0.002969  
1619.000000	0.003091  
1618.000000	0.003158  
1617.000000	0.003208  
1616.000000	0.003293  
1615.000000	0.003396  
1614.000000	0.003491  
1613.000000	0.003586  
1612.000000	0.003696  
1611.000000	0.003827  
1610.000000	0.003973  
1609.000000	0.004104  
1608.000000	0.004172  
1607.000000	0.004148  
1606.000000	0.004059  
1605.000000	0.003952  
1604.000000	0.003845  
1603.000000	0.003732  
1602.000000	0.003625  
1601.000000	0.003533  
1600.000000	0.003435  
1599.000000	0.003300  
1598.000000	0.003150  
1597.000000	0.003042  
1596.000000	0.003004  
1595.000000	0.003012  
1594.000000	0.003036  
1593.000000	0.003079  
1592.000000	0.003153  
1591.000000	0.003246  
1590.000000	0.003324  
1589.000000	0.003354  
1588.000000	0.003321  
1587.000000	0.003239  
1586.000000	0.003142  
1585.000000	0.003063  
1584.000000	0.003014  
1583.000000	0.002991  
1582.000000	0.002992  
1581.000000	0.003017  
1580.000000	0.003067  
1579.000000	0.003131  
1578.000000	0.003164  
1577.000000	0.003095  
1576.000000	0.002921  
1575.000000	0.002784  
1574.000000	0.002802  
1573.000000	0.002945  
1572.000000	0.003085  
1571.000000	0.003111  
1570.000000	0.003016  
1569.000000	0.002909  
1568.000000	0.002860  
1567.000000	0.002831  
1566.000000	0.002773  
1565.000000	0.002697  
1564.000000	0.002631  
1563.000000	0.002597  
1562.000000	0.002590  
1561.000000	0.002582  
1560.000000	0.002634  
1559.000000	0.002651  
1558.000000	0.002560  
1557.000000	0.002620  
1556.000000	0.002847  
1555.000000	0.003100  
1554.000000	0.003303  
1553.000000	0.003363  
1552.000000	0.003270  
1551.000000	0.003078  
1550.000000	0.002911  
1549.000000	0.002845  
1548.000000	0.002848  
1547.000000	0.002864  
1546.000000	0.002913  
1545.000000	0.003018  
1544.000000	0.003106  
1543.000000	0.003117  
1542.000000	0.003136  
1541.000000	0.003255  
1540.000000	0.003364  
1539.000000	0.003371  
1538.000000	0.003381  
1537.000000	0.003433  
1536.000000	0.003468  
1535.000000	0.003440  
1534.000000	0.003365  
1533.000000	0.003303  
1532.000000	0.003264  
1531.000000	0.003226  
1530.000000	0.003182  
1529.000000	0.003158  
1528.000000	0.003182  
1527.000000	0.003280  
1526.000000	0.003478  
1525.000000	0.003733  
1524.000000	0.003924  
1523.000000	0.003992  
1522.000000	0.004042  
1521.000000	0.004196  
1520.000000	0.004367  
1519.000000	0.004424  
1518.000000	0.004397  
1517.000000	0.004399  
1516.000000	0.004480  
1515.000000	0.004627  
1514.000000	0.004833  
1513.000000	0.005082  
1512.000000	0.005304  
1511.000000	0.005437  
1510.000000	0.005534  
1509.000000	0.005729  
1508.000000	0.006132  
1507.000000	0.006650  
1506.000000	0.007087  
1505.000000	0.007372  
1504.000000	0.007474  
1503.000000	0.007441  
1502.000000	0.007404  
1501.000000	0.007422  
1500.000000	0.007450  
1499.000000	0.007454  
1498.000000	0.007582  
1497.000000	0.007996  
1496.000000	0.008529  
1495.000000	0.008900  
1494.000000	0.009103  
1493.000000	0.009240  
1492.000000	0.009289  
1491.000000	0.009243  
1490.000000	0.009290  
1489.000000	0.009590  
1488.000000	0.010008  
1487.000000	0.010379  
1486.000000	0.010744  
1485.000000	0.011197  
1484.000000	0.011733  
1483.000000	0.012351  
1482.000000	0.013154  
1481.000000	0.014169  
1480.000000	0.015246  
1479.000000	0.016318  
1478.000000	0.017598  
1477.000000	0.019297  
1476.000000	0.021346  
1475.000000	0.023770  
1474.000000	0.027277  
1473.000000	0.032734  
1472.000000	0.039633  
1471.000000	0.046559  
1470.000000	0.052982  
1469.000000	0.058952  
1468.000000	0.064282  
1467.000000	0.068786  
1466.000000	0.072614  
1465.000000	0.075930  
1464.000000	0.078523  
1463.000000	0.080300  
1462.000000	0.081585  
1461.000000	0.082692  
1460.000000	0.083738  
1459.000000	0.084801  
1458.000000	0.085853  
1457.000000	0.086167  
1456.000000	0.085038  
1455.000000	0.082949  
1454.000000	0.080539  
1453.000000	0.077894  
1452.000000	0.075049  
1451.000000	0.072237  
1450.000000	0.069622  
1449.000000	0.067004  
1448.000000	0.064147  
1447.000000	0.061133  
1446.000000	0.058095  
1445.000000	0.054927  
1444.000000	0.051490  
1443.000000	0.047863  
1442.000000	0.044283  
1441.000000	0.040962  
1440.000000	0.037975  
1439.000000	0.035196  
1438.000000	0.032316  
1437.000000	0.029217  
1436.000000	0.026378  
1435.000000	0.024245  
1434.000000	0.022555  
1433.000000	0.020853  
1432.000000	0.019023  
1431.000000	0.017234  
1430.000000	0.015662  
1429.000000	0.014361  
1428.000000	0.013370  
1427.000000	0.012668  
1426.000000	0.012104  
1425.000000	0.011543  
1424.000000	0.011002  
1423.000000	0.010552  
1422.000000	0.010145  
1421.000000	0.009667  
1420.000000	0.009153  
1419.000000	0.008771  
1418.000000	0.008565  
1417.000000	0.008446  
1416.000000	0.008378  
1415.000000	0.008349  
1414.000000	0.008295  
1413.000000	0.008165  
1412.000000	0.007984  
1411.000000	0.007802  
1410.000000	0.007618  
1409.000000	0.007442  
1408.000000	0.007343  
1407.000000	0.007359  
1406.000000	0.007415  
1405.000000	0.007425  
1404.000000	0.007424  
1403.000000	0.007470  
1402.000000	0.007502  
1401.000000	0.007441  
1400.000000	0.007340  
1399.000000	0.007316  
1398.000000	0.007387  
1397.000000	0.007515  
1396.000000	0.007736  
1395.000000	0.008093  
1394.000000	0.008523  
1393.000000	0.008972  
1392.000000	0.009501  
1391.000000	0.010203  
1390.000000	0.011155  
1389.000000	0.012521  
1388.000000	0.014566  
1387.000000	0.017314  
1386.000000	0.020375  
1385.000000	0.023412  
1384.000000	0.026497  
1383.000000	0.029910  
1382.000000	0.033843  
1381.000000	0.038262  
1380.000000	0.042797  
1379.000000	0.046654  
1378.000000	0.048936  
1377.000000	0.049190  
1376.000000	0.047469  
1375.000000	0.044097  
1374.000000	0.039756  
1373.000000	0.035445  
1372.000000	0.031888  
1371.000000	0.029254  
1370.000000	0.027475  
1369.000000	0.026466  
1368.000000	0.026014  
1367.000000	0.025696  
1366.000000	0.025047  
1365.000000	0.023788  
1364.000000	0.021918  
1363.000000	0.019742  
1362.000000	0.017744  
1361.000000	0.016244  
1360.000000	0.015225  
1359.000000	0.014504  
1358.000000	0.013937  
1357.000000	0.013492  
1356.000000	0.013212  
1355.000000	0.013114  
1354.000000	0.013116  
1353.000000	0.013092  
1352.000000	0.012983  
1351.000000	0.012832  
1350.000000	0.012701  
1349.000000	0.012603  
1348.000000	0.012501  
1347.000000	0.012362  
1346.000000	0.012203  
1345.000000	0.012086  
1344.000000	0.012060  
1343.000000	0.012110  
1342.000000	0.012165  
1341.000000	0.012171  
1340.000000	0.012107  
1339.000000	0.011959  
1338.000000	0.011706  
1337.000000	0.011362  
1336.000000	0.010991  
1335.000000	0.010655  
1334.000000	0.010362  
1333.000000	0.010090  
1332.000000	0.009842  
1331.000000	0.009641  
1330.000000	0.009476  
1329.000000	0.009307  
1328.000000	0.009127  
1327.000000	0.008961  
1326.000000	0.008822  
1325.000000	0.008701  
1324.000000	0.008603  
1323.000000	0.008555  
1322.000000	0.008559  
1321.000000	0.008583  
1320.000000	0.008598  
1319.000000	0.008612  
1318.000000	0.008643  
1317.000000	0.008690  
1316.000000	0.008743  
1315.000000	0.008809  
1314.000000	0.008901  
1313.000000	0.009018  
1312.000000	0.009141  
1311.000000	0.009259  
1310.000000	0.009376  
1309.000000	0.009502  
1308.000000	0.009637  
1307.000000	0.009765  
1306.000000	0.009859  
1305.000000	0.009892  
1304.000000	0.009854  
1303.000000	0.009765  
1302.000000	0.009669  
1301.000000	0.009609  
1300.000000	0.009594  
1299.000000	0.009589  
1298.000000	0.009550  
1297.000000	0.009458  
1296.000000	0.009327  
1295.000000	0.009172  
1294.000000	0.008994  
1293.000000	0.008800  
1292.000000	0.008612  
1291.000000	0.008457  
1290.000000	0.008348  
1289.000000	0.008277  
1288.000000	0.008226  
1287.000000	0.008185  
1286.000000	0.008155  
1285.000000	0.008130  
1284.000000	0.008093  
1283.000000	0.008024  
1282.000000	0.007932  
1281.000000	0.007861  
1280.000000	0.007840  
1279.000000	0.007845  
1278.000000	0.007833  
1277.000000	0.007799  
1276.000000	0.007778  
1275.000000	0.007790  
1274.000000	0.007823  
1273.000000	0.007856  
1272.000000	0.007881  
1271.000000	0.007880  
1270.000000	0.007837  
1269.000000	0.007774  
1268.000000	0.007741  
1267.000000	0.007748  
1266.000000	0.007726  
1265.000000	0.007604  
1264.000000	0.007398  
1263.000000	0.007209  
1262.000000	0.007126  
1261.000000	0.007155  
1260.000000	0.007225  
1259.000000	0.007251  
1258.000000	0.007201  
1257.000000	0.007101  
1256.000000	0.006991  
1255.000000	0.006891  
1254.000000	0.006820  
1253.000000	0.006816  
1252.000000	0.006892  
1251.000000	0.006980  
1250.000000	0.006977  
1249.000000	0.006863  
1248.000000	0.006731  
1247.000000	0.006672  
1246.000000	0.006677  
1245.000000	0.006675  
1244.000000	0.006627  
1243.000000	0.006547  
1242.000000	0.006454  
1241.000000	0.006368  
1240.000000	0.006316  
1239.000000	0.006306  
1238.000000	0.006309  
1237.000000	0.006292  
1236.000000	0.006263  
1235.000000	0.006244  
1234.000000	0.006217  
1233.000000	0.006139  
1232.000000	0.006006  
1231.000000	0.005865  
1230.000000	0.005750  
1229.000000	0.005663  
1228.000000	0.005607  
1227.000000	0.005606  
1226.000000	0.005659  
1225.000000	0.005718  
1224.000000	0.005736  
1223.000000	0.005714  
1222.000000	0.005686  
1221.000000	0.005663  
1220.000000	0.005628  
1219.000000	0.005577  
1218.000000	0.005547  
1217.000000	0.005580  
1216.000000	0.005675  
1215.000000	0.005770  
1214.000000	0.005791  
1213.000000	0.005720  
1212.000000	0.005613  
1211.000000	0.005558  
1210.000000	0.005598  
1209.000000	0.005695  
1208.000000	0.005760  
1207.000000	0.005743  
1206.000000	0.005671  
1205.000000	0.005605  
1204.000000	0.005568  
1203.000000	0.005527  
1202.000000	0.005451  
1201.000000	0.005358  
1200.000000	0.005288  
1199.000000	0.005260  
1198.000000	0.005282  
1197.000000	0.005359  
1196.000000	0.005478  
1195.000000	0.005590  
1194.000000	0.005659  
1193.000000	0.005700  
1192.000000	0.005731  
1191.000000	0.005733  
1190.000000	0.005671  
1189.000000	0.005573  
1188.000000	0.005508  
1187.000000	0.005508  
1186.000000	0.005534  
1185.000000	0.005548  
1184.000000	0.005562  
1183.000000	0.005597  
1182.000000	0.005652  
1181.000000	0.005720  
1180.000000	0.005805  
1179.000000	0.005899  
1178.000000	0.005986  
1177.000000	0.006073  
1176.000000	0.006195  
1175.000000	0.006365  
1174.000000	0.006563  
1173.000000	0.006766  
1172.000000	0.006969  
1171.000000	0.007153  
1170.000000	0.007274  
1169.000000	0.007312  
1168.000000	0.007290  
1167.000000	0.007254  
1166.000000	0.007231  
1165.000000	0.007229  
1164.000000	0.007232  
1163.000000	0.007198  
1162.000000	0.007124  
1161.000000	0.007083  
1160.000000	0.007169  
1159.000000	0.007370  
1158.000000	0.007565  
1157.000000	0.007661  
1156.000000	0.007671  
1155.000000	0.007637  
1154.000000	0.007538  
1153.000000	0.007330  
1152.000000	0.007039  
1151.000000	0.006765  
1150.000000	0.006609  
1149.000000	0.006621  
1148.000000	0.006783  
1147.000000	0.007002  
1146.000000	0.007151  
1145.000000	0.007153  
1144.000000	0.007027  
1143.000000	0.006844  
1142.000000	0.006658  
1141.000000	0.006492  
1140.000000	0.006358  
1139.000000	0.006257  
1138.000000	0.006190  
1137.000000	0.006184  
1136.000000	0.006252  
1135.000000	0.006330  
1134.000000	0.006311  
1133.000000	0.006173  
1132.000000	0.006016  
1131.000000	0.005939  
1130.000000	0.005936  
1129.000000	0.005945  
1128.000000	0.005941  
1127.000000	0.005925  
1126.000000	0.005881  
1125.000000	0.005809  
1124.000000	0.005759  
1123.000000	0.005765  
1122.000000	0.005769  
1121.000000	0.005700  
1120.000000	0.005593  
1119.000000	0.005554  
1118.000000	0.005618  
1117.000000	0.005729  
1116.000000	0.005820  
1115.000000	0.005872  
1114.000000	0.005872  
1113.000000	0.005818  
1112.000000	0.005747  
1111.000000	0.005707  
1110.000000	0.005689  
1109.000000	0.005642  
1108.000000	0.005576  
1107.000000	0.005567  
1106.000000	0.005651  
1105.000000	0.005758  
1104.000000	0.005780  
1103.000000	0.005686  
1102.000000	0.005550  
1101.000000	0.005486  
1100.000000	0.005559  
1099.000000	0.005727  
1098.000000	0.005876  
1097.000000	0.005936  
1096.000000	0.005945  
1095.000000	0.005976  
1094.000000	0.006034  
1093.000000	0.006073  
1092.000000	0.006087  
1091.000000	0.006114  
1090.000000	0.006142  
1089.000000	0.006108  
1088.000000	0.005994  
1087.000000	0.005876  
1086.000000	0.005836  
1085.000000	0.005871  
1084.000000	0.005924  
1083.000000	0.005948  
1082.000000	0.005922  
1081.000000	0.005853  
1080.000000	0.005791  
1079.000000	0.005821  
1078.000000	0.005973  
1077.000000	0.006186  
1076.000000	0.006376  
1075.000000	0.006530  
1074.000000	0.006679  
1073.000000	0.006821  
1072.000000	0.006897  
1071.000000	0.006875  
1070.000000	0.006796  
1069.000000	0.006727  
1068.000000	0.006686  
1067.000000	0.006633  
1066.000000	0.006542  
1065.000000	0.006453  
1064.000000	0.006435  
1063.000000	0.006493  
1062.000000	0.006537  
1061.000000	0.006478  
1060.000000	0.006331  
1059.000000	0.006203  
1058.000000	0.006177  
1057.000000	0.006264  
1056.000000	0.006447  
1055.000000	0.006711  
1054.000000	0.006979  
1053.000000	0.007080  
1052.000000	0.006879  
1051.000000	0.006469  
1050.000000	0.006149  
1049.000000	0.006133  
1048.000000	0.006353  
1047.000000	0.006581  
1046.000000	0.006680  
1045.000000	0.006685  
1044.000000	0.006698  
1043.000000	0.006775  
1042.000000	0.006913  
1041.000000	0.007061  
1040.000000	0.007147  
1039.000000	0.007122  
1038.000000	0.007004  
1037.000000	0.006874  
1036.000000	0.006795  
1035.000000	0.006782  
1034.000000	0.006831  
1033.000000	0.006945  
1032.000000	0.007098  
1031.000000	0.007217  
1030.000000	0.007251  
1029.000000	0.007241  
1028.000000	0.007258  
1027.000000	0.007307  
1026.000000	0.007328  
1025.000000	0.007285  
1024.000000	0.007206  
1023.000000	0.007125  
1022.000000	0.007052  
1021.000000	0.007002  
1020.000000	0.006989  
1019.000000	0.006989  
1018.000000	0.006960  
1017.000000	0.006919  
1016.000000	0.006948  
1015.000000	0.007078  
1014.000000	0.007227  
1013.000000	0.007283  
1012.000000	0.007221  
1011.000000	0.007111  
1010.000000	0.007034  
1009.000000	0.007021  
1008.000000	0.007054  
1007.000000	0.007090  
1006.000000	0.007093  
1005.000000	0.007072  
1004.000000	0.007072  
1003.000000	0.007122  
1002.000000	0.007194  
1001.000000	0.007231  
1000.000000	0.007185  
999.000000	 0.007030  
998.000000	 0.006786  
997.000000	 0.006551  
996.000000	 0.006452  
995.000000	 0.006535  
994.000000	 0.006711  
993.000000	 0.006847  
992.000000	 0.006884  
991.000000	 0.006858  
990.000000	 0.006844  
989.000000	 0.006910  
988.000000	 0.007072  
987.000000	 0.007254  
986.000000	 0.007334  
985.000000	 0.007288  
984.000000	 0.007233  
983.000000	 0.007289  
982.000000	 0.007421  
981.000000	 0.007504  
980.000000	 0.007506  
979.000000	 0.007520  
978.000000	 0.007628  
977.000000	 0.007809  
976.000000	 0.007993  
975.000000	 0.008137  
974.000000	 0.008230  
973.000000	 0.008278  
972.000000	 0.008326  
971.000000	 0.008436  
970.000000	 0.008616  
969.000000	 0.008799  
968.000000	 0.008914  
967.000000	 0.008943  
966.000000	 0.008902  
965.000000	 0.008795  
964.000000	 0.008629  
963.000000	 0.008449  
962.000000	 0.008321  
961.000000	 0.008283  
960.000000	 0.008320  
959.000000	 0.008377  
958.000000	 0.008399  
957.000000	 0.008373  
956.000000	 0.008330  
955.000000	 0.008304  
954.000000	 0.008284  
953.000000	 0.008236  
952.000000	 0.008177  
951.000000	 0.008173  
950.000000	 0.008253  
949.000000	 0.008363  
948.000000	 0.008426  
947.000000	 0.008439  
946.000000	 0.008464  
945.000000	 0.008553  
944.000000	 0.008683  
943.000000	 0.008795  
942.000000	 0.008840  
941.000000	 0.008808  
940.000000	 0.008699  
939.000000	 0.008518  
938.000000	 0.008288  
937.000000	 0.008074  
936.000000	 0.007944  
935.000000	 0.007910  
934.000000	 0.007922  
933.000000	 0.007937  
932.000000	 0.007966  
931.000000	 0.008022  
930.000000	 0.008061  
929.000000	 0.008016  
928.000000	 0.007901  
927.000000	 0.007814  
926.000000	 0.007825  
925.000000	 0.007904  
924.000000	 0.007981  
923.000000	 0.008035  
922.000000	 0.008085  
921.000000	 0.008116  
920.000000	 0.008082  
919.000000	 0.007959  
918.000000	 0.007796  
917.000000	 0.007677  
916.000000	 0.007652  
915.000000	 0.007708  
914.000000	 0.007781  
913.000000	 0.007801  
912.000000	 0.007737  
911.000000	 0.007624  
910.000000	 0.007546  
909.000000	 0.007579  
908.000000	 0.007713  
907.000000	 0.007851  
906.000000	 0.007886  
905.000000	 0.007816  
904.000000	 0.007747  
903.000000	 0.007782  
902.000000	 0.007908  
901.000000	 0.008031  
900.000000	 0.008101  
899.000000	 0.008173  
898.000000	 0.008314  
897.000000	 0.008504  
896.000000	 0.008650  
895.000000	 0.008700  
894.000000	 0.008692  
893.000000	 0.008701  
892.000000	 0.008754  
891.000000	 0.008816  
890.000000	 0.008856  
889.000000	 0.008883  
888.000000	 0.008920  
887.000000	 0.008952  
886.000000	 0.008937  
885.000000	 0.008854  
884.000000	 0.008719  
883.000000	 0.008566  
882.000000	 0.008419  
881.000000	 0.008307  
880.000000	 0.008263  
879.000000	 0.008292  
878.000000	 0.008348  
877.000000	 0.008370  
876.000000	 0.008322  
875.000000	 0.008211  
874.000000	 0.008061  
873.000000	 0.007891  
872.000000	 0.007713  
871.000000	 0.007551  
870.000000	 0.007474  
869.000000	 0.007562  
868.000000	 0.007820  
867.000000	 0.008107  
866.000000	 0.008228  
865.000000	 0.008110  
864.000000	 0.007862  
863.000000	 0.007654  
862.000000	 0.007570  
861.000000	 0.007607  
860.000000	 0.007744  
859.000000	 0.007931  
858.000000	 0.008062  
857.000000	 0.008049  
856.000000	 0.007943  
855.000000	 0.007924  
854.000000	 0.008122  
853.000000	 0.008493  
852.000000	 0.008896  
851.000000	 0.009231  
850.000000	 0.009476  
849.000000	 0.009631  
848.000000	 0.009670  
847.000000	 0.009587  
846.000000	 0.009424  
845.000000	 0.009247  
844.000000	 0.009074  
843.000000	 0.008873  
842.000000	 0.008622  
841.000000	 0.008368  
840.000000	 0.008213  
839.000000	 0.008220  
838.000000	 0.008359  
837.000000	 0.008509  
836.000000	 0.008529  
835.000000	 0.008323  
834.000000	 0.007914  
833.000000	 0.007467  
832.000000	 0.007197  
831.000000	 0.007208  
830.000000	 0.007421  
829.000000	 0.007679  
828.000000	 0.007917  
827.000000	 0.008175  
826.000000	 0.008475  
825.000000	 0.008744  
824.000000	 0.008884  
823.000000	 0.008876  
822.000000	 0.008769  
821.000000	 0.008648  
820.000000	 0.008608  
819.000000	 0.008735  
818.000000	 0.009059  
817.000000	 0.009527  
816.000000	 0.010012  
815.000000	 0.010364  
814.000000	 0.010481  
813.000000	 0.010370  
812.000000	 0.010155  
811.000000	 0.010010  
810.000000	 0.010059  
809.000000	 0.010332  
808.000000	 0.010756  
807.000000	 0.011185  
806.000000	 0.011465  
805.000000	 0.011505  
804.000000	 0.011308  
803.000000	 0.010934  
802.000000	 0.010461  
801.000000	 0.009983  
800.000000	 0.009591  
799.000000	 0.009317  
798.000000	 0.009106  
797.000000	 0.008870  
796.000000	 0.008578  
795.000000	 0.008264  
794.000000	 0.007980  
793.000000	 0.007790  
792.000000	 0.007767  
791.000000	 0.007936  
790.000000	 0.008198  
789.000000	 0.008376  
788.000000	 0.008384  
787.000000	 0.008324  
786.000000	 0.008386  
785.000000	 0.008665  
784.000000	 0.009086  
783.000000	 0.009509  
782.000000	 0.009869  
781.000000	 0.010211  
780.000000	 0.010585  
779.000000	 0.010947  
778.000000	 0.011206  
777.000000	 0.011365  
776.000000	 0.011553  
775.000000	 0.011892  
774.000000	 0.012347  
773.000000	 0.012778  
772.000000	 0.013107  
771.000000	 0.013379  
770.000000	 0.013662  
769.000000	 0.013943  
768.000000	 0.014140  
767.000000	 0.014163  
766.000000	 0.013950  
765.000000	 0.013479  
764.000000	 0.012836  
763.000000	 0.012224  
762.000000	 0.011865  
761.000000	 0.011829  
760.000000	 0.011989  
759.000000	 0.012150  
758.000000	 0.012222  
757.000000	 0.012271  
756.000000	 0.012411  
755.000000	 0.012668  
754.000000	 0.012956  
753.000000	 0.013170  
752.000000	 0.013267  
751.000000	 0.013264  
750.000000	 0.013204  
749.000000	 0.013153  
748.000000	 0.013223  
747.000000	 0.013559  
746.000000	 0.014301  
745.000000	 0.015513  
744.000000	 0.017095  
743.000000	 0.018745  
742.000000	 0.020036  
741.000000	 0.020644  
740.000000	 0.020544  
739.000000	 0.019983  
738.000000	 0.019259  
737.000000	 0.018543  
736.000000	 0.017894  
735.000000	 0.017369  
734.000000	 0.017068  
733.000000	 0.017056  
732.000000	 0.017275  
731.000000	 0.017561  
730.000000	 0.017792  
729.000000	 0.018040  
728.000000	 0.018539  
727.000000	 0.019452  
726.000000	 0.020684  
725.000000	 0.021938  
724.000000	 0.022954  
723.000000	 0.023636  
722.000000	 0.023915  
721.000000	 0.023586  
720.000000	 0.022418  
719.000000	 0.020492  
718.000000	 0.018273  
717.000000	 0.016303  
716.000000	 0.014874  
715.000000	 0.013921  
714.000000	 0.013162  
713.000000	 0.012360  
712.000000	 0.011498  
711.000000	 0.010728  
710.000000	 0.010210  
709.000000	 0.009988  
708.000000	 0.009979  
707.000000	 0.010061  
706.000000	 0.010186  
705.000000	 0.010415  
704.000000	 0.010786  
703.000000	 0.011186  
702.000000	 0.011440  
701.000000	 0.011550  
700.000000	 0.011718  
699.000000	 0.012017  
698.000000	 0.012147  
697.000000	 0.011709  
696.000000	 0.010726  
695.000000	 0.009725  
694.000000	 0.009177  
693.000000	 0.008979  
692.000000	 0.008614  
691.000000	 0.007781  
690.000000	 0.006731  
689.000000	 0.005947  
688.000000	 0.005581  
687.000000	 0.005368  
686.000000	 0.005062  
685.000000	 0.004744  
684.000000	 0.004608  
683.000000	 0.004656  
682.000000	 0.004740  
681.000000	 0.004760  
680.000000	 0.004700  
679.000000	 0.004539  
678.000000	 0.004316  
677.000000	 0.004222  
676.000000	 0.004383  
675.000000	 0.004615  
674.000000	 0.004636  
673.000000	 0.004471  
672.000000	 0.004332  
671.000000	 0.004120  
670.000000	 0.003413  
669.000000	 0.001833  
668.000000	 -0.000012 
667.000000	 -0.000293 
666.000000	 0.000981  
665.000000	 0.002327  
664.000000	 0.003193  
663.000000	 0.003749  
662.000000	 0.004086  
661.000000	 0.004096  
660.000000	 0.003906  
659.000000	 0.003903  
658.000000	 0.004132  
657.000000	 0.004099  
656.000000	 0.003403  
655.000000	 0.002349  
654.000000	 0.001704  
653.000000	 0.001906  
652.000000	 0.002679  
651.000000	 0.003374  
650.000000	 0.003551  

