PE IR                   SPECTRUM    ASCII       PEDS        1.60        
  -1
NB4-30~1.ASC
17/04/10
13:55:06.00
17/04/10
13:55:06.00
Admin

650.000000
6









SPECTRUM ONE,CPU32 MAIN 00.02.5000 17-APRIL-2002 13:00:00
MIR TGS
MIR
OPTKBR
68128
0.200000

4.000000
STRONG
RATIO
SPECTRUM
MAGNITUDE

DOUBLE

COMBINED


0


#HDR
-1
-1
#GR
CM-1
A
0.00000011920928955078
0.0
4000.000000
-1.000000
3351
8
0.201020
-0.008055
#DATA
4000.000000	0.001065  
3999.000000	0.001094  
3998.000000	0.001237  
3997.000000	0.001483  
3996.000000	0.001760  
3995.000000	0.001980  
3994.000000	0.001711  
3993.000000	0.001713  
3992.000000	0.001651  
3991.000000	0.001556  
3990.000000	0.001446  
3989.000000	0.001331  
3988.000000	0.001217  
3987.000000	0.001119  
3986.000000	0.001072  
3985.000000	0.001099  
3984.000000	0.001165  
3983.000000	0.001183  
3982.000000	0.001081  
3981.000000	0.000876  
3980.000000	0.000676  
3979.000000	0.000602  
3978.000000	0.000693  
3977.000000	0.000894  
3976.000000	0.001108  
3975.000000	0.001271  
3974.000000	0.001363  
3973.000000	0.001388  
3972.000000	0.001352  
3971.000000	0.001273  
3970.000000	0.001186  
3969.000000	0.001112  
3968.000000	0.001045  
3967.000000	0.000969  
3966.000000	0.000903  
3965.000000	0.000906  
3964.000000	0.001020  
3963.000000	0.001214  
3962.000000	0.001395  
3961.000000	0.001483  
3960.000000	0.001473  
3959.000000	0.001421  
3958.000000	0.001386  
3957.000000	0.001377  
3956.000000	0.001360  
3955.000000	0.001307  
3954.000000	0.001230  
3953.000000	0.001173  
3952.000000	0.001169  
3951.000000	0.001215  
3950.000000	0.001289  
3949.000000	0.001371  
3948.000000	0.001445  
3947.000000	0.001497  
3946.000000	0.001509  
3945.000000	0.001465  
3944.000000	0.001369  
3943.000000	0.001261  
3942.000000	0.001182  
3941.000000	0.001147  
3940.000000	0.001146  
3939.000000	0.001168  
3938.000000	0.001214  
3937.000000	0.001283  
3936.000000	0.001359  
3935.000000	0.001414  
3934.000000	0.001437  
3933.000000	0.001445  
3932.000000	0.001453  
3931.000000	0.001460  
3930.000000	0.001458  
3929.000000	0.001446  
3928.000000	0.001450  
3927.000000	0.001492  
3926.000000	0.001560  
3925.000000	0.001617  
3924.000000	0.001654  
3923.000000	0.001693  
3922.000000	0.001745  
3921.000000	0.001794  
3920.000000	0.001810  
3919.000000	0.001778  
3918.000000	0.001693  
3917.000000	0.001573  
3916.000000	0.001461  
3915.000000	0.001404  
3914.000000	0.001389  
3913.000000	0.001363  
3912.000000	0.001277  
3911.000000	0.001142  
3910.000000	0.001022  
3909.000000	0.000985  
3908.000000	0.001052  
3907.000000	0.001195  
3906.000000	0.001358  
3905.000000	0.001498  
3904.000000	0.001608  
3903.000000	0.001676  
3902.000000	0.001686  
3901.000000	0.001640  
3900.000000	0.001579  
3899.000000	0.001562  
3898.000000	0.001589  
3897.000000	0.001593  
3896.000000	0.001512  
3895.000000	0.001364  
3894.000000	0.001244  
3893.000000	0.001226  
3892.000000	0.001260  
3891.000000	0.001234  
3890.000000	0.001141  
3889.000000	0.001083  
3888.000000	0.001113  
3887.000000	0.001154  
3886.000000	0.001108  
3885.000000	0.001006  
3884.000000	0.000967  
3883.000000	0.001030  
3882.000000	0.001126  
3881.000000	0.001180  
3880.000000	0.001191  
3879.000000	0.001237  
3878.000000	0.001393  
3877.000000	0.001628  
3876.000000	0.001808  
3875.000000	0.001829  
3874.000000	0.001759  
3873.000000	0.001778  
3872.000000	0.001941  
3871.000000	0.002083  
3870.000000	0.002028  
3869.000000	0.001850  
3868.000000	0.001775  
3867.000000	0.001865  
3866.000000	0.001968  
3865.000000	0.001962  
3864.000000	0.001890  
3863.000000	0.001851  
3862.000000	0.001846  
3861.000000	0.001797  
3860.000000	0.001633  
3859.000000	0.001352  
3858.000000	0.001025  
3857.000000	0.000786  
3856.000000	0.000718  
3855.000000	0.000681  
3854.000000	0.000517  
3853.000000	0.000328  
3852.000000	0.000363  
3851.000000	0.000708  
3850.000000	0.001214  
3849.000000	0.001700  
3848.000000	0.002083  
3847.000000	0.002348  
3846.000000	0.002501  
3845.000000	0.002594  
3844.000000	0.002666  
3843.000000	0.002715  
3842.000000	0.002716  
3841.000000	0.002645  
3840.000000	0.002476  
3839.000000	0.002207  
3838.000000	0.001897  
3837.000000	0.001672  
3836.000000	0.001649  
3835.000000	0.001842  
3834.000000	0.002153  
3833.000000	0.002405  
3832.000000	0.002464  
3831.000000	0.002364  
3830.000000	0.002265  
3829.000000	0.002275  
3828.000000	0.002322  
3827.000000	0.002226  
3826.000000	0.001959  
3825.000000	0.001741  
3824.000000	0.001833  
3823.000000	0.002236  
3822.000000	0.002636  
3821.000000	0.002679  
3820.000000	0.002341  
3819.000000	0.001879  
3818.000000	0.001514  
3817.000000	0.001271  
3816.000000	0.001106  
3815.000000	0.001060  
3814.000000	0.001172  
3813.000000	0.001342  
3812.000000	0.001415  
3811.000000	0.001363  
3810.000000	0.001289  
3809.000000	0.001294  
3808.000000	0.001362  
3807.000000	0.001438  
3806.000000	0.001575  
3805.000000	0.001876  
3804.000000	0.002293  
3803.000000	0.002557  
3802.000000	0.002404  
3801.000000	0.001957  
3800.000000	0.001629  
3799.000000	0.001629  
3798.000000	0.001830  
3797.000000	0.002007  
3796.000000	0.002073  
3795.000000	0.002084  
3794.000000	0.002093  
3793.000000	0.002072  
3792.000000	0.001973  
3791.000000	0.001811  
3790.000000	0.001650  
3789.000000	0.001543  
3788.000000	0.001505  
3787.000000	0.001514  
3786.000000	0.001519  
3785.000000	0.001471  
3784.000000	0.001380  
3783.000000	0.001319  
3782.000000	0.001331  
3781.000000	0.001391  
3780.000000	0.001443  
3779.000000	0.001485  
3778.000000	0.001553  
3777.000000	0.001657  
3776.000000	0.001731  
3775.000000	0.001694  
3774.000000	0.001559  
3773.000000	0.001432  
3772.000000	0.001399  
3771.000000	0.001472  
3770.000000	0.001636  
3769.000000	0.001871  
3768.000000	0.002110  
3767.000000	0.002215  
3766.000000	0.002071  
3765.000000	0.001736  
3764.000000	0.001434  
3763.000000	0.001352  
3762.000000	0.001478  
3761.000000	0.001677  
3760.000000	0.001858  
3759.000000	0.002011  
3758.000000	0.002096  
3757.000000	0.002045  
3756.000000	0.001856  
3755.000000	0.001648  
3754.000000	0.001633  
3753.000000	0.002001  
3752.000000	0.002692  
3751.000000	0.003244  
3750.000000	0.003187  
3749.000000	0.002635  
3748.000000	0.002102  
3747.000000	0.002014  
3746.000000	0.002382  
3745.000000	0.002774  
3744.000000	0.002853  
3743.000000	0.002822  
3742.000000	0.002941  
3741.000000	0.003171  
3740.000000	0.003414  
3739.000000	0.003696  
3738.000000	0.004028  
3737.000000	0.004278  
3736.000000	0.004300  
3735.000000	0.004138  
3734.000000	0.003978  
3733.000000	0.003879  
3732.000000	0.003742  
3731.000000	0.003532  
3730.000000	0.003338  
3729.000000	0.003229  
3728.000000	0.003169  
3727.000000	0.003108  
3726.000000	0.003088  
3725.000000	0.003178  
3724.000000	0.003299  
3723.000000	0.003274  
3722.000000	0.003012  
3721.000000	0.002600  
3720.000000	0.002207  
3719.000000	0.001939  
3718.000000	0.001785  
3717.000000	0.001692  
3716.000000	0.001630  
3715.000000	0.001589  
3714.000000	0.001584  
3713.000000	0.001690  
3712.000000	0.001988  
3711.000000	0.002399  
3710.000000	0.002707  
3709.000000	0.002796  
3708.000000	0.002748  
3707.000000	0.002724  
3706.000000	0.002797  
3705.000000	0.002871  
3704.000000	0.002770  
3703.000000	0.002426  
3702.000000	0.001986  
3701.000000	0.001680  
3700.000000	0.001624  
3699.000000	0.001768  
3698.000000	0.001967  
3697.000000	0.002108  
3696.000000	0.002214  
3695.000000	0.002377  
3694.000000	0.002598  
3693.000000	0.002735  
3692.000000	0.002632  
3691.000000	0.002291  
3690.000000	0.001914  
3689.000000	0.001699  
3688.000000	0.001686  
3687.000000	0.001824  
3686.000000	0.002026  
3685.000000	0.002210  
3684.000000	0.002347  
3683.000000	0.002441  
3682.000000	0.002444  
3681.000000	0.002260  
3680.000000	0.001901  
3679.000000	0.001606  
3678.000000	0.001690  
3677.000000	0.002171  
3676.000000	0.002665  
3675.000000	0.002793  
3674.000000	0.002640  
3673.000000	0.002525  
3672.000000	0.002580  
3671.000000	0.002691  
3670.000000	0.002731  
3669.000000	0.002697  
3668.000000	0.002623  
3667.000000	0.002515  
3666.000000	0.002353  
3665.000000	0.002113  
3664.000000	0.001794  
3663.000000	0.001418  
3662.000000	0.001036  
3661.000000	0.000718  
3660.000000	0.000536  
3659.000000	0.000531  
3658.000000	0.000693  
3657.000000	0.000956  
3656.000000	0.001266  
3655.000000	0.001614  
3654.000000	0.001990  
3653.000000	0.002300  
3652.000000	0.002414  
3651.000000	0.002349  
3650.000000	0.002314  
3649.000000	0.002420  
3648.000000	0.002522  
3647.000000	0.002489  
3646.000000	0.002352  
3645.000000	0.002221  
3644.000000	0.002189  
3643.000000	0.002290  
3642.000000	0.002493  
3641.000000	0.002713  
3640.000000	0.002842  
3639.000000	0.002814  
3638.000000	0.002680  
3637.000000	0.002588  
3636.000000	0.002641  
3635.000000	0.002781  
3634.000000	0.002865  
3633.000000	0.002845  
3632.000000	0.002817  
3631.000000	0.002890  
3630.000000	0.003043  
3629.000000	0.003140  
3628.000000	0.003099  
3627.000000	0.003003  
3626.000000	0.002941  
3625.000000	0.002898  
3624.000000	0.002827  
3623.000000	0.002690  
3622.000000	0.002452  
3621.000000	0.002120  
3620.000000	0.001821  
3619.000000	0.001720  
3618.000000	0.001845  
3617.000000	0.002104  
3616.000000	0.002393  
3615.000000	0.002632  
3614.000000	0.002784  
3613.000000	0.002875  
3612.000000	0.002983  
3611.000000	0.003178  
3610.000000	0.003433  
3609.000000	0.003591  
3608.000000	0.003510  
3607.000000	0.003203  
3606.000000	0.002818  
3605.000000	0.002503  
3604.000000	0.002333  
3603.000000	0.002333  
3602.000000	0.002486  
3601.000000	0.002747  
3600.000000	0.003067  
3599.000000	0.003385  
3598.000000	0.003606  
3597.000000	0.003641  
3596.000000	0.003486  
3595.000000	0.003247  
3594.000000	0.003059  
3593.000000	0.002956  
3592.000000	0.002864  
3591.000000	0.002727  
3590.000000	0.002591  
3589.000000	0.002586  
3588.000000	0.002800  
3587.000000	0.003126  
3586.000000	0.003367  
3585.000000	0.003414  
3584.000000	0.003274  
3583.000000	0.003020  
3582.000000	0.002765  
3581.000000	0.002633  
3580.000000	0.002677  
3579.000000	0.002820  
3578.000000	0.002900  
3577.000000	0.002814  
3576.000000	0.002612  
3575.000000	0.002414  
3574.000000	0.002274  
3573.000000	0.002141  
3572.000000	0.001974  
3571.000000	0.001841  
3570.000000	0.001885  
3569.000000	0.002171  
3568.000000	0.002570  
3567.000000	0.002843  
3566.000000	0.002912  
3565.000000	0.002912  
3564.000000	0.002965  
3563.000000	0.003046  
3562.000000	0.003073  
3561.000000	0.003038  
3560.000000	0.003031  
3559.000000	0.003138  
3558.000000	0.003327  
3557.000000	0.003467  
3556.000000	0.003451  
3555.000000	0.003291  
3554.000000	0.003094  
3553.000000	0.002969  
3552.000000	0.002948  
3551.000000	0.002986  
3550.000000	0.003011  
3549.000000	0.002966  
3548.000000	0.002859  
3547.000000	0.002772  
3546.000000	0.002803  
3545.000000	0.002973  
3544.000000	0.003200  
3543.000000	0.003389  
3542.000000	0.003511  
3541.000000	0.003599  
3540.000000	0.003678  
3539.000000	0.003710  
3538.000000	0.003619  
3537.000000	0.003374  
3536.000000	0.003038  
3535.000000	0.002744  
3534.000000	0.002606  
3533.000000	0.002654  
3532.000000	0.002845  
3531.000000	0.003104  
3530.000000	0.003345  
3529.000000	0.003487  
3528.000000	0.003492  
3527.000000	0.003396  
3526.000000	0.003281  
3525.000000	0.003197  
3524.000000	0.003137  
3523.000000	0.003091  
3522.000000	0.003077  
3521.000000	0.003113  
3520.000000	0.003182  
3519.000000	0.003257  
3518.000000	0.003347  
3517.000000	0.003487  
3516.000000	0.003680  
3515.000000	0.003882  
3514.000000	0.004040  
3513.000000	0.004142  
3512.000000	0.004201  
3511.000000	0.004228  
3510.000000	0.004224  
3509.000000	0.004186  
3508.000000	0.004115  
3507.000000	0.004028  
3506.000000	0.003971  
3505.000000	0.004005  
3504.000000	0.004153  
3503.000000	0.004359  
3502.000000	0.004516  
3501.000000	0.004555  
3500.000000	0.004487  
3499.000000	0.004393  
3498.000000	0.004349  
3497.000000	0.004365  
3496.000000	0.004386  
3495.000000	0.004358  
3494.000000	0.004286  
3493.000000	0.004212  
3492.000000	0.004158  
3491.000000	0.004116  
3490.000000	0.004082  
3489.000000	0.004073  
3488.000000	0.004112  
3487.000000	0.004223  
3486.000000	0.004431  
3485.000000	0.004720  
3484.000000	0.004987  
3483.000000	0.005078  
3482.000000	0.004923  
3481.000000	0.004630  
3480.000000	0.004409  
3479.000000	0.004385  
3478.000000	0.004518  
3477.000000	0.004671  
3476.000000	0.004748  
3475.000000	0.004768  
3474.000000	0.004807  
3473.000000	0.004900  
3472.000000	0.004987  
3471.000000	0.004985  
3470.000000	0.004882  
3469.000000	0.004754  
3468.000000	0.004687  
3467.000000	0.004710  
3466.000000	0.004794  
3465.000000	0.004885  
3464.000000	0.004923  
3463.000000	0.004875  
3462.000000	0.004771  
3461.000000	0.004698  
3460.000000	0.004725  
3459.000000	0.004839  
3458.000000	0.004976  
3457.000000	0.005094  
3456.000000	0.005188  
3455.000000	0.005265  
3454.000000	0.005336  
3453.000000	0.005417  
3452.000000	0.005514  
3451.000000	0.005593  
3450.000000	0.005614  
3449.000000	0.005582  
3448.000000	0.005549  
3447.000000	0.005557  
3446.000000	0.005608  
3445.000000	0.005685  
3444.000000	0.005762  
3443.000000	0.005807  
3442.000000	0.005809  
3441.000000	0.005815  
3440.000000	0.005903  
3439.000000	0.006078  
3438.000000	0.006238  
3437.000000	0.006250  
3436.000000	0.006075  
3435.000000	0.005799  
3434.000000	0.005566  
3433.000000	0.005489  
3432.000000	0.005584  
3431.000000	0.005772  
3430.000000	0.005930  
3429.000000	0.005970  
3428.000000	0.005876  
3427.000000	0.005701  
3426.000000	0.005534  
3425.000000	0.005473  
3424.000000	0.005568  
3423.000000	0.005789  
3422.000000	0.006042  
3421.000000	0.006239  
3420.000000	0.006343  
3419.000000	0.006364  
3418.000000	0.006340  
3417.000000	0.006326  
3416.000000	0.006364  
3415.000000	0.006434  
3414.000000	0.006475  
3413.000000	0.006474  
3412.000000	0.006489  
3411.000000	0.006564  
3410.000000	0.006638  
3409.000000	0.006594  
3408.000000	0.006396  
3407.000000	0.006144  
3406.000000	0.005981  
3405.000000	0.005968  
3404.000000	0.006069  
3403.000000	0.006214  
3402.000000	0.006366  
3401.000000	0.006509  
3400.000000	0.006601  
3399.000000	0.006590  
3398.000000	0.006484  
3397.000000	0.006393  
3396.000000	0.006457  
3395.000000	0.006712  
3394.000000	0.007040  
3393.000000	0.007258  
3392.000000	0.007258  
3391.000000	0.007075  
3390.000000	0.006851  
3389.000000	0.006732  
3388.000000	0.006767  
3387.000000	0.006877  
3386.000000	0.006935  
3385.000000	0.006896  
3384.000000	0.006844  
3383.000000	0.006884  
3382.000000	0.007018  
3381.000000	0.007158  
3380.000000	0.007226  
3379.000000	0.007200  
3378.000000	0.007068  
3377.000000	0.006823  
3376.000000	0.006516  
3375.000000	0.006286  
3374.000000	0.006253  
3373.000000	0.006407  
3372.000000	0.006612  
3371.000000	0.006746  
3370.000000	0.006819  
3369.000000	0.006932  
3368.000000	0.007144  
3367.000000	0.007405  
3366.000000	0.007608  
3365.000000	0.007687  
3364.000000	0.007647  
3363.000000	0.007523  
3362.000000	0.007367  
3361.000000	0.007253  
3360.000000	0.007246  
3359.000000	0.007330  
3358.000000	0.007398  
3357.000000	0.007353  
3356.000000	0.007205  
3355.000000	0.007038  
3354.000000	0.006916  
3353.000000	0.006851  
3352.000000	0.006843  
3351.000000	0.006895  
3350.000000	0.006976  
3349.000000	0.007038  
3348.000000	0.007087  
3347.000000	0.007192  
3346.000000	0.007396  
3345.000000	0.007632  
3344.000000	0.007775  
3343.000000	0.007775  
3342.000000	0.007683  
3341.000000	0.007570  
3340.000000	0.007448  
3339.000000	0.007296  
3338.000000	0.007143  
3337.000000	0.007075  
3336.000000	0.007139  
3335.000000	0.007276  
3334.000000	0.007370  
3333.000000	0.007364  
3332.000000	0.007311  
3331.000000	0.007306  
3330.000000	0.007390  
3329.000000	0.007525  
3328.000000	0.007650  
3327.000000	0.007720  
3326.000000	0.007711  
3325.000000	0.007630  
3324.000000	0.007519  
3323.000000	0.007445  
3322.000000	0.007440  
3321.000000	0.007484  
3320.000000	0.007547  
3319.000000	0.007636  
3318.000000	0.007769  
3317.000000	0.007911  
3316.000000	0.007981  
3315.000000	0.007918  
3314.000000	0.007747  
3313.000000	0.007560  
3312.000000	0.007438  
3311.000000	0.007411  
3310.000000	0.007461  
3309.000000	0.007536  
3308.000000	0.007568  
3307.000000	0.007516  
3306.000000	0.007425  
3305.000000	0.007400  
3304.000000	0.007515  
3303.000000	0.007724  
3302.000000	0.007919  
3301.000000	0.008038  
3300.000000	0.008093  
3299.000000	0.008094  
3298.000000	0.008016  
3297.000000	0.007868  
3296.000000	0.007730  
3295.000000	0.007672  
3294.000000	0.007676  
3293.000000	0.007689  
3292.000000	0.007710  
3291.000000	0.007771  
3290.000000	0.007833  
3289.000000	0.007789  
3288.000000	0.007604  
3287.000000	0.007376  
3286.000000	0.007236  
3285.000000	0.007212  
3284.000000	0.007222  
3283.000000	0.007193  
3282.000000	0.007137  
3281.000000	0.007123  
3280.000000	0.007199  
3279.000000	0.007350  
3278.000000	0.007514  
3277.000000	0.007642  
3276.000000	0.007742  
3275.000000	0.007861  
3274.000000	0.008027  
3273.000000	0.008206  
3272.000000	0.008308  
3271.000000	0.008254  
3270.000000	0.008038  
3269.000000	0.007745  
3268.000000	0.007478  
3267.000000	0.007295  
3266.000000	0.007188  
3265.000000	0.007159  
3264.000000	0.007237  
3263.000000	0.007421  
3262.000000	0.007627  
3261.000000	0.007756  
3260.000000	0.007804  
3259.000000	0.007846  
3258.000000	0.007923  
3257.000000	0.007980  
3256.000000	0.007931  
3255.000000	0.007762  
3254.000000	0.007551  
3253.000000	0.007421  
3252.000000	0.007447  
3251.000000	0.007589  
3250.000000	0.007706  
3249.000000	0.007695  
3248.000000	0.007599  
3247.000000	0.007536  
3246.000000	0.007539  
3245.000000	0.007529  
3244.000000	0.007467  
3243.000000	0.007429  
3242.000000	0.007486  
3241.000000	0.007581  
3240.000000	0.007591  
3239.000000	0.007475  
3238.000000	0.007288  
3237.000000	0.007089  
3236.000000	0.006909  
3235.000000	0.006776  
3234.000000	0.006730  
3233.000000	0.006792  
3232.000000	0.006949  
3231.000000	0.007160  
3230.000000	0.007355  
3229.000000	0.007448  
3228.000000	0.007423  
3227.000000	0.007369  
3226.000000	0.007391  
3225.000000	0.007498  
3224.000000	0.007609  
3223.000000	0.007658  
3222.000000	0.007629  
3221.000000	0.007521  
3220.000000	0.007341  
3219.000000	0.007151  
3218.000000	0.007048  
3217.000000	0.007076  
3216.000000	0.007187  
3215.000000	0.007300  
3214.000000	0.007366  
3213.000000	0.007366  
3212.000000	0.007304  
3211.000000	0.007223  
3210.000000	0.007185  
3209.000000	0.007216  
3208.000000	0.007285  
3207.000000	0.007350  
3206.000000	0.007398  
3205.000000	0.007434  
3204.000000	0.007459  
3203.000000	0.007486  
3202.000000	0.007517  
3201.000000	0.007515  
3200.000000	0.007415  
3199.000000	0.007195  
3198.000000	0.006898  
3197.000000	0.006583  
3196.000000	0.006288  
3195.000000	0.006060  
3194.000000	0.005976  
3193.000000	0.006075  
3192.000000	0.006293  
3191.000000	0.006522  
3190.000000	0.006716  
3189.000000	0.006900  
3188.000000	0.007076  
3187.000000	0.007189  
3186.000000	0.007194  
3185.000000	0.007120  
3184.000000	0.007025  
3183.000000	0.006933  
3182.000000	0.006826  
3181.000000	0.006697  
3180.000000	0.006565  
3179.000000	0.006449  
3178.000000	0.006362  
3177.000000	0.006330  
3176.000000	0.006383  
3175.000000	0.006509  
3174.000000	0.006629  
3173.000000	0.006644  
3172.000000	0.006526  
3171.000000	0.006340  
3170.000000	0.006194  
3169.000000	0.006160  
3168.000000	0.006232  
3167.000000	0.006344  
3166.000000	0.006419  
3165.000000	0.006431  
3164.000000	0.006417  
3163.000000	0.006427  
3162.000000	0.006465  
3161.000000	0.006489  
3160.000000	0.006476  
3159.000000	0.006453  
3158.000000	0.006464  
3157.000000	0.006522  
3156.000000	0.006604  
3155.000000	0.006686  
3154.000000	0.006767  
3153.000000	0.006846  
3152.000000	0.006893  
3151.000000	0.006841  
3150.000000	0.006642  
3149.000000	0.006331  
3148.000000	0.006038  
3147.000000	0.005880  
3146.000000	0.005864  
3145.000000	0.005899  
3144.000000	0.005921  
3143.000000	0.005945  
3142.000000	0.005994  
3141.000000	0.006034  
3140.000000	0.006025  
3139.000000	0.006001  
3138.000000	0.006046  
3137.000000	0.006182  
3136.000000	0.006334  
3135.000000	0.006391  
3134.000000	0.006307  
3133.000000	0.006135  
3132.000000	0.005994  
3131.000000	0.005986  
3130.000000	0.006114  
3129.000000	0.006271  
3128.000000	0.006337  
3127.000000	0.006270  
3126.000000	0.006123  
3125.000000	0.005977  
3124.000000	0.005900  
3123.000000	0.005935  
3122.000000	0.006067  
3121.000000	0.006211  
3120.000000	0.006265  
3119.000000	0.006190  
3118.000000	0.006031  
3117.000000	0.005870  
3116.000000	0.005781  
3115.000000	0.005806  
3114.000000	0.005924  
3113.000000	0.006043  
3112.000000	0.006073  
3111.000000	0.006019  
3110.000000	0.005962  
3109.000000	0.005953  
3108.000000	0.005956  
3107.000000	0.005915  
3106.000000	0.005827  
3105.000000	0.005738  
3104.000000	0.005696  
3103.000000	0.005737  
3102.000000	0.005867  
3101.000000	0.006029  
3100.000000	0.006109  
3099.000000	0.006036  
3098.000000	0.005859  
3097.000000	0.005705  
3096.000000	0.005674  
3095.000000	0.005763  
3094.000000	0.005895  
3093.000000	0.005978  
3092.000000	0.005973  
3091.000000	0.005913  
3090.000000	0.005873  
3089.000000	0.005897  
3088.000000	0.005967  
3087.000000	0.006050  
3086.000000	0.006140  
3085.000000	0.006234  
3084.000000	0.006282  
3083.000000	0.006217  
3082.000000	0.006051  
3081.000000	0.005896  
3080.000000	0.005876  
3079.000000	0.006020  
3078.000000	0.006250  
3077.000000	0.006454  
3076.000000	0.006554  
3075.000000	0.006527  
3074.000000	0.006402  
3073.000000	0.006250  
3072.000000	0.006161  
3071.000000	0.006188  
3070.000000	0.006305  
3069.000000	0.006419  
3068.000000	0.006438  
3067.000000	0.006347  
3066.000000	0.006221  
3065.000000	0.006171  
3064.000000	0.006262  
3063.000000	0.006468  
3062.000000	0.006674  
3061.000000	0.006761  
3060.000000	0.006705  
3059.000000	0.006584  
3058.000000	0.006487  
3057.000000	0.006419  
3056.000000	0.006350  
3055.000000	0.006307  
3054.000000	0.006366  
3053.000000	0.006524  
3052.000000	0.006651  
3051.000000	0.006626  
3050.000000	0.006478  
3049.000000	0.006352  
3048.000000	0.006355  
3047.000000	0.006476  
3046.000000	0.006634  
3045.000000	0.006756  
3044.000000	0.006795  
3043.000000	0.006742  
3042.000000	0.006636  
3041.000000	0.006558  
3040.000000	0.006577  
3039.000000	0.006698  
3038.000000	0.006863  
3037.000000	0.006993  
3036.000000	0.007040  
3035.000000	0.007014  
3034.000000	0.006973  
3033.000000	0.006978  
3032.000000	0.007069  
3031.000000	0.007264  
3030.000000	0.007551  
3029.000000	0.007871  
3028.000000	0.008143  
3027.000000	0.008330  
3026.000000	0.008479  
3025.000000	0.008678  
3024.000000	0.008972  
3023.000000	0.009340  
3022.000000	0.009736  
3021.000000	0.010114  
3020.000000	0.010455  
3019.000000	0.010789  
3018.000000	0.011202  
3017.000000	0.011765  
3016.000000	0.012449  
3015.000000	0.013134  
3014.000000	0.013713  
3013.000000	0.014159  
3012.000000	0.014486  
3011.000000	0.014692  
3010.000000	0.014765  
3009.000000	0.014721  
3008.000000	0.014616  
3007.000000	0.014497  
3006.000000	0.014369  
3005.000000	0.014187  
3004.000000	0.013899  
3003.000000	0.013503  
3002.000000	0.013088  
3001.000000	0.012800  
3000.000000	0.012738  
2999.000000	0.012868  
2998.000000	0.013051  
2997.000000	0.013150  
2996.000000	0.013129  
2995.000000	0.013066  
2994.000000	0.013096  
2993.000000	0.013324  
2992.000000	0.013765  
2991.000000	0.014345  
2990.000000	0.014949  
2989.000000	0.015496  
2988.000000	0.015994  
2987.000000	0.016532  
2986.000000	0.017222  
2985.000000	0.018117  
2984.000000	0.019187  
2983.000000	0.020363  
2982.000000	0.021606  
2981.000000	0.022916  
2980.000000	0.024306  
2979.000000	0.025788  
2978.000000	0.027418  
2977.000000	0.029307  
2976.000000	0.031568  
2975.000000	0.034236  
2974.000000	0.037258  
2973.000000	0.040545  
2972.000000	0.044035  
2971.000000	0.047721  
2970.000000	0.051670  
2969.000000	0.055995  
2968.000000	0.060768  
2967.000000	0.065913  
2966.000000	0.071193  
2965.000000	0.076354  
2964.000000	0.081266  
2963.000000	0.085928  
2962.000000	0.090360  
2961.000000	0.094533  
2960.000000	0.098369  
2959.000000	0.101764  
2958.000000	0.104574  
2957.000000	0.106654  
2956.000000	0.107937  
2955.000000	0.108459  
2954.000000	0.108295  
2953.000000	0.107513  
2952.000000	0.106204  
2951.000000	0.104530  
2950.000000	0.102710  
2949.000000	0.100959  
2948.000000	0.099462  
2947.000000	0.098361  
2946.000000	0.097757  
2945.000000	0.097717  
2944.000000	0.098316  
2943.000000	0.099653  
2942.000000	0.101815  
2941.000000	0.104813  
2940.000000	0.108572  
2939.000000	0.112993  
2938.000000	0.118013  
2937.000000	0.123584  
2936.000000	0.129621  
2935.000000	0.135977  
2934.000000	0.142502  
2933.000000	0.149135  
2932.000000	0.155905  
2931.000000	0.162818  
2930.000000	0.169753  
2929.000000	0.176467  
2928.000000	0.182707  
2927.000000	0.188271  
2926.000000	0.193010  
2925.000000	0.196803  
2924.000000	0.199527  
2923.000000	0.201000  
2922.000000	0.201020  
2921.000000	0.199542  
2920.000000	0.196796  
2919.000000	0.193143  
2918.000000	0.188837  
2917.000000	0.183987  
2916.000000	0.178730  
2915.000000	0.173293  
2914.000000	0.167873  
2913.000000	0.162543  
2912.000000	0.157339  
2911.000000	0.152376  
2910.000000	0.147786  
2909.000000	0.143567  
2908.000000	0.139538  
2907.000000	0.135497  
2906.000000	0.131381  
2905.000000	0.127301  
2904.000000	0.123413  
2903.000000	0.119803  
2902.000000	0.116442  
2901.000000	0.113240  
2900.000000	0.110104  
2899.000000	0.106960  
2898.000000	0.103774  
2897.000000	0.100578  
2896.000000	0.097460  
2895.000000	0.094504  
2894.000000	0.091717  
2893.000000	0.089020  
2892.000000	0.086313  
2891.000000	0.083558  
2890.000000	0.080813  
2889.000000	0.078192  
2888.000000	0.075819  
2887.000000	0.073784  
2886.000000	0.072131  
2885.000000	0.070878  
2884.000000	0.070040  
2883.000000	0.069635  
2882.000000	0.069679  
2881.000000	0.070187  
2880.000000	0.071198  
2879.000000	0.072784  
2878.000000	0.074992  
2877.000000	0.077755  
2876.000000	0.080847  
2875.000000	0.083934  
2874.000000	0.086687  
2873.000000	0.088874  
2872.000000	0.090382  
2871.000000	0.091230  
2870.000000	0.091576  
2869.000000	0.091691  
2868.000000	0.091878  
2867.000000	0.092366  
2866.000000	0.093302  
2865.000000	0.094808  
2864.000000	0.097003  
2863.000000	0.099920  
2862.000000	0.103454  
2861.000000	0.107429  
2860.000000	0.111707  
2859.000000	0.116178  
2858.000000	0.120636  
2857.000000	0.124734  
2856.000000	0.128053  
2855.000000	0.130198  
2854.000000	0.130839  
2853.000000	0.129772  
2852.000000	0.127009  
2851.000000	0.122790  
2850.000000	0.117462  
2849.000000	0.111351  
2848.000000	0.104735  
2847.000000	0.097882  
2846.000000	0.091056  
2845.000000	0.084454  
2844.000000	0.078171  
2843.000000	0.072220  
2842.000000	0.066609  
2841.000000	0.061375  
2840.000000	0.056557  
2839.000000	0.052165  
2838.000000	0.048201  
2837.000000	0.044679  
2836.000000	0.041590  
2835.000000	0.038859  
2834.000000	0.036364  
2833.000000	0.034029  
2832.000000	0.031878  
2831.000000	0.029995  
2830.000000	0.028430  
2829.000000	0.027140  
2828.000000	0.026024  
2827.000000	0.024986  
2826.000000	0.023981  
2825.000000	0.023009  
2824.000000	0.022090  
2823.000000	0.021246  
2822.000000	0.020495  
2821.000000	0.019844  
2820.000000	0.019278  
2819.000000	0.018759  
2818.000000	0.018240  
2817.000000	0.017703  
2816.000000	0.017161  
2815.000000	0.016639  
2814.000000	0.016141  
2813.000000	0.015649  
2812.000000	0.015154  
2811.000000	0.014679  
2810.000000	0.014266  
2809.000000	0.013945  
2808.000000	0.013716  
2807.000000	0.013565  
2806.000000	0.013468  
2805.000000	0.013379  
2804.000000	0.013235  
2803.000000	0.012987  
2802.000000	0.012650  
2801.000000	0.012294  
2800.000000	0.011999  
2799.000000	0.011805  
2798.000000	0.011704  
2797.000000	0.011666  
2796.000000	0.011653  
2795.000000	0.011625  
2794.000000	0.011531  
2793.000000	0.011331  
2792.000000	0.011030  
2791.000000	0.010701  
2790.000000	0.010452  
2789.000000	0.010353  
2788.000000	0.010382  
2787.000000	0.010448  
2786.000000	0.010466  
2785.000000	0.010400  
2784.000000	0.010270  
2783.000000	0.010122  
2782.000000	0.010009  
2781.000000	0.009976  
2780.000000	0.010027  
2779.000000	0.010107  
2778.000000	0.010115  
2777.000000	0.009970  
2776.000000	0.009667  
2775.000000	0.009297  
2774.000000	0.008990  
2773.000000	0.008823  
2772.000000	0.008777  
2771.000000	0.008768  
2770.000000	0.008719  
2769.000000	0.008603  
2768.000000	0.008429  
2767.000000	0.008223  
2766.000000	0.008030  
2765.000000	0.007902  
2764.000000	0.007865  
2763.000000	0.007881  
2762.000000	0.007878  
2761.000000	0.007805  
2760.000000	0.007668  
2759.000000	0.007502  
2758.000000	0.007349  
2757.000000	0.007238  
2756.000000	0.007182  
2755.000000	0.007176  
2754.000000	0.007189  
2753.000000	0.007181  
2752.000000	0.007130  
2751.000000	0.007043  
2750.000000	0.006956  
2749.000000	0.006902  
2748.000000	0.006879  
2747.000000	0.006849  
2746.000000	0.006782  
2745.000000	0.006704  
2744.000000	0.006675  
2743.000000	0.006716  
2742.000000	0.006784  
2741.000000	0.006826  
2740.000000	0.006842  
2739.000000	0.006863  
2738.000000	0.006904  
2737.000000	0.006962  
2736.000000	0.007048  
2735.000000	0.007182  
2734.000000	0.007344  
2733.000000	0.007459  
2732.000000	0.007453  
2731.000000	0.007328  
2730.000000	0.007162  
2729.000000	0.007054  
2728.000000	0.007052  
2727.000000	0.007114  
2726.000000	0.007140  
2725.000000	0.007064  
2724.000000	0.006920  
2723.000000	0.006796  
2722.000000	0.006736  
2721.000000	0.006707  
2720.000000	0.006676  
2719.000000	0.006661  
2718.000000	0.006686  
2717.000000	0.006726  
2716.000000	0.006733  
2715.000000	0.006692  
2714.000000	0.006608  
2713.000000	0.006468  
2712.000000	0.006265  
2711.000000	0.006051  
2710.000000	0.005911  
2709.000000	0.005868  
2708.000000	0.005868  
2707.000000	0.005851  
2706.000000	0.005816  
2705.000000	0.005782  
2704.000000	0.005747  
2703.000000	0.005699  
2702.000000	0.005642  
2701.000000	0.005578  
2700.000000	0.005491  
2699.000000	0.005384  
2698.000000	0.005312  
2697.000000	0.005333  
2696.000000	0.005433  
2695.000000	0.005536  
2694.000000	0.005575  
2693.000000	0.005539  
2692.000000	0.005464  
2691.000000	0.005404  
2690.000000	0.005417  
2689.000000	0.005547  
2688.000000	0.005781  
2687.000000	0.006031  
2686.000000	0.006190  
2685.000000	0.006204  
2684.000000	0.006110  
2683.000000	0.005994  
2682.000000	0.005924  
2681.000000	0.005909  
2680.000000	0.005920  
2679.000000	0.005924  
2678.000000	0.005915  
2677.000000	0.005912  
2676.000000	0.005936  
2675.000000	0.005993  
2674.000000	0.006058  
2673.000000	0.006093  
2672.000000	0.006068  
2671.000000	0.005990  
2670.000000	0.005894  
2669.000000	0.005830  
2668.000000	0.005834  
2667.000000	0.005910  
2666.000000	0.006026  
2665.000000	0.006121  
2664.000000	0.006140  
2663.000000	0.006052  
2662.000000	0.005853  
2661.000000	0.005578  
2660.000000	0.005313  
2659.000000	0.005153  
2658.000000	0.005129  
2657.000000	0.005176  
2656.000000	0.005212  
2655.000000	0.005213  
2654.000000	0.005200  
2653.000000	0.005175  
2652.000000	0.005119  
2651.000000	0.005052  
2650.000000	0.005032  
2649.000000	0.005086  
2648.000000	0.005168  
2647.000000	0.005210  
2646.000000	0.005181  
2645.000000	0.005091  
2644.000000	0.004985  
2643.000000	0.004935  
2642.000000	0.004996  
2641.000000	0.005135  
2640.000000	0.005229  
2639.000000	0.005179  
2638.000000	0.004993  
2637.000000	0.004757  
2636.000000	0.004568  
2635.000000	0.004503  
2634.000000	0.004614  
2633.000000	0.004864  
2632.000000	0.005114  
2631.000000	0.005215  
2630.000000	0.005118  
2629.000000	0.004890  
2628.000000	0.004653  
2627.000000	0.004523  
2626.000000	0.004562  
2625.000000	0.004708  
2624.000000	0.004795  
2623.000000	0.004698  
2622.000000	0.004466  
2621.000000	0.004249  
2620.000000	0.004123  
2619.000000	0.004047  
2618.000000	0.003982  
2617.000000	0.003958  
2616.000000	0.004013  
2615.000000	0.004128  
2614.000000	0.004255  
2613.000000	0.004357  
2612.000000	0.004410  
2611.000000	0.004399  
2610.000000	0.004348  
2609.000000	0.004309  
2608.000000	0.004319  
2607.000000	0.004378  
2606.000000	0.004475  
2605.000000	0.004594  
2604.000000	0.004668  
2603.000000	0.004618  
2602.000000	0.004452  
2601.000000	0.004283  
2600.000000	0.004221  
2599.000000	0.004256  
2598.000000	0.004291  
2597.000000	0.004262  
2596.000000	0.004183  
2595.000000	0.004098  
2594.000000	0.004009  
2593.000000	0.003878  
2592.000000	0.003678  
2591.000000	0.003453  
2590.000000	0.003297  
2589.000000	0.003272  
2588.000000	0.003340  
2587.000000	0.003412  
2586.000000	0.003446  
2585.000000	0.003466  
2584.000000	0.003489  
2583.000000	0.003482  
2582.000000	0.003423  
2581.000000	0.003345  
2580.000000	0.003314  
2579.000000	0.003373  
2578.000000	0.003521  
2577.000000	0.003716  
2576.000000	0.003860  
2575.000000	0.003844  
2574.000000	0.003642  
2573.000000	0.003363  
2572.000000	0.003173  
2571.000000	0.003151  
2570.000000	0.003243  
2569.000000	0.003331  
2568.000000	0.003330  
2567.000000	0.003238  
2566.000000	0.003121  
2565.000000	0.003051  
2564.000000	0.003047  
2563.000000	0.003065  
2562.000000	0.003063  
2561.000000	0.003030  
2560.000000	0.002989  
2559.000000	0.002965  
2558.000000	0.002994  
2557.000000	0.003108  
2556.000000	0.003287  
2555.000000	0.003437  
2554.000000	0.003461  
2553.000000	0.003368  
2552.000000	0.003278  
2551.000000	0.003317  
2550.000000	0.003490  
2549.000000	0.003682  
2548.000000	0.003761  
2547.000000	0.003673  
2546.000000	0.003450  
2545.000000	0.003158  
2544.000000	0.002868  
2543.000000	0.002648  
2542.000000	0.002534  
2541.000000	0.002489  
2540.000000	0.002446  
2539.000000	0.002398  
2538.000000	0.002421  
2537.000000	0.002563  
2536.000000	0.002751  
2535.000000	0.002852  
2534.000000	0.002811  
2533.000000	0.002697  
2532.000000	0.002598  
2531.000000	0.002526  
2530.000000	0.002423  
2529.000000	0.002251  
2528.000000	0.002058  
2527.000000	0.001972  
2526.000000	0.002105  
2525.000000	0.002445  
2524.000000	0.002846  
2523.000000	0.003148  
2522.000000	0.003286  
2521.000000	0.003275  
2520.000000	0.003153  
2519.000000	0.002996  
2518.000000	0.002936  
2517.000000	0.003073  
2516.000000	0.003342  
2515.000000	0.003558  
2514.000000	0.003601  
2513.000000	0.003504  
2512.000000	0.003361  
2511.000000	0.003213  
2510.000000	0.003064  
2509.000000	0.002939  
2508.000000	0.002869  
2507.000000	0.002859  
2506.000000	0.002896  
2505.000000	0.002947  
2504.000000	0.002943  
2503.000000	0.002821  
2502.000000	0.002629  
2501.000000	0.002521  
2500.000000	0.002601  
2499.000000	0.002784  
2498.000000	0.002864  
2497.000000	0.002698  
2496.000000	0.002324  
2495.000000	0.001915  
2494.000000	0.001664  
2493.000000	0.001680  
2492.000000	0.001935  
2491.000000	0.002304  
2490.000000	0.002658  
2489.000000	0.002928  
2488.000000	0.003071  
2487.000000	0.003042  
2486.000000	0.002825  
2485.000000	0.002474  
2484.000000	0.002109  
2483.000000	0.001867  
2482.000000	0.001860  
2481.000000	0.002121  
2480.000000	0.002556  
2479.000000	0.002962  
2478.000000	0.003156  
2477.000000	0.003095  
2476.000000	0.002879  
2475.000000	0.002648  
2474.000000	0.002502  
2473.000000	0.002465  
2472.000000	0.002497  
2471.000000	0.002520  
2470.000000	0.002472  
2469.000000	0.002359  
2468.000000	0.002254  
2467.000000	0.002257  
2466.000000	0.002416  
2465.000000	0.002664  
2464.000000	0.002843  
2463.000000	0.002841  
2462.000000	0.002703  
2461.000000	0.002576  
2460.000000	0.002554  
2459.000000	0.002617  
2458.000000	0.002703  
2457.000000	0.002764  
2456.000000	0.002743  
2455.000000	0.002592  
2454.000000	0.002352  
2453.000000	0.002148  
2452.000000	0.002053  
2451.000000	0.001997  
2450.000000	0.001884  
2449.000000	0.001761  
2448.000000	0.001768  
2447.000000	0.001954  
2446.000000	0.002209  
2445.000000	0.002383  
2444.000000	0.002421  
2443.000000	0.002379  
2442.000000	0.002357  
2441.000000	0.002417  
2440.000000	0.002520  
2439.000000	0.002557  
2438.000000	0.002469  
2437.000000	0.002332  
2436.000000	0.002265  
2435.000000	0.002274  
2434.000000	0.002256  
2433.000000	0.002139  
2432.000000	0.001974  
2431.000000	0.001853  
2430.000000	0.001824  
2429.000000	0.001886  
2428.000000	0.002024  
2427.000000	0.002201  
2426.000000	0.002346  
2425.000000	0.002403  
2424.000000	0.002368  
2423.000000	0.002281  
2422.000000	0.002194  
2421.000000	0.002150  
2420.000000	0.002166  
2419.000000	0.002218  
2418.000000	0.002254  
2417.000000	0.002249  
2416.000000	0.002234  
2415.000000	0.002254  
2414.000000	0.002323  
2413.000000	0.002419  
2412.000000	0.002507  
2411.000000	0.002565  
2410.000000	0.002595  
2409.000000	0.002626  
2408.000000	0.002686  
2407.000000	0.002749  
2406.000000	0.002734  
2405.000000	0.002588  
2404.000000	0.002356  
2403.000000	0.002146  
2402.000000	0.002027  
2401.000000	0.001990  
2400.000000	0.002006  
2399.000000	0.002085  
2398.000000	0.002252  
2397.000000	0.002476  
2396.000000	0.002669  
2395.000000	0.002764  
2394.000000	0.002793  
2393.000000	0.002841  
2392.000000	0.002950  
2391.000000	0.003079  
2390.000000	0.003169  
2389.000000	0.003231  
2388.000000	0.003359  
2387.000000	0.003671  
2386.000000	0.004214  
2385.000000	0.004884  
2384.000000	0.005426  
2383.000000	0.005543  
2382.000000	0.005065  
2381.000000	0.004068  
2380.000000	0.002852  
2379.000000	0.001792  
2378.000000	0.001151  
2377.000000	0.000998  
2376.000000	0.001272  
2375.000000	0.001880  
2374.000000	0.002713  
2373.000000	0.003606  
2372.000000	0.004401  
2371.000000	0.005043  
2370.000000	0.005526  
2369.000000	0.005747  
2368.000000	0.005613  
2367.000000	0.005288  
2366.000000	0.005124  
2365.000000	0.005248  
2364.000000	0.005428  
2363.000000	0.005400  
2362.000000	0.005141  
2361.000000	0.004898  
2360.000000	0.005129  
2359.000000	0.006061  
2358.000000	0.007277  
2357.000000	0.008019  
2356.000000	0.008011  
2355.000000	0.007539  
2354.000000	0.006829  
2353.000000	0.006138  
2352.000000	0.005932  
2351.000000	0.006399  
2350.000000	0.007077  
2349.000000	0.007222  
2348.000000	0.006548  
2347.000000	0.005502  
2346.000000	0.005163  
2345.000000	0.006156  
2344.000000	0.007792  
2343.000000	0.008752  
2342.000000	0.008193  
2341.000000	0.006526  
2340.000000	0.004911  
2339.000000	0.004035  
2338.000000	0.003569  
2337.000000	0.002964  
2336.000000	0.002235  
2335.000000	0.001728  
2334.000000	0.001488  
2333.000000	0.001451  
2332.000000	0.001816  
2331.000000	0.002857  
2330.000000	0.004438  
2329.000000	0.006016  
2328.000000	0.007233  
2327.000000	0.007960  
2326.000000	0.008168  
2325.000000	0.007854  
2324.000000	0.007117  
2323.000000	0.006217  
2322.000000	0.005404  
2321.000000	0.004984  
2320.000000	0.005166  
2319.000000	0.005903  
2318.000000	0.006751  
2317.000000	0.007134  
2316.000000	0.006763  
2315.000000	0.005868  
2314.000000	0.005042  
2313.000000	0.004772  
2312.000000	0.005090  
2311.000000	0.005622  
2310.000000	0.006028  
2309.000000	0.006256  
2308.000000	0.006406  
2307.000000	0.006449  
2306.000000	0.006264  
2305.000000	0.005892  
2304.000000	0.005572  
2303.000000	0.005507  
2302.000000	0.005655  
2301.000000	0.005808  
2300.000000	0.005828  
2299.000000	0.005771  
2298.000000	0.005780  
2297.000000	0.005904  
2296.000000	0.006039  
2295.000000	0.006027  
2294.000000	0.005816  
2293.000000	0.005488  
2292.000000	0.005151  
2291.000000	0.004844  
2290.000000	0.004564  
2289.000000	0.004324  
2288.000000	0.004109  
2287.000000	0.003835  
2286.000000	0.003438  
2285.000000	0.003003  
2284.000000	0.002697  
2283.000000	0.002573  
2282.000000	0.002510  
2281.000000	0.002404  
2280.000000	0.002326  
2279.000000	0.002428  
2278.000000	0.002704  
2277.000000	0.002961  
2276.000000	0.003050  
2275.000000	0.003065  
2274.000000	0.003236  
2273.000000	0.003630  
2272.000000	0.004030  
2271.000000	0.004165  
2270.000000	0.003999  
2269.000000	0.003717  
2268.000000	0.003445  
2267.000000	0.003122  
2266.000000	0.002713  
2265.000000	0.002392  
2264.000000	0.002373  
2263.000000	0.002631  
2262.000000	0.002950  
2261.000000	0.003192  
2260.000000	0.003363  
2259.000000	0.003439  
2258.000000	0.003343  
2257.000000	0.003128  
2256.000000	0.003007  
2255.000000	0.003097  
2254.000000	0.003256  
2253.000000	0.003284  
2252.000000	0.003165  
2251.000000	0.003022  
2250.000000	0.002913  
2249.000000	0.002787  
2248.000000	0.002577  
2247.000000	0.002242  
2246.000000	0.001791  
2245.000000	0.001345  
2244.000000	0.001117  
2243.000000	0.001211  
2242.000000	0.001489  
2241.000000	0.001723  
2240.000000	0.001853  
2239.000000	0.001974  
2238.000000	0.002116  
2237.000000	0.002166  
2236.000000	0.002043  
2235.000000	0.001844  
2234.000000	0.001749  
2233.000000	0.001833  
2232.000000	0.001997  
2231.000000	0.002083  
2230.000000	0.002024  
2229.000000	0.001898  
2228.000000	0.001839  
2227.000000	0.001888  
2226.000000	0.001947  
2225.000000	0.001871  
2224.000000	0.001593  
2223.000000	0.001150  
2222.000000	0.000697  
2221.000000	0.000481  
2220.000000	0.000699  
2219.000000	0.001270  
2218.000000	0.001838  
2217.000000	0.002117  
2216.000000	0.002197  
2215.000000	0.002387  
2214.000000	0.002772  
2213.000000	0.003102  
2212.000000	0.003138  
2211.000000	0.002941  
2210.000000	0.002712  
2209.000000	0.002476  
2208.000000	0.002103  
2207.000000	0.001592  
2206.000000	0.001190  
2205.000000	0.001178  
2204.000000	0.001604  
2203.000000	0.002295  
2202.000000	0.003035  
2201.000000	0.003668  
2200.000000	0.004077  
2199.000000	0.004212  
2198.000000	0.004148  
2197.000000	0.004036  
2196.000000	0.003937  
2195.000000	0.003745  
2194.000000	0.003354  
2193.000000	0.002847  
2192.000000	0.002406  
2191.000000	0.002092  
2190.000000	0.001837  
2189.000000	0.001659  
2188.000000	0.001709  
2187.000000	0.002036  
2186.000000	0.002436  
2185.000000	0.002630  
2184.000000	0.002546  
2183.000000	0.002345  
2182.000000	0.002247  
2181.000000	0.002401  
2180.000000	0.002806  
2179.000000	0.003252  
2178.000000	0.003413  
2177.000000	0.003156  
2176.000000	0.002720  
2175.000000	0.002435  
2174.000000	0.002323  
2173.000000	0.002159  
2172.000000	0.001908  
2171.000000	0.001837  
2170.000000	0.002111  
2169.000000	0.002464  
2168.000000	0.002466  
2167.000000	0.002082  
2166.000000	0.001750  
2165.000000	0.001867  
2164.000000	0.002305  
2163.000000	0.002590  
2162.000000	0.002484  
2161.000000	0.002257  
2160.000000	0.002318  
2159.000000	0.002665  
2158.000000	0.002897  
2157.000000	0.002766  
2156.000000	0.002462  
2155.000000	0.002293  
2154.000000	0.002317  
2153.000000	0.002379  
2152.000000	0.002372  
2151.000000	0.002335  
2150.000000	0.002337  
2149.000000	0.002367  
2148.000000	0.002370  
2147.000000	0.002331  
2146.000000	0.002303  
2145.000000	0.002358  
2144.000000	0.002528  
2143.000000	0.002745  
2142.000000	0.002846  
2141.000000	0.002679  
2140.000000	0.002236  
2139.000000	0.001701  
2138.000000	0.001360  
2137.000000	0.001414  
2136.000000	0.001779  
2135.000000	0.002096  
2134.000000	0.002043  
2133.000000	0.001686  
2132.000000	0.001424  
2131.000000	0.001554  
2130.000000	0.001962  
2129.000000	0.002333  
2128.000000	0.002527  
2127.000000	0.002630  
2126.000000	0.002675  
2125.000000	0.002531  
2124.000000	0.002142  
2123.000000	0.001736  
2122.000000	0.001651  
2121.000000	0.001978  
2120.000000	0.002470  
2119.000000	0.002770  
2118.000000	0.002723  
2117.000000	0.002476  
2116.000000	0.002348  
2115.000000	0.002527  
2114.000000	0.002859  
2113.000000	0.002962  
2112.000000	0.002640  
2111.000000	0.002135  
2110.000000	0.001888  
2109.000000	0.002068  
2108.000000	0.002426  
2107.000000	0.002608  
2106.000000	0.002486  
2105.000000	0.002167  
2104.000000	0.001809  
2103.000000	0.001528  
2102.000000	0.001409  
2101.000000	0.001463  
2100.000000	0.001574  
2099.000000	0.001587  
2098.000000	0.001465  
2097.000000	0.001306  
2096.000000	0.001198  
2095.000000	0.001121  
2094.000000	0.001035  
2093.000000	0.000988  
2092.000000	0.001061  
2091.000000	0.001237  
2090.000000	0.001388  
2089.000000	0.001430  
2088.000000	0.001462  
2087.000000	0.001673  
2086.000000	0.002102  
2085.000000	0.002515  
2084.000000	0.002588  
2083.000000	0.002231  
2082.000000	0.001693  
2081.000000	0.001373  
2080.000000	0.001499  
2079.000000	0.001976  
2078.000000	0.002483  
2077.000000	0.002696  
2076.000000	0.002526  
2075.000000	0.002192  
2074.000000	0.002025  
2073.000000	0.002152  
2072.000000	0.002380  
2071.000000	0.002450  
2070.000000	0.002349  
2069.000000	0.002271  
2068.000000	0.002305  
2067.000000	0.002324  
2066.000000	0.002196  
2065.000000	0.002003  
2064.000000	0.001950  
2063.000000	0.002115  
2062.000000	0.002385  
2061.000000	0.002568  
2060.000000	0.002523  
2059.000000	0.002254  
2058.000000	0.001945  
2057.000000	0.001829  
2056.000000	0.001914  
2055.000000	0.001938  
2054.000000	0.001682  
2053.000000	0.001288  
2052.000000	0.001078  
2051.000000	0.001153  
2050.000000	0.001351  
2049.000000	0.001604  
2048.000000	0.002050  
2047.000000	0.002654  
2046.000000	0.002982  
2045.000000	0.002658  
2044.000000	0.001913  
2043.000000	0.001385  
2042.000000	0.001422  
2041.000000	0.001823  
2040.000000	0.002277  
2039.000000	0.002734  
2038.000000	0.003199  
2037.000000	0.003440  
2036.000000	0.003187  
2035.000000	0.002545  
2034.000000	0.001969  
2033.000000	0.001799  
2032.000000	0.001952  
2031.000000	0.002100  
2030.000000	0.002000  
2029.000000	0.001614  
2028.000000	0.001065  
2027.000000	0.000537  
2026.000000	0.000192  
2025.000000	0.000104  
2024.000000	0.000274  
2023.000000	0.000712  
2022.000000	0.001416  
2021.000000	0.002241  
2020.000000	0.002886  
2019.000000	0.003090  
2018.000000	0.002826  
2017.000000	0.002283  
2016.000000	0.001713  
2015.000000	0.001323  
2014.000000	0.001286  
2013.000000	0.001650  
2012.000000	0.002145  
2011.000000	0.002225  
2010.000000	0.001511  
2009.000000	0.000228  
2008.000000	-0.000906 
2007.000000	-0.001310 
2006.000000	-0.000974 
2005.000000	-0.000297 
2004.000000	0.000373  
2003.000000	0.000958  
2002.000000	0.001532  
2001.000000	0.002121  
2000.000000	0.002591  
1999.000000	0.002685  
1998.000000	0.002247  
1997.000000	0.001455  
1996.000000	0.000771  
1995.000000	0.000551  
1994.000000	0.000755  
1993.000000	0.001071  
1992.000000	0.001275  
1991.000000	0.001392  
1990.000000	0.001514  
1989.000000	0.001656  
1988.000000	0.001813  
1987.000000	0.001996  
1986.000000	0.002151  
1985.000000	0.002191  
1984.000000	0.002163  
1983.000000	0.002246  
1982.000000	0.002481  
1981.000000	0.002635  
1980.000000	0.002482  
1979.000000	0.002131  
1978.000000	0.001870  
1977.000000	0.001734  
1976.000000	0.001497  
1975.000000	0.001092  
1974.000000	0.000736  
1973.000000	0.000579  
1972.000000	0.000528  
1971.000000	0.000511  
1970.000000	0.000658  
1969.000000	0.001042  
1968.000000	0.001431  
1967.000000	0.001515  
1966.000000	0.001301  
1965.000000	0.001070  
1964.000000	0.001023  
1963.000000	0.001165  
1962.000000	0.001411  
1961.000000	0.001656  
1960.000000	0.001805  
1959.000000	0.001877  
1958.000000	0.001986  
1957.000000	0.002120  
1956.000000	0.002042  
1955.000000	0.001584  
1954.000000	0.000966  
1953.000000	0.000636  
1952.000000	0.000813  
1951.000000	0.001332  
1950.000000	0.001900  
1949.000000	0.002331  
1948.000000	0.002535  
1947.000000	0.002492  
1946.000000	0.002317  
1945.000000	0.002219  
1944.000000	0.002294  
1943.000000	0.002417  
1942.000000	0.002418  
1941.000000	0.002284  
1940.000000	0.002093  
1939.000000	0.001907  
1938.000000	0.001837  
1937.000000	0.002031  
1936.000000	0.002495  
1935.000000	0.003005  
1934.000000	0.003297  
1933.000000	0.003307  
1932.000000	0.003166  
1931.000000	0.003000  
1930.000000	0.002839  
1929.000000	0.002686  
1928.000000	0.002559  
1927.000000	0.002436  
1926.000000	0.002263  
1925.000000	0.002063  
1924.000000	0.001951  
1923.000000	0.002007  
1922.000000	0.002190  
1921.000000	0.002410  
1920.000000	0.002608  
1919.000000	0.002743  
1918.000000	0.002771  
1917.000000	0.002733  
1916.000000	0.002708  
1915.000000	0.002649  
1914.000000	0.002423  
1913.000000	0.002026  
1912.000000	0.001675  
1911.000000	0.001600  
1910.000000	0.001781  
1909.000000	0.001994  
1908.000000	0.002097  
1907.000000	0.002127  
1906.000000	0.002139  
1905.000000	0.002124  
1904.000000	0.002079  
1903.000000	0.002059  
1902.000000	0.002106  
1901.000000	0.002203  
1900.000000	0.002297  
1899.000000	0.002350  
1898.000000	0.002337  
1897.000000	0.002265  
1896.000000	0.002199  
1895.000000	0.002241  
1894.000000	0.002421  
1893.000000	0.002653  
1892.000000	0.002825  
1891.000000	0.002895  
1890.000000	0.002893  
1889.000000	0.002878  
1888.000000	0.002871  
1887.000000	0.002828  
1886.000000	0.002715  
1885.000000	0.002579  
1884.000000	0.002483  
1883.000000	0.002404  
1882.000000	0.002276  
1881.000000	0.002109  
1880.000000	0.001994  
1879.000000	0.001968  
1878.000000	0.001969  
1877.000000	0.001954  
1876.000000	0.001999  
1875.000000	0.002189  
1874.000000	0.002471  
1873.000000	0.002696  
1872.000000	0.002794  
1871.000000	0.002808  
1870.000000	0.002760  
1869.000000	0.002595  
1868.000000	0.002365  
1867.000000	0.002239  
1866.000000	0.002275  
1865.000000	0.002389  
1864.000000	0.002489  
1863.000000	0.002542  
1862.000000	0.002545  
1861.000000	0.002496  
1860.000000	0.002417  
1859.000000	0.002367  
1858.000000	0.002400  
1857.000000	0.002509  
1856.000000	0.002612  
1855.000000	0.002585  
1854.000000	0.002378  
1853.000000	0.002116  
1852.000000	0.002016  
1851.000000	0.002172  
1850.000000	0.002430  
1849.000000	0.002522  
1848.000000	0.002344  
1847.000000	0.002062  
1846.000000	0.001941  
1845.000000	0.002086  
1844.000000	0.002356  
1843.000000	0.002532  
1842.000000	0.002536  
1841.000000	0.002437  
1840.000000	0.002341  
1839.000000	0.002314  
1838.000000	0.002363  
1837.000000	0.002459  
1836.000000	0.002557  
1835.000000	0.002606  
1834.000000	0.002572  
1833.000000	0.002429  
1832.000000	0.002186  
1831.000000	0.001942  
1830.000000	0.001863  
1829.000000	0.002024  
1828.000000	0.002280  
1827.000000	0.002446  
1826.000000	0.002478  
1825.000000	0.002444  
1824.000000	0.002444  
1823.000000	0.002539  
1822.000000	0.002696  
1821.000000	0.002809  
1820.000000	0.002766  
1819.000000	0.002575  
1818.000000	0.002385  
1817.000000	0.002334  
1816.000000	0.002429  
1815.000000	0.002571  
1814.000000	0.002672  
1813.000000	0.002696  
1812.000000	0.002655  
1811.000000	0.002624  
1810.000000	0.002684  
1809.000000	0.002825  
1808.000000	0.002977  
1807.000000	0.003074  
1806.000000	0.003076  
1805.000000	0.002992  
1804.000000	0.002896  
1803.000000	0.002889  
1802.000000	0.003020  
1801.000000	0.003229  
1800.000000	0.003428  
1799.000000	0.003587  
1798.000000	0.003678  
1797.000000	0.003686  
1796.000000	0.003644  
1795.000000	0.003607  
1794.000000	0.003594  
1793.000000	0.003558  
1792.000000	0.003465  
1791.000000	0.003386  
1790.000000	0.003377  
1789.000000	0.003407  
1788.000000	0.003440  
1787.000000	0.003473  
1786.000000	0.003515  
1785.000000	0.003567  
1784.000000	0.003613  
1783.000000	0.003623  
1782.000000	0.003609  
1781.000000	0.003650  
1780.000000	0.003825  
1779.000000	0.004103  
1778.000000	0.004351  
1777.000000	0.004478  
1776.000000	0.004500  
1775.000000	0.004489  
1774.000000	0.004520  
1773.000000	0.004600  
1772.000000	0.004640  
1771.000000	0.004606  
1770.000000	0.004585  
1769.000000	0.004683  
1768.000000	0.004910  
1767.000000	0.005165  
1766.000000	0.005362  
1765.000000	0.005528  
1764.000000	0.005750  
1763.000000	0.006071  
1762.000000	0.006482  
1761.000000	0.006970  
1760.000000	0.007495  
1759.000000	0.008011  
1758.000000	0.008576  
1757.000000	0.009326  
1756.000000	0.010283  
1755.000000	0.011326  
1754.000000	0.012488  
1753.000000	0.014106  
1752.000000	0.016566  
1751.000000	0.019919  
1750.000000	0.024040  
1749.000000	0.029040  
1748.000000	0.034958  
1747.000000	0.041477  
1746.000000	0.048359  
1745.000000	0.055580  
1744.000000	0.062697  
1743.000000	0.068673  
1742.000000	0.072702  
1741.000000	0.074515  
1740.000000	0.073869  
1739.000000	0.070928  
1738.000000	0.066759  
1737.000000	0.062142  
1736.000000	0.056751  
1735.000000	0.049660  
1734.000000	0.041614  
1733.000000	0.035095  
1732.000000	0.030638  
1731.000000	0.027129  
1730.000000	0.024059  
1729.000000	0.021502  
1728.000000	0.019517  
1727.000000	0.017953  
1726.000000	0.016657  
1725.000000	0.015535  
1724.000000	0.014501  
1723.000000	0.013526  
1722.000000	0.012654  
1721.000000	0.011902  
1720.000000	0.011249  
1719.000000	0.010720  
1718.000000	0.010324  
1717.000000	0.009896  
1716.000000	0.009348  
1715.000000	0.008820  
1714.000000	0.008428  
1713.000000	0.008147  
1712.000000	0.007874  
1711.000000	0.007555  
1710.000000	0.007240  
1709.000000	0.006973  
1708.000000	0.006738  
1707.000000	0.006552  
1706.000000	0.006466  
1705.000000	0.006449  
1704.000000	0.006467  
1703.000000	0.006550  
1702.000000	0.006804  
1701.000000	0.007118  
1700.000000	0.007218  
1699.000000	0.007138  
1698.000000	0.006982  
1697.000000	0.006692  
1696.000000	0.006323  
1695.000000	0.006145  
1694.000000	0.006148  
1693.000000	0.006094  
1692.000000	0.005961  
1691.000000	0.005842  
1690.000000	0.005809  
1689.000000	0.005823  
1688.000000	0.005812  
1687.000000	0.005755  
1686.000000	0.005722  
1685.000000	0.005695  
1684.000000	0.005592  
1683.000000	0.005569  
1682.000000	0.005666  
1681.000000	0.005758  
1680.000000	0.005781  
1679.000000	0.005715  
1678.000000	0.005562  
1677.000000	0.005386  
1676.000000	0.005281  
1675.000000	0.005346  
1674.000000	0.005586  
1673.000000	0.005869  
1672.000000	0.006109  
1671.000000	0.006307  
1670.000000	0.006452  
1669.000000	0.006567  
1668.000000	0.006680  
1667.000000	0.006762  
1666.000000	0.006841  
1665.000000	0.007012  
1664.000000	0.007321  
1663.000000	0.007699  
1662.000000	0.008036  
1661.000000	0.008317  
1660.000000	0.008565  
1659.000000	0.008775  
1658.000000	0.008859  
1657.000000	0.008804  
1656.000000	0.008653  
1655.000000	0.008628  
1654.000000	0.008871  
1653.000000	0.009398  
1652.000000	0.010072  
1651.000000	0.010381  
1650.000000	0.010354  
1649.000000	0.010383  
1648.000000	0.010608  
1647.000000	0.010793  
1646.000000	0.010795  
1645.000000	0.010729  
1644.000000	0.010615  
1643.000000	0.010473  
1642.000000	0.010408  
1641.000000	0.010423  
1640.000000	0.010448  
1639.000000	0.010428  
1638.000000	0.010413  
1637.000000	0.010462  
1636.000000	0.010492  
1635.000000	0.010455  
1634.000000	0.010410  
1633.000000	0.010344  
1632.000000	0.010254  
1631.000000	0.010164  
1630.000000	0.010055  
1629.000000	0.009946  
1628.000000	0.009859  
1627.000000	0.009794  
1626.000000	0.009741  
1625.000000	0.009715  
1624.000000	0.009687  
1623.000000	0.009566  
1622.000000	0.009350  
1621.000000	0.009144  
1620.000000	0.009008  
1619.000000	0.008948  
1618.000000	0.008913  
1617.000000	0.008825  
1616.000000	0.008688  
1615.000000	0.008506  
1614.000000	0.008267  
1613.000000	0.008039  
1612.000000	0.007905  
1611.000000	0.007867  
1610.000000	0.007878  
1609.000000	0.007890  
1608.000000	0.007864  
1607.000000	0.007751  
1606.000000	0.007575  
1605.000000	0.007424  
1604.000000	0.007343  
1603.000000	0.007300  
1602.000000	0.007253  
1601.000000	0.007214  
1600.000000	0.007181  
1599.000000	0.007110  
1598.000000	0.007003  
1597.000000	0.006938  
1596.000000	0.006978  
1595.000000	0.007097  
1594.000000	0.007230  
1593.000000	0.007368  
1592.000000	0.007548  
1591.000000	0.007756  
1590.000000	0.007942  
1589.000000	0.008088  
1588.000000	0.008213  
1587.000000	0.008322  
1586.000000	0.008418  
1585.000000	0.008528  
1584.000000	0.008669  
1583.000000	0.008820  
1582.000000	0.008961  
1581.000000	0.009104  
1580.000000	0.009282  
1579.000000	0.009510  
1578.000000	0.009794  
1577.000000	0.010073  
1576.000000	0.010254  
1575.000000	0.010321  
1574.000000	0.010343  
1573.000000	0.010397  
1572.000000	0.010489  
1571.000000	0.010525  
1570.000000	0.010419  
1569.000000	0.010309  
1568.000000	0.010319  
1567.000000	0.010335  
1566.000000	0.010220  
1565.000000	0.010017  
1564.000000	0.009741  
1563.000000	0.009404  
1562.000000	0.008996  
1561.000000	0.008684  
1560.000000	0.008718  
1559.000000	0.008714  
1558.000000	0.008506  
1557.000000	0.008534  
1556.000000	0.008668  
1555.000000	0.008699  
1554.000000	0.008731  
1553.000000	0.008663  
1552.000000	0.008468  
1551.000000	0.008131  
1550.000000	0.007805  
1549.000000	0.007618  
1548.000000	0.007569  
1547.000000	0.007554  
1546.000000	0.007572  
1545.000000	0.007629  
1544.000000	0.007662  
1543.000000	0.007641  
1542.000000	0.007664  
1541.000000	0.007652  
1540.000000	0.007406  
1539.000000	0.007188  
1538.000000	0.007195  
1537.000000	0.007220  
1536.000000	0.007180  
1535.000000	0.007112  
1534.000000	0.006987  
1533.000000	0.006815  
1532.000000	0.006706  
1531.000000	0.006688  
1530.000000	0.006651  
1529.000000	0.006552  
1528.000000	0.006456  
1527.000000	0.006482  
1526.000000	0.006679  
1525.000000	0.006940  
1524.000000	0.007114  
1523.000000	0.007192  
1522.000000	0.007218  
1521.000000	0.007212  
1520.000000	0.007217  
1519.000000	0.007223  
1518.000000	0.007229  
1517.000000	0.007236  
1516.000000	0.007233  
1515.000000	0.007292  
1514.000000	0.007460  
1513.000000	0.007699  
1512.000000	0.007873  
1511.000000	0.007912  
1510.000000	0.007932  
1509.000000	0.008169  
1508.000000	0.008614  
1507.000000	0.008850  
1506.000000	0.009050  
1505.000000	0.009478  
1504.000000	0.009717  
1503.000000	0.009670  
1502.000000	0.009571  
1501.000000	0.009499  
1500.000000	0.009453  
1499.000000	0.009482  
1498.000000	0.009835  
1497.000000	0.010506  
1496.000000	0.011066  
1495.000000	0.011293  
1494.000000	0.011407  
1493.000000	0.011598  
1492.000000	0.011817  
1491.000000	0.011960  
1490.000000	0.012090  
1489.000000	0.012325  
1488.000000	0.012646  
1487.000000	0.013015  
1486.000000	0.013463  
1485.000000	0.014041  
1484.000000	0.014725  
1483.000000	0.015521  
1482.000000	0.016531  
1481.000000	0.017749  
1480.000000	0.018993  
1479.000000	0.020203  
1478.000000	0.021603  
1477.000000	0.023383  
1476.000000	0.025469  
1475.000000	0.027952  
1474.000000	0.031568  
1473.000000	0.037034  
1472.000000	0.043760  
1471.000000	0.050514  
1470.000000	0.056852  
1469.000000	0.062737  
1468.000000	0.067916  
1467.000000	0.072179  
1466.000000	0.075622  
1465.000000	0.078326  
1464.000000	0.080163  
1463.000000	0.081240  
1462.000000	0.081896  
1461.000000	0.082340  
1460.000000	0.082650  
1459.000000	0.082987  
1458.000000	0.083440  
1457.000000	0.083306  
1456.000000	0.081918  
1455.000000	0.079750  
1454.000000	0.077346  
1453.000000	0.074726  
1452.000000	0.071896  
1451.000000	0.069094  
1450.000000	0.066535  
1449.000000	0.064040  
1448.000000	0.061377  
1447.000000	0.058690  
1446.000000	0.056201  
1445.000000	0.053770  
1444.000000	0.051171  
1443.000000	0.048430  
1442.000000	0.045738  
1441.000000	0.043246  
1440.000000	0.040983  
1439.000000	0.038873  
1438.000000	0.036779  
1437.000000	0.034644  
1436.000000	0.032739  
1435.000000	0.031301  
1434.000000	0.030074  
1433.000000	0.028680  
1432.000000	0.027045  
1431.000000	0.025353  
1430.000000	0.023828  
1429.000000	0.022579  
1428.000000	0.021641  
1427.000000	0.020987  
1426.000000	0.020511  
1425.000000	0.020115  
1424.000000	0.019748  
1423.000000	0.019417  
1422.000000	0.019128  
1421.000000	0.018863  
1420.000000	0.018599  
1419.000000	0.018303  
1418.000000	0.017974  
1417.000000	0.017628  
1416.000000	0.017263  
1415.000000	0.016898  
1414.000000	0.016553  
1413.000000	0.016223  
1412.000000	0.015913  
1411.000000	0.015644  
1410.000000	0.015450  
1409.000000	0.015356  
1408.000000	0.015377  
1407.000000	0.015524  
1406.000000	0.015773  
1405.000000	0.016084  
1404.000000	0.016427  
1403.000000	0.016790  
1402.000000	0.017139  
1401.000000	0.017464  
1400.000000	0.017814  
1399.000000	0.018208  
1398.000000	0.018597  
1397.000000	0.018932  
1396.000000	0.019223  
1395.000000	0.019518  
1394.000000	0.019892  
1393.000000	0.020365  
1392.000000	0.020867  
1391.000000	0.021364  
1390.000000	0.021923  
1389.000000	0.022697  
1388.000000	0.023867  
1387.000000	0.025468  
1386.000000	0.027342  
1385.000000	0.029356  
1384.000000	0.031553  
1383.000000	0.034074  
1382.000000	0.036986  
1381.000000	0.040179  
1380.000000	0.043304  
1379.000000	0.045768  
1378.000000	0.046985  
1377.000000	0.046741  
1376.000000	0.045176  
1375.000000	0.042576  
1374.000000	0.039443  
1373.000000	0.036468  
1372.000000	0.034093  
1371.000000	0.032344  
1370.000000	0.031133  
1369.000000	0.030433  
1368.000000	0.030142  
1367.000000	0.029987  
1366.000000	0.029650  
1365.000000	0.028939  
1364.000000	0.027845  
1363.000000	0.026537  
1362.000000	0.025314  
1361.000000	0.024426  
1360.000000	0.023897  
1359.000000	0.023580  
1358.000000	0.023332  
1357.000000	0.023108  
1356.000000	0.022949  
1355.000000	0.022906  
1354.000000	0.022957  
1353.000000	0.023009  
1352.000000	0.023000  
1351.000000	0.022936  
1350.000000	0.022831  
1349.000000	0.022683  
1348.000000	0.022470  
1347.000000	0.022158  
1346.000000	0.021751  
1345.000000	0.021324  
1344.000000	0.020978  
1343.000000	0.020744  
1342.000000	0.020551  
1341.000000	0.020302  
1340.000000	0.019945  
1339.000000	0.019493  
1338.000000	0.019009  
1337.000000	0.018553  
1336.000000	0.018152  
1335.000000	0.017814  
1334.000000	0.017526  
1333.000000	0.017271  
1332.000000	0.017071  
1331.000000	0.016967  
1330.000000	0.016952  
1329.000000	0.016980  
1328.000000	0.017017  
1327.000000	0.017066  
1326.000000	0.017133  
1325.000000	0.017217  
1324.000000	0.017316  
1323.000000	0.017429  
1322.000000	0.017564  
1321.000000	0.017723  
1320.000000	0.017896  
1319.000000	0.018063  
1318.000000	0.018217  
1317.000000	0.018362  
1316.000000	0.018504  
1315.000000	0.018645  
1314.000000	0.018792  
1313.000000	0.018953  
1312.000000	0.019124  
1311.000000	0.019293  
1310.000000	0.019457  
1309.000000	0.019627  
1308.000000	0.019812  
1307.000000	0.019999  
1306.000000	0.020157  
1305.000000	0.020266  
1304.000000	0.020303  
1303.000000	0.020252  
1302.000000	0.020126  
1301.000000	0.019974  
1300.000000	0.019831  
1299.000000	0.019690  
1298.000000	0.019516  
1297.000000	0.019295  
1296.000000	0.019048  
1295.000000	0.018798  
1294.000000	0.018549  
1293.000000	0.018306  
1292.000000	0.018096  
1291.000000	0.017957  
1290.000000	0.017914  
1289.000000	0.017959  
1288.000000	0.018068  
1287.000000	0.018230  
1286.000000	0.018455  
1285.000000	0.018744  
1284.000000	0.019068  
1283.000000	0.019389  
1282.000000	0.019699  
1281.000000	0.020009  
1280.000000	0.020307  
1279.000000	0.020558  
1278.000000	0.020755  
1277.000000	0.020945  
1276.000000	0.021175  
1275.000000	0.021437  
1274.000000	0.021696  
1273.000000	0.021950  
1272.000000	0.022216  
1271.000000	0.022478  
1270.000000	0.022694  
1269.000000	0.022856  
1268.000000	0.023000  
1267.000000	0.023144  
1266.000000	0.023257  
1265.000000	0.023302  
1264.000000	0.023296  
1263.000000	0.023309  
1262.000000	0.023407  
1261.000000	0.023595  
1260.000000	0.023808  
1259.000000	0.023961  
1258.000000	0.024020  
1257.000000	0.024022  
1256.000000	0.024025  
1255.000000	0.024070  
1254.000000	0.024194  
1253.000000	0.024444  
1252.000000	0.024831  
1251.000000	0.025291  
1250.000000	0.025738  
1249.000000	0.026152  
1248.000000	0.026579  
1247.000000	0.027044  
1246.000000	0.027500  
1245.000000	0.027882  
1244.000000	0.028160  
1243.000000	0.028331  
1242.000000	0.028388  
1241.000000	0.028318  
1240.000000	0.028126  
1239.000000	0.027837  
1238.000000	0.027472  
1237.000000	0.027045  
1236.000000	0.026586  
1235.000000	0.026139  
1234.000000	0.025720  
1233.000000	0.025305  
1232.000000	0.024862  
1231.000000	0.024401  
1230.000000	0.023952  
1229.000000	0.023527  
1228.000000	0.023132  
1227.000000	0.022792  
1226.000000	0.022536  
1225.000000	0.022345  
1224.000000	0.022168  
1223.000000	0.021985  
1222.000000	0.021824  
1221.000000	0.021704  
1220.000000	0.021612  
1219.000000	0.021543  
1218.000000	0.021542  
1217.000000	0.021642  
1216.000000	0.021815  
1215.000000	0.021989  
1214.000000	0.022122  
1213.000000	0.022219  
1212.000000	0.022316  
1211.000000	0.022458  
1210.000000	0.022682  
1209.000000	0.022965  
1208.000000	0.023220  
1207.000000	0.023402  
1206.000000	0.023578  
1205.000000	0.023857  
1204.000000	0.024253  
1203.000000	0.024685  
1202.000000	0.025097  
1201.000000	0.025523  
1200.000000	0.026015  
1199.000000	0.026581  
1198.000000	0.027219  
1197.000000	0.027939  
1196.000000	0.028738  
1195.000000	0.029584  
1194.000000	0.030462  
1193.000000	0.031397  
1192.000000	0.032382  
1191.000000	0.033344  
1190.000000	0.034225  
1189.000000	0.035047  
1188.000000	0.035879  
1187.000000	0.036757  
1186.000000	0.037683  
1185.000000	0.038661  
1184.000000	0.039692  
1183.000000	0.040747  
1182.000000	0.041789  
1181.000000	0.042791  
1180.000000	0.043711  
1179.000000	0.044489  
1178.000000	0.045090  
1177.000000	0.045537  
1176.000000	0.045861  
1175.000000	0.046052  
1174.000000	0.046092  
1173.000000	0.045988  
1172.000000	0.045752  
1171.000000	0.045376  
1170.000000	0.044876  
1169.000000	0.044300  
1168.000000	0.043686  
1167.000000	0.043022  
1166.000000	0.042274  
1165.000000	0.041425  
1164.000000	0.040455  
1163.000000	0.039352  
1162.000000	0.038171  
1161.000000	0.037029  
1160.000000	0.036011  
1159.000000	0.035078  
1158.000000	0.034138  
1157.000000	0.033162  
1156.000000	0.032197  
1155.000000	0.031269  
1154.000000	0.030355  
1153.000000	0.029447  
1152.000000	0.028600  
1151.000000	0.027879  
1150.000000	0.027299  
1149.000000	0.026826  
1148.000000	0.026410  
1147.000000	0.025987  
1146.000000	0.025497  
1145.000000	0.024913  
1144.000000	0.024257  
1143.000000	0.023577  
1142.000000	0.022917  
1141.000000	0.022302  
1140.000000	0.021727  
1139.000000	0.021171  
1138.000000	0.020638  
1137.000000	0.020177  
1136.000000	0.019820  
1135.000000	0.019511  
1134.000000	0.019158  
1133.000000	0.018765  
1132.000000	0.018458  
1131.000000	0.018348  
1130.000000	0.018429  
1129.000000	0.018630  
1128.000000	0.018922  
1127.000000	0.019314  
1126.000000	0.019779  
1125.000000	0.020258  
1124.000000	0.020713  
1123.000000	0.021131  
1122.000000	0.021506  
1121.000000	0.021831  
1120.000000	0.022098  
1119.000000	0.022278  
1118.000000	0.022322  
1117.000000	0.022214  
1116.000000	0.022002  
1115.000000	0.021738  
1114.000000	0.021420  
1113.000000	0.021038  
1112.000000	0.020637  
1111.000000	0.020279  
1110.000000	0.019962  
1109.000000	0.019644  
1108.000000	0.019352  
1107.000000	0.019206  
1106.000000	0.019278  
1105.000000	0.019486  
1104.000000	0.019666  
1103.000000	0.019728  
1102.000000	0.019730  
1101.000000	0.019793  
1100.000000	0.019966  
1099.000000	0.020195  
1098.000000	0.020362  
1097.000000	0.020416  
1096.000000	0.020406  
1095.000000	0.020401  
1094.000000	0.020402  
1093.000000	0.020350  
1092.000000	0.020221  
1091.000000	0.020055  
1090.000000	0.019886  
1089.000000	0.019693  
1088.000000	0.019456  
1087.000000	0.019222  
1086.000000	0.019077  
1085.000000	0.019057  
1084.000000	0.019107  
1083.000000	0.019126  
1082.000000	0.019048  
1081.000000	0.018914  
1080.000000	0.018850  
1079.000000	0.018971  
1078.000000	0.019270  
1077.000000	0.019637  
1076.000000	0.019991  
1075.000000	0.020354  
1074.000000	0.020786  
1073.000000	0.021279  
1072.000000	0.021755  
1071.000000	0.022159  
1070.000000	0.022503  
1069.000000	0.022828  
1068.000000	0.023138  
1067.000000	0.023401  
1066.000000	0.023580  
1065.000000	0.023674  
1064.000000	0.023708  
1063.000000	0.023682  
1062.000000	0.023550  
1061.000000	0.023252  
1060.000000	0.022803  
1059.000000	0.022317  
1058.000000	0.021917  
1057.000000	0.021648  
1056.000000	0.021479  
1055.000000	0.021365  
1054.000000	0.021254  
1053.000000	0.021061  
1052.000000	0.020716  
1051.000000	0.020287  
1050.000000	0.019974  
1049.000000	0.019912  
1048.000000	0.020038  
1047.000000	0.020184  
1046.000000	0.020263  
1045.000000	0.020303  
1044.000000	0.020363  
1043.000000	0.020472  
1042.000000	0.020632  
1041.000000	0.020809  
1040.000000	0.020923  
1039.000000	0.020900  
1038.000000	0.020745  
1037.000000	0.020544  
1036.000000	0.020380  
1035.000000	0.020274  
1034.000000	0.020205  
1033.000000	0.020162  
1032.000000	0.020136  
1031.000000	0.020100  
1030.000000	0.020029  
1029.000000	0.019933  
1028.000000	0.019847  
1027.000000	0.019792  
1026.000000	0.019757  
1025.000000	0.019699  
1024.000000	0.019554  
1023.000000	0.019275  
1022.000000	0.018877  
1021.000000	0.018429  
1020.000000	0.017996  
1019.000000	0.017590  
1018.000000	0.017213  
1017.000000	0.016902  
1016.000000	0.016713  
1015.000000	0.016633  
1014.000000	0.016566  
1013.000000	0.016420  
1012.000000	0.016173  
1011.000000	0.015878  
1010.000000	0.015615  
1009.000000	0.015454  
1008.000000	0.015416  
1007.000000	0.015445  
1006.000000	0.015447  
1005.000000	0.015373  
1004.000000	0.015255  
1003.000000	0.015161  
1002.000000	0.015122  
1001.000000	0.015101  
1000.000000	0.015026  
999.000000	 0.014840  
998.000000	 0.014554  
997.000000	 0.014262  
996.000000	 0.014095  
995.000000	 0.014098  
994.000000	 0.014189  
993.000000	 0.014233  
992.000000	 0.014170  
991.000000	 0.014048  
990.000000	 0.013959  
989.000000	 0.013954  
988.000000	 0.014018  
987.000000	 0.014086  
986.000000	 0.014100  
985.000000	 0.014066  
984.000000	 0.014062  
983.000000	 0.014159  
982.000000	 0.014341  
981.000000	 0.014523  
980.000000	 0.014642  
979.000000	 0.014720  
978.000000	 0.014829  
977.000000	 0.015016  
976.000000	 0.015266  
975.000000	 0.015515  
974.000000	 0.015699  
973.000000	 0.015806  
972.000000	 0.015890  
971.000000	 0.016022  
970.000000	 0.016224  
969.000000	 0.016456  
968.000000	 0.016652  
967.000000	 0.016749  
966.000000	 0.016707  
965.000000	 0.016519  
964.000000	 0.016240  
963.000000	 0.015973  
962.000000	 0.015788  
961.000000	 0.015677  
960.000000	 0.015571  
959.000000	 0.015424  
958.000000	 0.015249  
957.000000	 0.015100  
956.000000	 0.015022  
955.000000	 0.015023  
954.000000	 0.015072  
953.000000	 0.015124  
952.000000	 0.015156  
951.000000	 0.015167  
950.000000	 0.015158  
949.000000	 0.015126  
948.000000	 0.015068  
947.000000	 0.014998  
946.000000	 0.014923  
945.000000	 0.014832  
944.000000	 0.014707  
943.000000	 0.014557  
942.000000	 0.014408  
941.000000	 0.014261  
940.000000	 0.014070  
939.000000	 0.013794  
938.000000	 0.013458  
937.000000	 0.013135  
936.000000	 0.012875  
935.000000	 0.012661  
934.000000	 0.012477  
933.000000	 0.012362  
932.000000	 0.012375  
931.000000	 0.012487  
930.000000	 0.012578  
929.000000	 0.012569  
928.000000	 0.012520  
927.000000	 0.012553  
926.000000	 0.012700  
925.000000	 0.012864  
924.000000	 0.012955  
923.000000	 0.012992  
922.000000	 0.013041  
921.000000	 0.013098  
920.000000	 0.013081  
919.000000	 0.012954  
918.000000	 0.012803  
917.000000	 0.012763  
916.000000	 0.012880  
915.000000	 0.013073  
914.000000	 0.013207  
913.000000	 0.013199  
912.000000	 0.013039  
911.000000	 0.012778  
910.000000	 0.012511  
909.000000	 0.012346  
908.000000	 0.012324  
907.000000	 0.012365  
906.000000	 0.012332  
905.000000	 0.012170  
904.000000	 0.011970  
903.000000	 0.011863  
902.000000	 0.011869  
901.000000	 0.011885  
900.000000	 0.011820  
899.000000	 0.011707  
898.000000	 0.011654  
897.000000	 0.011717  
896.000000	 0.011846  
895.000000	 0.011944  
894.000000	 0.011966  
893.000000	 0.011932  
892.000000	 0.011890  
891.000000	 0.011885  
890.000000	 0.011957  
889.000000	 0.012125  
888.000000	 0.012343  
887.000000	 0.012503  
886.000000	 0.012511  
885.000000	 0.012370  
884.000000	 0.012166  
883.000000	 0.011986  
882.000000	 0.011892  
881.000000	 0.011934  
880.000000	 0.012127  
879.000000	 0.012387  
878.000000	 0.012564  
877.000000	 0.012570  
876.000000	 0.012475  
875.000000	 0.012403  
874.000000	 0.012386  
873.000000	 0.012339  
872.000000	 0.012184  
871.000000	 0.011970  
870.000000	 0.011857  
869.000000	 0.011984  
868.000000	 0.012315  
867.000000	 0.012630  
866.000000	 0.012697  
865.000000	 0.012479  
864.000000	 0.012150  
863.000000	 0.011910  
862.000000	 0.011825  
861.000000	 0.011866  
860.000000	 0.012018  
859.000000	 0.012259  
858.000000	 0.012479  
857.000000	 0.012545  
856.000000	 0.012472  
855.000000	 0.012449  
854.000000	 0.012648  
853.000000	 0.013045  
852.000000	 0.013473  
851.000000	 0.013805  
850.000000	 0.014034  
849.000000	 0.014202  
848.000000	 0.014331  
847.000000	 0.014435  
846.000000	 0.014538  
845.000000	 0.014649  
844.000000	 0.014736  
843.000000	 0.014762  
842.000000	 0.014733  
841.000000	 0.014688  
840.000000	 0.014644  
839.000000	 0.014598  
838.000000	 0.014541  
837.000000	 0.014453  
836.000000	 0.014257  
835.000000	 0.013856  
834.000000	 0.013267  
833.000000	 0.012677  
832.000000	 0.012301  
831.000000	 0.012186  
830.000000	 0.012192  
829.000000	 0.012191  
828.000000	 0.012214  
827.000000	 0.012365  
826.000000	 0.012632  
825.000000	 0.012880  
824.000000	 0.012999  
823.000000	 0.012989  
822.000000	 0.012914  
821.000000	 0.012839  
820.000000	 0.012825  
819.000000	 0.012912  
818.000000	 0.013098  
817.000000	 0.013328  
816.000000	 0.013530  
815.000000	 0.013629  
814.000000	 0.013572  
813.000000	 0.013376  
812.000000	 0.013157  
811.000000	 0.013064  
810.000000	 0.013181  
809.000000	 0.013469  
808.000000	 0.013813  
807.000000	 0.014087  
806.000000	 0.014203  
805.000000	 0.014121  
804.000000	 0.013853  
803.000000	 0.013453  
802.000000	 0.013009  
801.000000	 0.012624  
800.000000	 0.012371  
799.000000	 0.012243  
798.000000	 0.012176  
797.000000	 0.012105  
796.000000	 0.012008  
795.000000	 0.011885  
794.000000	 0.011747  
793.000000	 0.011655  
792.000000	 0.011720  
791.000000	 0.012003  
790.000000	 0.012402  
789.000000	 0.012693  
788.000000	 0.012728  
787.000000	 0.012585  
786.000000	 0.012501  
785.000000	 0.012663  
784.000000	 0.013057  
783.000000	 0.013517  
782.000000	 0.013911  
781.000000	 0.014242  
780.000000	 0.014572  
779.000000	 0.014902  
778.000000	 0.015189  
777.000000	 0.015450  
776.000000	 0.015777  
775.000000	 0.016220  
774.000000	 0.016709  
773.000000	 0.017142  
772.000000	 0.017493  
771.000000	 0.017796  
770.000000	 0.018066  
769.000000	 0.018276  
768.000000	 0.018393  
767.000000	 0.018390  
766.000000	 0.018244  
765.000000	 0.017987  
764.000000	 0.017754  
763.000000	 0.017720  
762.000000	 0.017955  
761.000000	 0.018354  
760.000000	 0.018732  
759.000000	 0.018980  
758.000000	 0.019132  
757.000000	 0.019312  
756.000000	 0.019605  
755.000000	 0.019968  
754.000000	 0.020273  
753.000000	 0.020453  
752.000000	 0.020563  
751.000000	 0.020714  
750.000000	 0.020962  
749.000000	 0.021305  
748.000000	 0.021759  
747.000000	 0.022401  
746.000000	 0.023327  
745.000000	 0.024589  
744.000000	 0.026132  
743.000000	 0.027759  
742.000000	 0.029188  
741.000000	 0.030211  
740.000000	 0.030852  
739.000000	 0.031324  
738.000000	 0.031822  
737.000000	 0.032343  
736.000000	 0.032739  
735.000000	 0.032907  
734.000000	 0.032940  
733.000000	 0.033085  
732.000000	 0.033533  
731.000000	 0.034232  
730.000000	 0.034977  
729.000000	 0.035700  
728.000000	 0.036575  
727.000000	 0.037760  
726.000000	 0.039163  
725.000000	 0.040513  
724.000000	 0.041622  
723.000000	 0.042478  
722.000000	 0.043032  
721.000000	 0.042965  
720.000000	 0.041857  
719.000000	 0.039731  
718.000000	 0.037193  
717.000000	 0.034949  
716.000000	 0.033357  
715.000000	 0.032340  
714.000000	 0.031565  
713.000000	 0.030769  
712.000000	 0.029931  
711.000000	 0.029189  
710.000000	 0.028649  
709.000000	 0.028312  
708.000000	 0.028094  
707.000000	 0.027884  
706.000000	 0.027678  
705.000000	 0.027607  
704.000000	 0.027746  
703.000000	 0.027970  
702.000000	 0.028059  
701.000000	 0.027931  
700.000000	 0.027725  
699.000000	 0.027549  
698.000000	 0.027276  
697.000000	 0.026680  
696.000000	 0.025734  
695.000000	 0.024776  
694.000000	 0.024186  
693.000000	 0.023957  
692.000000	 0.023687  
691.000000	 0.022975  
690.000000	 0.021877  
689.000000	 0.020824  
688.000000	 0.020087  
687.000000	 0.019525  
686.000000	 0.018906  
685.000000	 0.018297  
684.000000	 0.017958  
683.000000	 0.017918  
682.000000	 0.017939  
681.000000	 0.017816  
680.000000	 0.017532  
679.000000	 0.017111  
678.000000	 0.016628  
677.000000	 0.016376  
676.000000	 0.016420  
675.000000	 0.016536  
674.000000	 0.016525  
673.000000	 0.016258  
672.000000	 0.015294  
671.000000	 0.012536  
670.000000	 0.006948  
669.000000	 -0.001658 
668.000000	 -0.008055 
667.000000	 -0.004223 
666.000000	 0.004134  
665.000000	 0.009853  
664.000000	 0.012772  
663.000000	 0.014168  
662.000000	 0.014684  
661.000000	 0.014427  
660.000000	 0.013735  
659.000000	 0.013235  
658.000000	 0.013151  
657.000000	 0.013076  
656.000000	 0.012363  
655.000000	 0.011060  
654.000000	 0.010003  
653.000000	 0.009919  
652.000000	 0.010681  
651.000000	 0.011566  
650.000000	 0.012008  

