PE IR                   SPECTRUM    ASCII       PEDS        1.60        
  -1
NB4-00~2.ASC
17/04/10
13:07:29.00
17/04/10
13:07:29.00
Admin

650.000000
6









SPECTRUM ONE,CPU32 MAIN 00.02.5000 17-APRIL-2002 13:00:00
MIR TGS
MIR
OPTKBR
68128
0.200000

4.000000
STRONG
RATIO
SPECTRUM
MAGNITUDE

DOUBLE

COMBINED


0


#HDR
-1
-1
#GR
CM-1
A
0.00000011920928955078
0.0
4000.000000
-1.000000
3351
8
0.218774
-0.001440
#DATA
4000.000000	0.000365  
3999.000000	0.000536  
3998.000000	0.000708  
3997.000000	0.000879  
3996.000000	0.001051  
3995.000000	0.001223  
3994.000000	0.001363  
3993.000000	0.001421  
3992.000000	0.001385  
3991.000000	0.001345  
3990.000000	0.001223  
3989.000000	0.001116  
3988.000000	0.001049  
3987.000000	0.001020  
3986.000000	0.001030  
3985.000000	0.001074  
3984.000000	0.001123  
3983.000000	0.001109  
3982.000000	0.000980  
3981.000000	0.000766  
3980.000000	0.000576  
3979.000000	0.000513  
3978.000000	0.000594  
3977.000000	0.000756  
3976.000000	0.000929  
3975.000000	0.001084  
3974.000000	0.001220  
3973.000000	0.001330  
3972.000000	0.001394  
3971.000000	0.001403  
3970.000000	0.001362  
3969.000000	0.001272  
3968.000000	0.001121  
3967.000000	0.000925  
3966.000000	0.000749  
3965.000000	0.000681  
3964.000000	0.000760  
3963.000000	0.000942  
3962.000000	0.001137  
3961.000000	0.001285  
3960.000000	0.001378  
3959.000000	0.001425  
3958.000000	0.001414  
3957.000000	0.001330  
3956.000000	0.001196  
3955.000000	0.001075  
3954.000000	0.001030  
3953.000000	0.001073  
3952.000000	0.001160  
3951.000000	0.001227  
3950.000000	0.001244  
3949.000000	0.001249  
3948.000000	0.001306  
3947.000000	0.001436  
3946.000000	0.001580  
3945.000000	0.001639  
3944.000000	0.001560  
3943.000000	0.001391  
3942.000000	0.001236  
3941.000000	0.001179  
3940.000000	0.001230  
3939.000000	0.001344  
3938.000000	0.001458  
3937.000000	0.001530  
3936.000000	0.001546  
3935.000000	0.001515  
3934.000000	0.001474  
3933.000000	0.001461  
3932.000000	0.001481  
3931.000000	0.001498  
3930.000000	0.001496  
3929.000000	0.001512  
3928.000000	0.001603  
3927.000000	0.001783  
3926.000000	0.001988  
3925.000000	0.002136  
3924.000000	0.002203  
3923.000000	0.002251  
3922.000000	0.002332  
3921.000000	0.002410  
3920.000000	0.002386  
3919.000000	0.002205  
3918.000000	0.001918  
3917.000000	0.001642  
3916.000000	0.001473  
3915.000000	0.001431  
3914.000000	0.001453  
3913.000000	0.001438  
3912.000000	0.001321  
3911.000000	0.001134  
3910.000000	0.000993  
3909.000000	0.001011  
3908.000000	0.001207  
3907.000000	0.001498  
3906.000000	0.001746  
3905.000000	0.001845  
3904.000000	0.001796  
3903.000000	0.001693  
3902.000000	0.001635  
3901.000000	0.001657  
3900.000000	0.001732  
3899.000000	0.001812  
3898.000000	0.001863  
3897.000000	0.001853  
3896.000000	0.001761  
3895.000000	0.001610  
3894.000000	0.001479  
3893.000000	0.001435  
3892.000000	0.001459  
3891.000000	0.001479  
3890.000000	0.001471  
3889.000000	0.001459  
3888.000000	0.001454  
3887.000000	0.001436  
3886.000000	0.001401  
3885.000000	0.001377  
3884.000000	0.001392  
3883.000000	0.001440  
3882.000000	0.001481  
3881.000000	0.001477  
3880.000000	0.001450  
3879.000000	0.001468  
3878.000000	0.001560  
3877.000000	0.001682  
3876.000000	0.001775  
3875.000000	0.001844  
3874.000000	0.001950  
3873.000000	0.002102  
3872.000000	0.002249  
3871.000000	0.002323  
3870.000000	0.002307  
3869.000000	0.002265  
3868.000000	0.002275  
3867.000000	0.002318  
3866.000000	0.002278  
3865.000000	0.002086  
3864.000000	0.001826  
3863.000000	0.001647  
3862.000000	0.001597  
3861.000000	0.001603  
3860.000000	0.001569  
3859.000000	0.001474  
3858.000000	0.001395  
3857.000000	0.001405  
3856.000000	0.001507  
3855.000000	0.001619  
3854.000000	0.001671  
3853.000000	0.001698  
3852.000000	0.001763  
3851.000000	0.001865  
3850.000000	0.001989  
3849.000000	0.002090  
3848.000000	0.002162  
3847.000000	0.002264  
3846.000000	0.002383  
3845.000000	0.002474  
3844.000000	0.002529  
3843.000000	0.002574  
3842.000000	0.002635  
3841.000000	0.002714  
3840.000000	0.002780  
3839.000000	0.002780  
3838.000000	0.002703  
3837.000000	0.002613  
3836.000000	0.002593  
3835.000000	0.002645  
3834.000000	0.002679  
3833.000000	0.002608  
3832.000000	0.002414  
3831.000000	0.002160  
3830.000000	0.001944  
3829.000000	0.001818  
3828.000000	0.001745  
3827.000000	0.001669  
3826.000000	0.001608  
3825.000000	0.001663  
3824.000000	0.001931  
3823.000000	0.002387  
3822.000000	0.002806  
3821.000000	0.002900  
3820.000000	0.002607  
3819.000000	0.002111  
3818.000000	0.001645  
3817.000000	0.001356  
3816.000000	0.001299  
3815.000000	0.001458  
3814.000000	0.001709  
3813.000000	0.001871  
3812.000000	0.001824  
3811.000000	0.001595  
3810.000000	0.001320  
3809.000000	0.001119  
3808.000000	0.001047  
3807.000000	0.001137  
3806.000000	0.001382  
3805.000000	0.001713  
3804.000000	0.002001  
3803.000000	0.002096  
3802.000000	0.001956  
3801.000000	0.001752  
3800.000000	0.001688  
3799.000000	0.001797  
3798.000000	0.001945  
3797.000000	0.001990  
3796.000000	0.001945  
3795.000000	0.001898  
3794.000000	0.001855  
3793.000000	0.001762  
3792.000000	0.001601  
3791.000000	0.001434  
3790.000000	0.001335  
3789.000000	0.001317  
3788.000000	0.001348  
3787.000000	0.001399  
3786.000000	0.001454  
3785.000000	0.001500  
3784.000000	0.001529  
3783.000000	0.001541  
3782.000000	0.001528  
3781.000000	0.001473  
3780.000000	0.001378  
3779.000000	0.001290  
3778.000000	0.001265  
3777.000000	0.001306  
3776.000000	0.001351  
3775.000000	0.001334  
3774.000000	0.001250  
3773.000000	0.001169  
3772.000000	0.001157  
3771.000000	0.001244  
3770.000000	0.001414  
3769.000000	0.001600  
3768.000000	0.001709  
3767.000000	0.001664  
3766.000000	0.001469  
3765.000000	0.001242  
3764.000000	0.001135  
3763.000000	0.001201  
3762.000000	0.001371  
3761.000000	0.001529  
3760.000000	0.001614  
3759.000000	0.001643  
3758.000000	0.001655  
3757.000000	0.001665  
3756.000000	0.001675  
3755.000000	0.001736  
3754.000000	0.001975  
3753.000000	0.002479  
3752.000000	0.003067  
3751.000000	0.003323  
3750.000000	0.003076  
3749.000000	0.002607  
3748.000000	0.002274  
3747.000000	0.002220  
3746.000000	0.002397  
3745.000000	0.002628  
3744.000000	0.002714  
3743.000000	0.002625  
3742.000000	0.002459  
3741.000000	0.002319  
3740.000000	0.002356  
3739.000000	0.002722  
3738.000000	0.003335  
3737.000000	0.003859  
3736.000000	0.003996  
3735.000000	0.003772  
3734.000000	0.003470  
3733.000000	0.003294  
3732.000000	0.003193  
3731.000000	0.003004  
3730.000000	0.002697  
3729.000000	0.002414  
3728.000000	0.002287  
3727.000000	0.002317  
3726.000000	0.002410  
3725.000000	0.002477  
3724.000000	0.002488  
3723.000000	0.002434  
3722.000000	0.002310  
3721.000000	0.002122  
3720.000000	0.001896  
3719.000000	0.001667  
3718.000000	0.001472  
3717.000000	0.001335  
3716.000000	0.001235  
3715.000000	0.001126  
3714.000000	0.000984  
3713.000000	0.000859  
3712.000000	0.000844  
3711.000000	0.000962  
3710.000000	0.001146  
3709.000000	0.001329  
3708.000000	0.001489  
3707.000000	0.001623  
3706.000000	0.001750  
3705.000000	0.001878  
3704.000000	0.001946  
3703.000000	0.001866  
3702.000000	0.001643  
3701.000000	0.001406  
3700.000000	0.001286  
3699.000000	0.001310  
3698.000000	0.001401  
3697.000000	0.001462  
3696.000000	0.001468  
3695.000000	0.001461  
3694.000000	0.001484  
3693.000000	0.001542  
3692.000000	0.001610  
3691.000000	0.001652  
3690.000000	0.001669  
3689.000000	0.001701  
3688.000000	0.001785  
3687.000000	0.001892  
3686.000000	0.001922  
3685.000000	0.001821  
3684.000000	0.001684  
3683.000000	0.001641  
3682.000000	0.001670  
3681.000000	0.001642  
3680.000000	0.001493  
3679.000000	0.001306  
3678.000000	0.001248  
3677.000000	0.001417  
3676.000000	0.001717  
3675.000000	0.001963  
3674.000000	0.002116  
3673.000000	0.002255  
3672.000000	0.002387  
3671.000000	0.002430  
3670.000000	0.002387  
3669.000000	0.002336  
3668.000000	0.002305  
3667.000000	0.002245  
3666.000000	0.002060  
3665.000000	0.001716  
3664.000000	0.001304  
3663.000000	0.000907  
3662.000000	0.000544  
3661.000000	0.000234  
3660.000000	0.000026  
3659.000000	-0.000020 
3658.000000	0.000135  
3657.000000	0.000478  
3656.000000	0.000906  
3655.000000	0.001292  
3654.000000	0.001556  
3653.000000	0.001666  
3652.000000	0.001625  
3651.000000	0.001488  
3650.000000	0.001350  
3649.000000	0.001314  
3648.000000	0.001447  
3647.000000	0.001734  
3646.000000	0.002024  
3645.000000	0.002103  
3644.000000	0.001935  
3643.000000	0.001703  
3642.000000	0.001596  
3641.000000	0.001637  
3640.000000	0.001711  
3639.000000	0.001691  
3638.000000	0.001571  
3637.000000	0.001464  
3636.000000	0.001497  
3635.000000	0.001666  
3634.000000	0.001838  
3633.000000	0.001866  
3632.000000	0.001728  
3631.000000	0.001541  
3630.000000	0.001489  
3629.000000	0.001639  
3628.000000	0.001828  
3627.000000	0.001884  
3626.000000	0.001800  
3625.000000	0.001643  
3624.000000	0.001522  
3623.000000	0.001561  
3622.000000	0.001723  
3621.000000	0.001835  
3620.000000	0.001795  
3619.000000	0.001659  
3618.000000	0.001549  
3617.000000	0.001530  
3616.000000	0.001575  
3615.000000	0.001626  
3614.000000	0.001688  
3613.000000	0.001825  
3612.000000	0.002082  
3611.000000	0.002420  
3610.000000	0.002705  
3609.000000	0.002765  
3608.000000	0.002531  
3607.000000	0.002107  
3606.000000	0.001674  
3605.000000	0.001344  
3604.000000	0.001140  
3603.000000	0.001075  
3602.000000	0.001194  
3601.000000	0.001514  
3600.000000	0.001966  
3599.000000	0.002408  
3598.000000	0.002684  
3597.000000	0.002695  
3596.000000	0.002474  
3595.000000	0.002186  
3594.000000	0.001991  
3593.000000	0.001923  
3592.000000	0.001914  
3591.000000	0.001907  
3590.000000	0.001918  
3589.000000	0.001990  
3588.000000	0.002089  
3587.000000	0.002134  
3586.000000	0.002120  
3585.000000	0.002098  
3584.000000	0.002038  
3583.000000	0.001861  
3582.000000	0.001606  
3581.000000	0.001418  
3580.000000	0.001382  
3579.000000	0.001454  
3578.000000	0.001522  
3577.000000	0.001511  
3576.000000	0.001425  
3575.000000	0.001305  
3574.000000	0.001156  
3573.000000	0.000958  
3572.000000	0.000737  
3571.000000	0.000609  
3570.000000	0.000715  
3569.000000	0.001081  
3568.000000	0.001518  
3567.000000	0.001776  
3566.000000	0.001838  
3565.000000	0.001914  
3564.000000	0.002112  
3563.000000	0.002297  
3562.000000	0.002296  
3561.000000	0.002119  
3560.000000	0.001913  
3559.000000	0.001801  
3558.000000	0.001771  
3557.000000	0.001705  
3556.000000	0.001510  
3555.000000	0.001229  
3554.000000	0.001006  
3553.000000	0.000961  
3552.000000	0.001093  
3551.000000	0.001292  
3550.000000	0.001430  
3549.000000	0.001427  
3548.000000	0.001307  
3547.000000	0.001187  
3546.000000	0.001195  
3545.000000	0.001354  
3544.000000	0.001570  
3543.000000	0.001727  
3542.000000	0.001777  
3541.000000	0.001760  
3540.000000	0.001731  
3539.000000	0.001676  
3538.000000	0.001521  
3537.000000	0.001234  
3536.000000	0.000904  
3535.000000	0.000687  
3534.000000	0.000679  
3533.000000	0.000845  
3532.000000	0.001081  
3531.000000	0.001301  
3530.000000	0.001464  
3529.000000	0.001546  
3528.000000	0.001531  
3527.000000	0.001439  
3526.000000	0.001311  
3525.000000	0.001185  
3524.000000	0.001088  
3523.000000	0.001052  
3522.000000	0.001096  
3521.000000	0.001185  
3520.000000	0.001242  
3519.000000	0.001227  
3518.000000	0.001187  
3517.000000	0.001203  
3516.000000	0.001302  
3515.000000	0.001435  
3514.000000	0.001536  
3513.000000	0.001574  
3512.000000	0.001560  
3511.000000	0.001523  
3510.000000	0.001486  
3509.000000	0.001461  
3508.000000	0.001448  
3507.000000	0.001448  
3506.000000	0.001474  
3505.000000	0.001530  
3504.000000	0.001603  
3503.000000	0.001658  
3502.000000	0.001671  
3501.000000	0.001647  
3500.000000	0.001612  
3499.000000	0.001592  
3498.000000	0.001598  
3497.000000	0.001600  
3496.000000	0.001545  
3495.000000	0.001418  
3494.000000	0.001271  
3493.000000	0.001161  
3492.000000	0.001082  
3491.000000	0.000991  
3490.000000	0.000889  
3489.000000	0.000837  
3488.000000	0.000885  
3487.000000	0.001031  
3486.000000	0.001242  
3485.000000	0.001476  
3484.000000	0.001665  
3483.000000	0.001719  
3482.000000	0.001601  
3481.000000	0.001383  
3480.000000	0.001199  
3479.000000	0.001130  
3478.000000	0.001159  
3477.000000	0.001212  
3476.000000	0.001229  
3475.000000	0.001207  
3474.000000	0.001181  
3473.000000	0.001172  
3472.000000	0.001144  
3471.000000	0.001035  
3470.000000	0.000840  
3469.000000	0.000638  
3468.000000	0.000531  
3467.000000	0.000558  
3466.000000	0.000680  
3465.000000	0.000818  
3464.000000	0.000890  
3463.000000	0.000838  
3462.000000	0.000681  
3461.000000	0.000509  
3460.000000	0.000408  
3459.000000	0.000393  
3458.000000	0.000428  
3457.000000	0.000484  
3456.000000	0.000556  
3455.000000	0.000628  
3454.000000	0.000686  
3453.000000	0.000750  
3452.000000	0.000854  
3451.000000	0.000979  
3450.000000	0.001052  
3449.000000	0.001021  
3448.000000	0.000934  
3447.000000	0.000900  
3446.000000	0.000990  
3445.000000	0.001189  
3444.000000	0.001408  
3443.000000	0.001542  
3442.000000	0.001537  
3441.000000	0.001442  
3440.000000	0.001380  
3439.000000	0.001441  
3438.000000	0.001579  
3437.000000	0.001634  
3436.000000	0.001472  
3435.000000	0.001118  
3434.000000	0.000751  
3433.000000	0.000563  
3432.000000	0.000608  
3431.000000	0.000775  
3430.000000	0.000902  
3429.000000	0.000899  
3428.000000	0.000775  
3427.000000	0.000585  
3426.000000	0.000398  
3425.000000	0.000299  
3424.000000	0.000351  
3423.000000	0.000538  
3422.000000	0.000767  
3421.000000	0.000944  
3420.000000	0.001053  
3419.000000	0.001135  
3418.000000	0.001213  
3417.000000	0.001269  
3416.000000	0.001284  
3415.000000	0.001265  
3414.000000	0.001239  
3413.000000	0.001237  
3412.000000	0.001284  
3411.000000	0.001377  
3410.000000	0.001454  
3409.000000	0.001426  
3408.000000	0.001234  
3407.000000	0.000915  
3406.000000	0.000590  
3405.000000	0.000390  
3404.000000	0.000368  
3403.000000	0.000483  
3402.000000	0.000650  
3401.000000	0.000801  
3400.000000	0.000903  
3399.000000	0.000928  
3398.000000	0.000883  
3397.000000	0.000838  
3396.000000	0.000906  
3395.000000	0.001134  
3394.000000	0.001442  
3393.000000	0.001679  
3392.000000	0.001735  
3391.000000	0.001605  
3390.000000	0.001367  
3389.000000	0.001124  
3388.000000	0.000957  
3387.000000	0.000880  
3386.000000	0.000855  
3385.000000	0.000850  
3384.000000	0.000890  
3383.000000	0.001005  
3382.000000	0.001170  
3381.000000	0.001312  
3380.000000	0.001382  
3379.000000	0.001373  
3378.000000	0.001274  
3377.000000	0.001063  
3376.000000	0.000765  
3375.000000	0.000495  
3374.000000	0.000377  
3373.000000	0.000444  
3372.000000	0.000620  
3371.000000	0.000813  
3370.000000	0.000998  
3369.000000	0.001200  
3368.000000	0.001408  
3367.000000	0.001561  
3366.000000	0.001610  
3365.000000	0.001579  
3364.000000	0.001534  
3363.000000	0.001495  
3362.000000	0.001438  
3361.000000	0.001366  
3360.000000	0.001330  
3359.000000	0.001352  
3358.000000	0.001378  
3357.000000	0.001344  
3356.000000	0.001269  
3355.000000	0.001220  
3354.000000	0.001208  
3353.000000	0.001173  
3352.000000	0.001087  
3351.000000	0.000996  
3350.000000	0.000954  
3349.000000	0.000961  
3348.000000	0.000987  
3347.000000	0.001032  
3346.000000	0.001105  
3345.000000	0.001180  
3344.000000	0.001206  
3343.000000	0.001167  
3342.000000	0.001105  
3341.000000	0.001077  
3340.000000	0.001086  
3339.000000	0.001090  
3338.000000	0.001052  
3337.000000	0.000996  
3336.000000	0.000988  
3335.000000	0.001057  
3334.000000	0.001152  
3333.000000	0.001193  
3332.000000	0.001158  
3331.000000	0.001096  
3330.000000	0.001063  
3329.000000	0.001074  
3328.000000	0.001113  
3327.000000	0.001157  
3326.000000	0.001168  
3325.000000	0.001111  
3324.000000	0.000997  
3323.000000	0.000898  
3322.000000	0.000872  
3321.000000	0.000907  
3320.000000	0.000964  
3319.000000	0.001046  
3318.000000	0.001187  
3317.000000	0.001361  
3316.000000	0.001465  
3315.000000	0.001416  
3314.000000	0.001245  
3313.000000	0.001069  
3312.000000	0.000985  
3311.000000	0.001009  
3310.000000	0.001088  
3309.000000	0.001143  
3308.000000	0.001110  
3307.000000	0.000981  
3306.000000	0.000831  
3305.000000	0.000780  
3304.000000	0.000884  
3303.000000	0.001073  
3302.000000	0.001217  
3301.000000	0.001259  
3300.000000	0.001240  
3299.000000	0.001211  
3298.000000	0.001166  
3297.000000	0.001089  
3296.000000	0.001014  
3295.000000	0.000993  
3294.000000	0.001020  
3293.000000	0.001050  
3292.000000	0.001075  
3291.000000	0.001132  
3290.000000	0.001221  
3289.000000	0.001289  
3288.000000	0.001294  
3287.000000	0.001254  
3286.000000	0.001198  
3285.000000	0.001119  
3284.000000	0.001009  
3283.000000	0.000912  
3282.000000	0.000889  
3281.000000	0.000938  
3280.000000	0.000995  
3279.000000	0.001005  
3278.000000	0.000980  
3277.000000	0.000972  
3276.000000	0.001028  
3275.000000	0.001171  
3274.000000	0.001393  
3273.000000	0.001630  
3272.000000	0.001778  
3271.000000	0.001754  
3270.000000	0.001565  
3269.000000	0.001304  
3268.000000	0.001070  
3267.000000	0.000899  
3266.000000	0.000783  
3265.000000	0.000731  
3264.000000	0.000786  
3263.000000	0.000955  
3262.000000	0.001165  
3261.000000	0.001321  
3260.000000	0.001394  
3259.000000	0.001425  
3258.000000	0.001460  
3257.000000	0.001493  
3256.000000	0.001490  
3255.000000	0.001441  
3254.000000	0.001385  
3253.000000	0.001387  
3252.000000	0.001488  
3251.000000	0.001652  
3250.000000	0.001788  
3249.000000	0.001833  
3248.000000	0.001806  
3247.000000	0.001751  
3246.000000	0.001664  
3245.000000	0.001520  
3244.000000	0.001369  
3243.000000	0.001315  
3242.000000	0.001386  
3241.000000	0.001479  
3240.000000	0.001473  
3239.000000	0.001351  
3238.000000	0.001189  
3237.000000	0.001057  
3236.000000	0.000974  
3235.000000	0.000926  
3234.000000	0.000896  
3233.000000	0.000885  
3232.000000	0.000926  
3231.000000	0.001051  
3230.000000	0.001234  
3229.000000	0.001392  
3228.000000	0.001470  
3227.000000	0.001497  
3226.000000	0.001527  
3225.000000	0.001561  
3224.000000	0.001569  
3223.000000	0.001548  
3222.000000	0.001512  
3221.000000	0.001451  
3220.000000	0.001345  
3219.000000	0.001234  
3218.000000	0.001190  
3217.000000	0.001243  
3216.000000	0.001347  
3215.000000	0.001446  
3214.000000	0.001520  
3213.000000	0.001577  
3212.000000	0.001618  
3211.000000	0.001646  
3210.000000	0.001667  
3209.000000	0.001682  
3208.000000	0.001700  
3207.000000	0.001747  
3206.000000	0.001850  
3205.000000	0.001995  
3204.000000	0.002136  
3203.000000	0.002240  
3202.000000	0.002291  
3201.000000	0.002268  
3200.000000	0.002138  
3199.000000	0.001905  
3198.000000	0.001627  
3197.000000	0.001372  
3196.000000	0.001170  
3195.000000	0.001030  
3194.000000	0.000968  
3193.000000	0.001004  
3192.000000	0.001131  
3191.000000	0.001317  
3190.000000	0.001520  
3189.000000	0.001704  
3188.000000	0.001836  
3187.000000	0.001904  
3186.000000	0.001937  
3185.000000	0.001978  
3184.000000	0.002041  
3183.000000	0.002077  
3182.000000	0.002016  
3181.000000	0.001835  
3180.000000	0.001589  
3179.000000	0.001363  
3178.000000	0.001218  
3177.000000	0.001184  
3176.000000	0.001286  
3175.000000	0.001522  
3174.000000	0.001806  
3173.000000	0.001998  
3172.000000	0.002014  
3171.000000	0.001902  
3170.000000	0.001792  
3169.000000	0.001768  
3168.000000	0.001823  
3167.000000	0.001908  
3166.000000	0.001976  
3165.000000	0.001993  
3164.000000	0.001944  
3163.000000	0.001846  
3162.000000	0.001744  
3161.000000	0.001689  
3160.000000	0.001717  
3159.000000	0.001832  
3158.000000	0.001985  
3157.000000	0.002100  
3156.000000	0.002127  
3155.000000	0.002088  
3154.000000	0.002045  
3153.000000	0.002034  
3152.000000	0.002031  
3151.000000	0.001986  
3150.000000	0.001855  
3149.000000	0.001640  
3148.000000	0.001407  
3147.000000	0.001246  
3146.000000	0.001198  
3145.000000	0.001227  
3144.000000	0.001279  
3143.000000	0.001345  
3142.000000	0.001427  
3141.000000	0.001493  
3140.000000	0.001511  
3139.000000	0.001515  
3138.000000	0.001580  
3137.000000	0.001714  
3136.000000	0.001833  
3135.000000	0.001854  
3134.000000	0.001792  
3133.000000	0.001735  
3132.000000	0.001768  
3131.000000	0.001900  
3130.000000	0.002059  
3129.000000	0.002140  
3128.000000	0.002079  
3127.000000	0.001909  
3126.000000	0.001725  
3125.000000	0.001612  
3124.000000	0.001609  
3123.000000	0.001727  
3122.000000	0.001944  
3121.000000	0.002176  
3120.000000	0.002300  
3119.000000	0.002247  
3118.000000	0.002059  
3117.000000	0.001845  
3116.000000	0.001703  
3115.000000	0.001672  
3114.000000	0.001732  
3113.000000	0.001826  
3112.000000	0.001907  
3111.000000	0.001971  
3110.000000	0.002030  
3109.000000	0.002063  
3108.000000	0.002027  
3107.000000	0.001919  
3106.000000	0.001797  
3105.000000	0.001725  
3104.000000	0.001736  
3103.000000	0.001838  
3102.000000	0.002015  
3101.000000	0.002194  
3100.000000	0.002274  
3099.000000	0.002207  
3098.000000	0.002045  
3097.000000	0.001890  
3096.000000	0.001815  
3095.000000	0.001842  
3094.000000	0.001943  
3093.000000	0.002050  
3092.000000	0.002092  
3091.000000	0.002064  
3090.000000	0.002027  
3089.000000	0.002036  
3088.000000	0.002078  
3087.000000	0.002121  
3086.000000	0.002166  
3085.000000	0.002222  
3084.000000	0.002259  
3083.000000	0.002232  
3082.000000	0.002160  
3081.000000	0.002136  
3080.000000	0.002239  
3079.000000	0.002464  
3078.000000	0.002731  
3077.000000	0.002951  
3076.000000	0.003065  
3075.000000	0.003061  
3074.000000	0.002965  
3073.000000	0.002833  
3072.000000	0.002739  
3071.000000	0.002749  
3070.000000	0.002868  
3069.000000	0.003022  
3068.000000	0.003103  
3067.000000	0.003066  
3066.000000	0.002978  
3065.000000	0.002965  
3064.000000	0.003102  
3063.000000	0.003355  
3062.000000	0.003603  
3061.000000	0.003712  
3060.000000	0.003634  
3059.000000	0.003446  
3058.000000	0.003278  
3057.000000	0.003199  
3056.000000	0.003191  
3055.000000	0.003220  
3054.000000	0.003289  
3053.000000	0.003384  
3052.000000	0.003437  
3051.000000	0.003396  
3050.000000	0.003315  
3049.000000	0.003316  
3048.000000	0.003458  
3047.000000	0.003679  
3046.000000	0.003866  
3045.000000	0.003945  
3044.000000	0.003908  
3043.000000	0.003795  
3042.000000	0.003676  
3041.000000	0.003633  
3040.000000	0.003712  
3039.000000	0.003894  
3038.000000	0.004103  
3037.000000	0.004253  
3036.000000	0.004295  
3035.000000	0.004241  
3034.000000	0.004145  
3033.000000	0.004073  
3032.000000	0.004080  
3031.000000	0.004196  
3030.000000	0.004407  
3029.000000	0.004635  
3028.000000	0.004783  
3027.000000	0.004820  
3026.000000	0.004816  
3025.000000	0.004892  
3024.000000	0.005109  
3023.000000	0.005428  
3022.000000	0.005737  
3021.000000	0.005915  
3020.000000	0.005904  
3019.000000	0.005762  
3018.000000	0.005633  
3017.000000	0.005635  
3016.000000	0.005771  
3015.000000	0.005956  
3014.000000	0.006115  
3013.000000	0.006226  
3012.000000	0.006294  
3011.000000	0.006336  
3010.000000	0.006393  
3009.000000	0.006518  
3008.000000	0.006731  
3007.000000	0.007004  
3006.000000	0.007275  
3005.000000	0.007472  
3004.000000	0.007544  
3003.000000	0.007497  
3002.000000	0.007426  
3001.000000	0.007473  
3000.000000	0.007719  
2999.000000	0.008117  
2998.000000	0.008529  
2997.000000	0.008830  
2996.000000	0.008983  
2995.000000	0.009046  
2994.000000	0.009139  
2993.000000	0.009369  
2992.000000	0.009777  
2991.000000	0.010325  
2990.000000	0.010938  
2989.000000	0.011552  
2988.000000	0.012152  
2987.000000	0.012775  
2986.000000	0.013487  
2985.000000	0.014340  
2984.000000	0.015333  
2983.000000	0.016436  
2982.000000	0.017645  
2981.000000	0.018996  
2980.000000	0.020528  
2979.000000	0.022245  
2978.000000	0.024153  
2977.000000	0.026303  
2976.000000	0.028791  
2975.000000	0.031695  
2974.000000	0.035029  
2973.000000	0.038735  
2972.000000	0.042724  
2971.000000	0.046955  
2970.000000	0.051475  
2969.000000	0.056399  
2968.000000	0.061790  
2967.000000	0.067550  
2966.000000	0.073436  
2965.000000	0.079206  
2964.000000	0.084753  
2963.000000	0.090092  
2962.000000	0.095257  
2961.000000	0.100225  
2960.000000	0.104924  
2959.000000	0.109244  
2958.000000	0.113029  
2957.000000	0.116105  
2956.000000	0.118339  
2955.000000	0.119661  
2954.000000	0.120033  
2953.000000	0.119457  
2952.000000	0.118018  
2951.000000	0.115905  
2950.000000	0.113359  
2949.000000	0.110626  
2948.000000	0.107933  
2947.000000	0.105504  
2946.000000	0.103550  
2945.000000	0.102263  
2944.000000	0.101800  
2943.000000	0.102281  
2942.000000	0.103763  
2941.000000	0.106229  
2940.000000	0.109603  
2939.000000	0.113792  
2938.000000	0.118727  
2937.000000	0.124362  
2936.000000	0.130628  
2935.000000	0.137391  
2934.000000	0.144480  
2933.000000	0.151799  
2932.000000	0.159380  
2931.000000	0.167274  
2930.000000	0.175398  
2929.000000	0.183514  
2928.000000	0.191345  
2927.000000	0.198655  
2926.000000	0.205196  
2925.000000	0.210689  
2924.000000	0.214889  
2923.000000	0.217622  
2922.000000	0.218774  
2921.000000	0.218328  
2920.000000	0.216456  
2919.000000	0.213466  
2918.000000	0.209617  
2917.000000	0.205045  
2916.000000	0.199886  
2915.000000	0.194374  
2914.000000	0.188767  
2913.000000	0.183222  
2912.000000	0.177798  
2911.000000	0.172563  
2910.000000	0.167620  
2909.000000	0.163006  
2908.000000	0.158618  
2907.000000	0.154281  
2906.000000	0.149888  
2905.000000	0.145492  
2904.000000	0.141236  
2903.000000	0.137215  
2902.000000	0.133396  
2901.000000	0.129659  
2900.000000	0.125892  
2899.000000	0.122046  
2898.000000	0.118147  
2897.000000	0.114277  
2896.000000	0.110549  
2895.000000	0.107043  
2894.000000	0.103735  
2893.000000	0.100495  
2892.000000	0.097189  
2891.000000	0.093786  
2890.000000	0.090394  
2889.000000	0.087189  
2888.000000	0.084323  
2887.000000	0.081868  
2886.000000	0.079825  
2885.000000	0.078170  
2884.000000	0.076909  
2883.000000	0.076093  
2882.000000	0.075791  
2881.000000	0.076063  
2880.000000	0.076964  
2879.000000	0.078578  
2878.000000	0.080980  
2877.000000	0.084114  
2876.000000	0.087724  
2875.000000	0.091409  
2874.000000	0.094779  
2873.000000	0.097551  
2872.000000	0.099557  
2871.000000	0.100741  
2870.000000	0.101203  
2869.000000	0.101215  
2868.000000	0.101134  
2867.000000	0.101263  
2866.000000	0.101788  
2865.000000	0.102840  
2864.000000	0.104536  
2863.000000	0.106932  
2862.000000	0.109977  
2861.000000	0.113571  
2860.000000	0.117645  
2859.000000	0.122140  
2858.000000	0.126877  
2857.000000	0.131481  
2856.000000	0.135471  
2855.000000	0.138367  
2854.000000	0.139757  
2853.000000	0.139359  
2852.000000	0.137108  
2851.000000	0.133189  
2850.000000	0.127952  
2849.000000	0.121773  
2848.000000	0.114985  
2847.000000	0.107877  
2846.000000	0.100710  
2845.000000	0.093676  
2844.000000	0.086844  
2843.000000	0.080179  
2842.000000	0.073642  
2841.000000	0.067276  
2840.000000	0.061205  
2839.000000	0.055576  
2838.000000	0.050489  
2837.000000	0.045974  
2836.000000	0.041975  
2835.000000	0.038378  
2834.000000	0.035081  
2833.000000	0.032055  
2832.000000	0.029345  
2831.000000	0.027009  
2830.000000	0.025051  
2829.000000	0.023409  
2828.000000	0.021981  
2827.000000	0.020675  
2826.000000	0.019453  
2825.000000	0.018327  
2824.000000	0.017330  
2823.000000	0.016467  
2822.000000	0.015722  
2821.000000	0.015076  
2820.000000	0.014520  
2819.000000	0.014039  
2818.000000	0.013597  
2817.000000	0.013150  
2816.000000	0.012674  
2815.000000	0.012173  
2814.000000	0.011667  
2813.000000	0.011174  
2812.000000	0.010710  
2811.000000	0.010287  
2810.000000	0.009928  
2809.000000	0.009653  
2808.000000	0.009461  
2807.000000	0.009329  
2806.000000	0.009218  
2805.000000	0.009085  
2804.000000	0.008894  
2803.000000	0.008633  
2802.000000	0.008332  
2801.000000	0.008061  
2800.000000	0.007876  
2799.000000	0.007772  
2798.000000	0.007692  
2797.000000	0.007589  
2796.000000	0.007475  
2795.000000	0.007380  
2794.000000	0.007276  
2793.000000	0.007074  
2792.000000	0.006721  
2791.000000	0.006285  
2790.000000	0.005922  
2789.000000	0.005750  
2788.000000	0.005753  
2787.000000	0.005820  
2786.000000	0.005849  
2785.000000	0.005793  
2784.000000	0.005657  
2783.000000	0.005472  
2782.000000	0.005291  
2781.000000	0.005174  
2780.000000	0.005142  
2779.000000	0.005163  
2778.000000	0.005161  
2777.000000	0.005066  
2776.000000	0.004855  
2775.000000	0.004583  
2774.000000	0.004360  
2773.000000	0.004279  
2772.000000	0.004336  
2771.000000	0.004442  
2770.000000	0.004497  
2769.000000	0.004470  
2768.000000	0.004383  
2767.000000	0.004270  
2766.000000	0.004154  
2765.000000	0.004065  
2764.000000	0.004034  
2763.000000	0.004059  
2762.000000	0.004096  
2761.000000	0.004097  
2760.000000	0.004048  
2759.000000	0.003979  
2758.000000	0.003928  
2757.000000	0.003910  
2756.000000	0.003922  
2755.000000	0.003953  
2754.000000	0.003989  
2753.000000	0.004010  
2752.000000	0.004001  
2751.000000	0.003975  
2750.000000	0.003975  
2749.000000	0.004025  
2748.000000	0.004092  
2747.000000	0.004097  
2746.000000	0.004006  
2745.000000	0.003878  
2744.000000	0.003814  
2743.000000	0.003850  
2742.000000	0.003932  
2741.000000	0.003994  
2740.000000	0.004031  
2739.000000	0.004080  
2738.000000	0.004159  
2737.000000	0.004253  
2736.000000	0.004349  
2735.000000	0.004458  
2734.000000	0.004580  
2733.000000	0.004682  
2732.000000	0.004725  
2731.000000	0.004709  
2730.000000	0.004683  
2729.000000	0.004698  
2728.000000	0.004762  
2727.000000	0.004819  
2726.000000	0.004794  
2725.000000	0.004667  
2724.000000	0.004502  
2723.000000	0.004398  
2722.000000	0.004402  
2721.000000	0.004481  
2720.000000	0.004570  
2719.000000	0.004632  
2718.000000	0.004660  
2717.000000	0.004646  
2716.000000	0.004583  
2715.000000	0.004479  
2714.000000	0.004345  
2713.000000	0.004176  
2712.000000	0.003974  
2711.000000	0.003780  
2710.000000	0.003657  
2709.000000	0.003633  
2708.000000	0.003675  
2707.000000	0.003725  
2706.000000	0.003749  
2705.000000	0.003733  
2704.000000	0.003670  
2703.000000	0.003564  
2702.000000	0.003442  
2701.000000	0.003329  
2700.000000	0.003227  
2699.000000	0.003141  
2698.000000	0.003114  
2697.000000	0.003194  
2696.000000	0.003369  
2695.000000	0.003554  
2694.000000	0.003658  
2693.000000	0.003663  
2692.000000	0.003614  
2691.000000	0.003565  
2690.000000	0.003563  
2689.000000	0.003637  
2688.000000	0.003787  
2687.000000	0.003954  
2686.000000	0.004050  
2685.000000	0.004036  
2684.000000	0.003968  
2683.000000	0.003937  
2682.000000	0.003984  
2681.000000	0.004072  
2680.000000	0.004140  
2679.000000	0.004158  
2678.000000	0.004148  
2677.000000	0.004158  
2676.000000	0.004229  
2675.000000	0.004358  
2674.000000	0.004484  
2673.000000	0.004534  
2672.000000	0.004482  
2671.000000	0.004373  
2670.000000	0.004269  
2669.000000	0.004204  
2668.000000	0.004185  
2667.000000	0.004216  
2666.000000	0.004291  
2665.000000	0.004373  
2664.000000	0.004406  
2663.000000	0.004352  
2662.000000	0.004213  
2661.000000	0.004025  
2660.000000	0.003852  
2659.000000	0.003752  
2658.000000	0.003728  
2657.000000	0.003732  
2656.000000	0.003719  
2655.000000	0.003696  
2654.000000	0.003684  
2653.000000	0.003666  
2652.000000	0.003616  
2651.000000	0.003556  
2650.000000	0.003546  
2649.000000	0.003607  
2648.000000	0.003685  
2647.000000	0.003711  
2646.000000	0.003663  
2645.000000	0.003571  
2644.000000	0.003491  
2643.000000	0.003488  
2642.000000	0.003592  
2641.000000	0.003750  
2640.000000	0.003854  
2639.000000	0.003825  
2638.000000	0.003668  
2637.000000	0.003435  
2636.000000	0.003202  
2635.000000	0.003064  
2634.000000	0.003100  
2633.000000	0.003291  
2632.000000	0.003507  
2631.000000	0.003619  
2630.000000	0.003605  
2629.000000	0.003524  
2628.000000	0.003438  
2627.000000	0.003394  
2626.000000	0.003428  
2625.000000	0.003511  
2624.000000	0.003532  
2623.000000	0.003402  
2622.000000	0.003167  
2621.000000	0.002959  
2620.000000	0.002843  
2619.000000	0.002788  
2618.000000	0.002769  
2617.000000	0.002826  
2616.000000	0.002972  
2615.000000	0.003140  
2614.000000	0.003249  
2613.000000	0.003294  
2612.000000	0.003321  
2611.000000	0.003355  
2610.000000	0.003387  
2609.000000	0.003411  
2608.000000	0.003437  
2607.000000	0.003469  
2606.000000	0.003497  
2605.000000	0.003508  
2604.000000	0.003486  
2603.000000	0.003422  
2602.000000	0.003338  
2601.000000	0.003294  
2600.000000	0.003321  
2599.000000	0.003369  
2598.000000	0.003339  
2597.000000	0.003197  
2596.000000	0.003014  
2595.000000	0.002882  
2594.000000	0.002802  
2593.000000	0.002689  
2592.000000	0.002488  
2591.000000	0.002265  
2590.000000	0.002147  
2589.000000	0.002179  
2588.000000	0.002287  
2587.000000	0.002384  
2586.000000	0.002466  
2585.000000	0.002562  
2584.000000	0.002634  
2583.000000	0.002586  
2582.000000	0.002397  
2581.000000	0.002169  
2580.000000	0.002037  
2579.000000	0.002053  
2578.000000	0.002172  
2577.000000	0.002308  
2576.000000	0.002392  
2575.000000	0.002386  
2574.000000	0.002319  
2573.000000	0.002265  
2572.000000	0.002277  
2571.000000	0.002317  
2570.000000	0.002295  
2569.000000	0.002175  
2568.000000	0.002015  
2567.000000	0.001890  
2566.000000	0.001823  
2565.000000	0.001790  
2564.000000	0.001778  
2563.000000	0.001798  
2562.000000	0.001845  
2561.000000	0.001887  
2560.000000	0.001890  
2559.000000	0.001859  
2558.000000	0.001841  
2557.000000	0.001880  
2556.000000	0.001963  
2555.000000	0.002014  
2554.000000	0.001965  
2553.000000	0.001848  
2552.000000	0.001814  
2551.000000	0.001993  
2550.000000	0.002344  
2549.000000	0.002660  
2548.000000	0.002750  
2547.000000	0.002587  
2546.000000	0.002274  
2545.000000	0.001924  
2544.000000	0.001616  
2543.000000	0.001421  
2542.000000	0.001377  
2541.000000	0.001432  
2540.000000	0.001481  
2539.000000	0.001499  
2538.000000	0.001574  
2537.000000	0.001777  
2536.000000	0.002029  
2535.000000	0.002166  
2534.000000	0.002104  
2533.000000	0.001915  
2532.000000	0.001737  
2531.000000	0.001634  
2530.000000	0.001567  
2529.000000	0.001470  
2528.000000	0.001357  
2527.000000	0.001323  
2526.000000	0.001454  
2525.000000	0.001719  
2524.000000	0.001993  
2523.000000	0.002160  
2522.000000	0.002172  
2521.000000	0.002029  
2520.000000	0.001765  
2519.000000	0.001491  
2518.000000	0.001367  
2517.000000	0.001480  
2516.000000	0.001744  
2515.000000	0.001991  
2514.000000	0.002126  
2513.000000	0.002170  
2512.000000	0.002165  
2511.000000	0.002111  
2510.000000	0.001991  
2509.000000	0.001826  
2508.000000	0.001681  
2507.000000	0.001632  
2506.000000	0.001720  
2505.000000	0.001899  
2504.000000	0.002035  
2503.000000	0.002013  
2502.000000	0.001868  
2501.000000	0.001771  
2500.000000	0.001848  
2499.000000	0.002031  
2498.000000	0.002106  
2497.000000	0.001907  
2496.000000	0.001457  
2495.000000	0.000948  
2494.000000	0.000614  
2493.000000	0.000586  
2492.000000	0.000845  
2491.000000	0.001249  
2490.000000	0.001625  
2489.000000	0.001855  
2488.000000	0.001913  
2487.000000	0.001844  
2486.000000	0.001697  
2485.000000	0.001493  
2484.000000	0.001255  
2483.000000	0.001065  
2482.000000	0.001037  
2481.000000	0.001229  
2480.000000	0.001568  
2479.000000	0.001894  
2478.000000	0.002069  
2477.000000	0.002054  
2476.000000	0.001911  
2475.000000	0.001741  
2474.000000	0.001620  
2473.000000	0.001559  
2472.000000	0.001534  
2471.000000	0.001520  
2470.000000	0.001489  
2469.000000	0.001402  
2468.000000	0.001273  
2467.000000	0.001201  
2466.000000	0.001293  
2465.000000	0.001512  
2464.000000	0.001677  
2463.000000	0.001660  
2462.000000	0.001509  
2461.000000	0.001363  
2460.000000	0.001291  
2459.000000	0.001297  
2458.000000	0.001399  
2457.000000	0.001596  
2456.000000	0.001782  
2455.000000	0.001809  
2454.000000	0.001662  
2453.000000	0.001480  
2452.000000	0.001375  
2451.000000	0.001312  
2450.000000	0.001217  
2449.000000	0.001129  
2448.000000	0.001166  
2447.000000	0.001366  
2446.000000	0.001620  
2445.000000	0.001778  
2444.000000	0.001779  
2443.000000	0.001687  
2442.000000	0.001610  
2441.000000	0.001606  
2440.000000	0.001628  
2439.000000	0.001584  
2438.000000	0.001445  
2437.000000	0.001281  
2436.000000	0.001174  
2435.000000	0.001133  
2434.000000	0.001109  
2433.000000	0.001083  
2432.000000	0.001084  
2431.000000	0.001147  
2430.000000	0.001262  
2429.000000	0.001387  
2428.000000	0.001483  
2427.000000	0.001542  
2426.000000	0.001582  
2425.000000	0.001617  
2424.000000	0.001642  
2423.000000	0.001637  
2422.000000	0.001602  
2421.000000	0.001572  
2420.000000	0.001593  
2419.000000	0.001675  
2418.000000	0.001777  
2417.000000	0.001837  
2416.000000	0.001817  
2415.000000	0.001730  
2414.000000	0.001635  
2413.000000	0.001591  
2412.000000	0.001620  
2411.000000	0.001690  
2410.000000	0.001765  
2409.000000	0.001829  
2408.000000	0.001885  
2407.000000	0.001907  
2406.000000	0.001835  
2405.000000	0.001637  
2404.000000	0.001371  
2403.000000	0.001155  
2402.000000	0.001065  
2401.000000	0.001078  
2400.000000	0.001122  
2399.000000	0.001179  
2398.000000	0.001285  
2397.000000	0.001463  
2396.000000	0.001675  
2395.000000	0.001868  
2394.000000	0.002027  
2393.000000	0.002165  
2392.000000	0.002281  
2391.000000	0.002342  
2390.000000	0.002303  
2389.000000	0.002142  
2388.000000	0.001908  
2387.000000	0.001739  
2386.000000	0.001783  
2385.000000	0.002055  
2384.000000	0.002395  
2383.000000	0.002612  
2382.000000	0.002668  
2381.000000	0.002708  
2380.000000	0.002894  
2379.000000	0.003227  
2378.000000	0.003527  
2377.000000	0.003573  
2376.000000	0.003288  
2375.000000	0.002833  
2374.000000	0.002520  
2373.000000	0.002560  
2372.000000	0.002890  
2371.000000	0.003270  
2370.000000	0.003510  
2369.000000	0.003560  
2368.000000	0.003445  
2367.000000	0.003246  
2366.000000	0.003110  
2365.000000	0.003115  
2364.000000	0.003109  
2363.000000	0.002884  
2362.000000	0.002558  
2361.000000	0.002536  
2360.000000	0.002986  
2359.000000	0.003615  
2358.000000	0.004019  
2357.000000	0.003981  
2356.000000	0.003530  
2355.000000	0.002833  
2354.000000	0.002178  
2353.000000	0.001861  
2352.000000	0.001959  
2351.000000	0.002323  
2350.000000	0.002701  
2349.000000	0.002950  
2348.000000	0.003074  
2347.000000	0.003147  
2346.000000	0.003342  
2345.000000	0.003723  
2344.000000	0.004078  
2343.000000	0.004009  
2342.000000	0.003478  
2341.000000	0.002978  
2340.000000	0.002924  
2339.000000	0.003208  
2338.000000	0.003301  
2337.000000	0.002912  
2336.000000	0.002252  
2335.000000	0.001749  
2334.000000	0.001612  
2333.000000	0.001828  
2332.000000	0.002233  
2331.000000	0.002639  
2330.000000	0.002802  
2329.000000	0.002666  
2328.000000	0.002405  
2327.000000	0.002247  
2326.000000	0.002300  
2325.000000	0.002412  
2324.000000	0.002389  
2323.000000	0.002111  
2322.000000	0.001677  
2321.000000	0.001351  
2320.000000	0.001329  
2319.000000	0.001627  
2318.000000	0.001997  
2317.000000	0.002161  
2316.000000	0.001950  
2315.000000	0.001469  
2314.000000	0.000980  
2313.000000	0.000732  
2312.000000	0.000763  
2311.000000	0.000969  
2310.000000	0.001259  
2309.000000	0.001630  
2308.000000	0.002047  
2307.000000	0.002371  
2306.000000	0.002436  
2305.000000	0.002212  
2304.000000	0.001843  
2303.000000	0.001527  
2302.000000	0.001353  
2301.000000	0.001277  
2300.000000	0.001214  
2299.000000	0.001173  
2298.000000	0.001249  
2297.000000	0.001483  
2296.000000	0.001763  
2295.000000	0.001924  
2294.000000	0.001926  
2293.000000	0.001878  
2292.000000	0.001873  
2291.000000	0.001874  
2290.000000	0.001806  
2289.000000	0.001672  
2288.000000	0.001526  
2287.000000	0.001362  
2286.000000	0.001153  
2285.000000	0.000952  
2284.000000	0.000866  
2283.000000	0.000903  
2282.000000	0.000947  
2281.000000	0.000931  
2280.000000	0.000963  
2279.000000	0.001190  
2278.000000	0.001574  
2277.000000	0.001905  
2276.000000	0.002039  
2275.000000	0.002077  
2274.000000	0.002226  
2273.000000	0.002538  
2272.000000	0.002836  
2271.000000	0.002919  
2270.000000	0.002767  
2269.000000	0.002514  
2268.000000	0.002245  
2267.000000	0.001930  
2266.000000	0.001559  
2265.000000	0.001267  
2264.000000	0.001229  
2263.000000	0.001452  
2262.000000	0.001746  
2261.000000	0.001900  
2260.000000	0.001843  
2259.000000	0.001656  
2258.000000	0.001490  
2257.000000	0.001487  
2256.000000	0.001692  
2255.000000	0.002002  
2254.000000	0.002238  
2253.000000	0.002310  
2252.000000	0.002279  
2251.000000	0.002250  
2250.000000	0.002225  
2249.000000	0.002113  
2248.000000	0.001829  
2247.000000	0.001390  
2246.000000	0.000919  
2245.000000	0.000590  
2244.000000	0.000525  
2243.000000	0.000711  
2242.000000	0.001018  
2241.000000	0.001317  
2240.000000	0.001561  
2239.000000	0.001728  
2238.000000	0.001778  
2237.000000	0.001684  
2236.000000	0.001500  
2235.000000	0.001314  
2234.000000	0.001169  
2233.000000	0.001057  
2232.000000	0.000982  
2231.000000	0.000968  
2230.000000	0.001009  
2229.000000	0.001048  
2228.000000	0.001033  
2227.000000	0.000959  
2226.000000	0.000847  
2225.000000	0.000706  
2224.000000	0.000523  
2223.000000	0.000295  
2222.000000	0.000076  
2221.000000	-0.000004 
2220.000000	0.000164  
2219.000000	0.000532  
2218.000000	0.000884  
2217.000000	0.001069  
2216.000000	0.001182  
2215.000000	0.001429  
2214.000000	0.001813  
2213.000000	0.002094  
2212.000000	0.002109  
2211.000000	0.001976  
2210.000000	0.001885  
2209.000000	0.001782  
2208.000000	0.001462  
2207.000000	0.000942  
2206.000000	0.000554  
2205.000000	0.000615  
2204.000000	0.001086  
2203.000000	0.001680  
2202.000000	0.002209  
2201.000000	0.002697  
2200.000000	0.003191  
2199.000000	0.003604  
2198.000000	0.003788  
2197.000000	0.003696  
2196.000000	0.003410  
2195.000000	0.003026  
2194.000000	0.002583  
2193.000000	0.002090  
2192.000000	0.001555  
2191.000000	0.000968  
2190.000000	0.000357  
2189.000000	-0.000124 
2188.000000	-0.000238 
2187.000000	0.000095  
2186.000000	0.000619  
2185.000000	0.000916  
2184.000000	0.000829  
2183.000000	0.000651  
2182.000000	0.000809  
2181.000000	0.001393  
2180.000000	0.002060  
2179.000000	0.002384  
2178.000000	0.002230  
2177.000000	0.001824  
2176.000000	0.001506  
2175.000000	0.001412  
2174.000000	0.001389  
2173.000000	0.001229  
2172.000000	0.000983  
2171.000000	0.000945  
2170.000000	0.001290  
2169.000000	0.001790  
2168.000000	0.002022  
2167.000000	0.001874  
2166.000000	0.001687  
2165.000000	0.001843  
2164.000000	0.002273  
2163.000000	0.002524  
2162.000000	0.002273  
2161.000000	0.001690  
2160.000000	0.001255  
2159.000000	0.001257  
2158.000000	0.001572  
2157.000000	0.001907  
2156.000000	0.002104  
2155.000000	0.002175  
2154.000000	0.002171  
2153.000000	0.002150  
2152.000000	0.002181  
2151.000000	0.002247  
2150.000000	0.002177  
2149.000000	0.001797  
2148.000000	0.001198  
2147.000000	0.000750  
2146.000000	0.000776  
2145.000000	0.001261  
2144.000000	0.001911  
2143.000000	0.002419  
2142.000000	0.002594  
2141.000000	0.002344  
2140.000000	0.001734  
2139.000000	0.001048  
2138.000000	0.000660  
2137.000000	0.000739  
2136.000000	0.001100  
2135.000000	0.001389  
2134.000000	0.001407  
2133.000000	0.001235  
2132.000000	0.001111  
2131.000000	0.001195  
2130.000000	0.001448  
2129.000000	0.001691  
2128.000000	0.001780  
2127.000000	0.001709  
2126.000000	0.001549  
2125.000000	0.001348  
2124.000000	0.001163  
2123.000000	0.001119  
2122.000000	0.001333  
2121.000000	0.001746  
2120.000000	0.002103  
2119.000000	0.002178  
2118.000000	0.001980  
2117.000000	0.001745  
2116.000000	0.001728  
2115.000000	0.001996  
2114.000000	0.002346  
2113.000000	0.002446  
2112.000000	0.002128  
2111.000000	0.001598  
2110.000000	0.001270  
2109.000000	0.001362  
2108.000000	0.001691  
2107.000000	0.001911  
2106.000000	0.001857  
2105.000000	0.001599  
2104.000000	0.001278  
2103.000000	0.000991  
2102.000000	0.000806  
2101.000000	0.000739  
2100.000000	0.000688  
2099.000000	0.000528  
2098.000000	0.000278  
2097.000000	0.000121  
2096.000000	0.000203  
2095.000000	0.000469  
2094.000000	0.000742  
2093.000000	0.000908  
2092.000000	0.000976  
2091.000000	0.001000  
2090.000000	0.001002  
2089.000000	0.000998  
2088.000000	0.001056  
2087.000000	0.001290  
2086.000000	0.001719  
2085.000000	0.002157  
2084.000000	0.002313  
2083.000000	0.002050  
2082.000000	0.001544  
2081.000000	0.001139  
2080.000000	0.001050  
2079.000000	0.001221  
2078.000000	0.001426  
2077.000000	0.001460  
2076.000000	0.001289  
2075.000000	0.001083  
2074.000000	0.001082  
2073.000000	0.001356  
2072.000000	0.001705  
2071.000000	0.001875  
2070.000000	0.001830  
2069.000000	0.001739  
2068.000000	0.001711  
2067.000000	0.001691  
2066.000000	0.001623  
2065.000000	0.001579  
2064.000000	0.001627  
2063.000000	0.001689  
2062.000000	0.001641  
2061.000000	0.001465  
2060.000000	0.001237  
2059.000000	0.001030  
2058.000000	0.000895  
2057.000000	0.000880  
2056.000000	0.000931  
2055.000000	0.000871  
2054.000000	0.000589  
2053.000000	0.000243  
2052.000000	0.000126  
2051.000000	0.000334  
2050.000000	0.000710  
2049.000000	0.001115  
2048.000000	0.001569  
2047.000000	0.002021  
2046.000000	0.002167  
2045.000000	0.001743  
2044.000000	0.000950  
2043.000000	0.000347  
2042.000000	0.000304  
2041.000000	0.000701  
2040.000000	0.001207  
2039.000000	0.001662  
2038.000000	0.002053  
2037.000000	0.002270  
2036.000000	0.002161  
2035.000000	0.001818  
2034.000000	0.001610  
2033.000000	0.001810  
2032.000000	0.002271  
2031.000000	0.002557  
2030.000000	0.002333  
2029.000000	0.001606  
2028.000000	0.000673  
2027.000000	-0.000109 
2026.000000	-0.000541 
2025.000000	-0.000668 
2024.000000	-0.000660 
2023.000000	-0.000572 
2022.000000	-0.000282 
2021.000000	0.000261  
2020.000000	0.000839  
2019.000000	0.001131  
2018.000000	0.001043  
2017.000000	0.000752  
2016.000000	0.000447  
2015.000000	0.000185  
2014.000000	0.000046  
2013.000000	0.000200  
2012.000000	0.000634  
2011.000000	0.000976  
2010.000000	0.000805  
2009.000000	0.000148  
2008.000000	-0.000484 
2007.000000	-0.000642 
2006.000000	-0.000337 
2005.000000	0.000125  
2004.000000	0.000537  
2003.000000	0.000911  
2002.000000	0.001321  
2001.000000	0.001762  
2000.000000	0.002109  
1999.000000	0.002140  
1998.000000	0.001704  
1997.000000	0.000963  
1996.000000	0.000389  
1995.000000	0.000357  
1994.000000	0.000764  
1993.000000	0.001155  
1992.000000	0.001214  
1991.000000	0.001040  
1990.000000	0.000883  
1989.000000	0.000861  
1988.000000	0.000986  
1987.000000	0.001280  
1986.000000	0.001707  
1985.000000	0.002118  
1984.000000	0.002403  
1983.000000	0.002581  
1982.000000	0.002662  
1981.000000	0.002540  
1980.000000	0.002180  
1979.000000	0.001775  
1978.000000	0.001522  
1977.000000	0.001320  
1976.000000	0.000954  
1975.000000	0.000514  
1974.000000	0.000296  
1973.000000	0.000358  
1972.000000	0.000459  
1971.000000	0.000464  
1970.000000	0.000500  
1969.000000	0.000642  
1968.000000	0.000712  
1967.000000	0.000562  
1966.000000	0.000364  
1965.000000	0.000395  
1964.000000	0.000681  
1963.000000	0.001038  
1962.000000	0.001312  
1961.000000	0.001467  
1960.000000	0.001525  
1959.000000	0.001544  
1958.000000	0.001577  
1957.000000	0.001556  
1956.000000	0.001297  
1955.000000	0.000731  
1954.000000	0.000089  
1953.000000	-0.000257 
1952.000000	-0.000129 
1951.000000	0.000374  
1950.000000	0.001018  
1949.000000	0.001545  
1948.000000	0.001757  
1947.000000	0.001641  
1946.000000	0.001420  
1945.000000	0.001358  
1944.000000	0.001489  
1943.000000	0.001623  
1942.000000	0.001613  
1941.000000	0.001511  
1940.000000	0.001400  
1939.000000	0.001281  
1938.000000	0.001181  
1937.000000	0.001216  
1936.000000	0.001461  
1935.000000	0.001817  
1934.000000	0.002113  
1933.000000	0.002290  
1932.000000	0.002392  
1931.000000	0.002429  
1930.000000	0.002326  
1929.000000	0.002044  
1928.000000	0.001678  
1927.000000	0.001375  
1926.000000	0.001215  
1925.000000	0.001172  
1924.000000	0.001174  
1923.000000	0.001182  
1922.000000	0.001216  
1921.000000	0.001316  
1920.000000	0.001477  
1919.000000	0.001628  
1918.000000	0.001697  
1917.000000	0.001709  
1916.000000	0.001753  
1915.000000	0.001822  
1914.000000	0.001802  
1913.000000	0.001629  
1912.000000	0.001398  
1911.000000	0.001268  
1910.000000	0.001282  
1909.000000	0.001345  
1908.000000	0.001379  
1907.000000	0.001389  
1906.000000	0.001374  
1905.000000	0.001292  
1904.000000	0.001145  
1903.000000	0.001062  
1902.000000	0.001156  
1901.000000	0.001372  
1900.000000	0.001542  
1899.000000	0.001571  
1898.000000	0.001523  
1897.000000	0.001519  
1896.000000	0.001611  
1895.000000	0.001766  
1894.000000	0.001921  
1893.000000	0.002043  
1892.000000	0.002135  
1891.000000	0.002214  
1890.000000	0.002259  
1889.000000	0.002216  
1888.000000	0.002058  
1887.000000	0.001830  
1886.000000	0.001630  
1885.000000	0.001540  
1884.000000	0.001568  
1883.000000	0.001640  
1882.000000	0.001659  
1881.000000	0.001576  
1880.000000	0.001422  
1879.000000	0.001270  
1878.000000	0.001187  
1877.000000	0.001216  
1876.000000	0.001372  
1875.000000	0.001624  
1874.000000	0.001888  
1873.000000	0.002048  
1872.000000	0.002045  
1871.000000	0.001917  
1870.000000	0.001739  
1869.000000	0.001570  
1868.000000	0.001467  
1867.000000	0.001475  
1866.000000	0.001569  
1865.000000	0.001672  
1864.000000	0.001724  
1863.000000	0.001729  
1862.000000	0.001718  
1861.000000	0.001692  
1860.000000	0.001639  
1859.000000	0.001597  
1858.000000	0.001628  
1857.000000	0.001729  
1856.000000	0.001800  
1855.000000	0.001747  
1854.000000	0.001577  
1853.000000	0.001402  
1852.000000	0.001356  
1851.000000	0.001469  
1850.000000	0.001637  
1849.000000	0.001716  
1848.000000	0.001650  
1847.000000	0.001529  
1846.000000	0.001501  
1845.000000	0.001609  
1844.000000	0.001723  
1843.000000	0.001720  
1842.000000	0.001601  
1841.000000	0.001425  
1840.000000	0.001276  
1839.000000	0.001240  
1838.000000	0.001332  
1837.000000	0.001467  
1836.000000	0.001538  
1835.000000	0.001545  
1834.000000	0.001545  
1833.000000	0.001538  
1832.000000	0.001472  
1831.000000	0.001350  
1830.000000	0.001298  
1829.000000	0.001426  
1828.000000	0.001654  
1827.000000	0.001840  
1826.000000	0.001938  
1825.000000	0.001944  
1824.000000	0.001876  
1823.000000	0.001803  
1822.000000	0.001787  
1821.000000	0.001788  
1820.000000	0.001683  
1819.000000	0.001444  
1818.000000	0.001234  
1817.000000	0.001229  
1816.000000	0.001390  
1815.000000	0.001543  
1814.000000	0.001585  
1813.000000	0.001552  
1812.000000	0.001506  
1811.000000	0.001484  
1810.000000	0.001526  
1809.000000	0.001639  
1808.000000	0.001769  
1807.000000	0.001837  
1806.000000	0.001824  
1805.000000	0.001786  
1804.000000	0.001792  
1803.000000	0.001859  
1802.000000	0.001948  
1801.000000	0.002026  
1800.000000	0.002079  
1799.000000	0.002110  
1798.000000	0.002138  
1797.000000	0.002168  
1796.000000	0.002189  
1795.000000	0.002174  
1794.000000	0.002117  
1793.000000	0.002030  
1792.000000	0.001903  
1791.000000	0.001737  
1790.000000	0.001569  
1789.000000	0.001456  
1788.000000	0.001452  
1787.000000	0.001547  
1786.000000	0.001667  
1785.000000	0.001730  
1784.000000	0.001699  
1783.000000	0.001605  
1782.000000	0.001501  
1781.000000	0.001475  
1780.000000	0.001565  
1779.000000	0.001716  
1778.000000	0.001858  
1777.000000	0.001941  
1776.000000	0.001938  
1775.000000	0.001823  
1774.000000	0.001641  
1773.000000	0.001511  
1772.000000	0.001492  
1771.000000	0.001495  
1770.000000	0.001407  
1769.000000	0.001260  
1768.000000	0.001187  
1767.000000	0.001236  
1766.000000	0.001334  
1765.000000	0.001401  
1764.000000	0.001439  
1763.000000	0.001500  
1762.000000	0.001598  
1761.000000	0.001701  
1760.000000	0.001765  
1759.000000	0.001766  
1758.000000	0.001713  
1757.000000	0.001627  
1756.000000	0.001552  
1755.000000	0.001493  
1754.000000	0.001443  
1753.000000	0.001437  
1752.000000	0.001520  
1751.000000	0.001658  
1750.000000	0.001775  
1749.000000	0.001821  
1748.000000	0.001820  
1747.000000	0.001830  
1746.000000	0.001866  
1745.000000	0.001908  
1744.000000	0.001912  
1743.000000	0.001857  
1742.000000	0.001762  
1741.000000	0.001638  
1740.000000	0.001484  
1739.000000	0.001336  
1738.000000	0.001205  
1737.000000	0.001027  
1736.000000	0.000826  
1735.000000	0.000739  
1734.000000	0.000856  
1733.000000	0.001140  
1732.000000	0.001412  
1731.000000	0.001528  
1730.000000	0.001558  
1729.000000	0.001606  
1728.000000	0.001691  
1727.000000	0.001755  
1726.000000	0.001773  
1725.000000	0.001766  
1724.000000	0.001752  
1723.000000	0.001759  
1722.000000	0.001807  
1721.000000	0.001860  
1720.000000	0.001882  
1719.000000	0.001871  
1718.000000	0.001835  
1717.000000	0.001806  
1716.000000	0.001819  
1715.000000	0.001842  
1714.000000	0.001854  
1713.000000	0.001849  
1712.000000	0.001805  
1711.000000	0.001719  
1710.000000	0.001626  
1709.000000	0.001595  
1708.000000	0.001662  
1707.000000	0.001806  
1706.000000	0.002001  
1705.000000	0.002222  
1704.000000	0.002414  
1703.000000	0.002504  
1702.000000	0.002503  
1701.000000	0.002404  
1700.000000	0.002187  
1699.000000	0.002057  
1698.000000	0.002042  
1697.000000	0.002000  
1696.000000	0.001969  
1695.000000	0.002023  
1694.000000	0.002102  
1693.000000	0.002070  
1692.000000	0.001950  
1691.000000	0.001882  
1690.000000	0.001939  
1689.000000	0.002064  
1688.000000	0.002150  
1687.000000	0.002147  
1686.000000	0.002146  
1685.000000	0.002217  
1684.000000	0.002298  
1683.000000	0.002362  
1682.000000	0.002330  
1681.000000	0.002225  
1680.000000	0.002184  
1679.000000	0.002173  
1678.000000	0.002078  
1677.000000	0.001852  
1676.000000	0.001599  
1675.000000	0.001514  
1674.000000	0.001691  
1673.000000	0.001996  
1672.000000	0.002242  
1671.000000	0.002384  
1670.000000	0.002440  
1669.000000	0.002414  
1668.000000	0.002333  
1667.000000	0.002235  
1666.000000	0.002189  
1665.000000	0.002231  
1664.000000	0.002326  
1663.000000	0.002395  
1662.000000	0.002385  
1661.000000	0.002334  
1660.000000	0.002292  
1659.000000	0.002288  
1658.000000	0.002330  
1657.000000	0.002359  
1656.000000	0.002263  
1655.000000	0.002050  
1654.000000	0.001856  
1653.000000	0.001838  
1652.000000	0.002148  
1651.000000	0.002550  
1650.000000	0.002729  
1649.000000	0.002760  
1648.000000	0.002765  
1647.000000	0.002711  
1646.000000	0.002542  
1645.000000	0.002328  
1644.000000	0.002130  
1643.000000	0.001984  
1642.000000	0.001909  
1641.000000	0.001945  
1640.000000	0.002064  
1639.000000	0.002151  
1638.000000	0.002168  
1637.000000	0.002174  
1636.000000	0.002185  
1635.000000	0.002159  
1634.000000	0.002125  
1633.000000	0.002110  
1632.000000	0.002116  
1631.000000	0.002144  
1630.000000	0.002181  
1629.000000	0.002235  
1628.000000	0.002309  
1627.000000	0.002394  
1626.000000	0.002471  
1625.000000	0.002548  
1624.000000	0.002622  
1623.000000	0.002667  
1622.000000	0.002697  
1621.000000	0.002742  
1620.000000	0.002788  
1619.000000	0.002823  
1618.000000	0.002896  
1617.000000	0.003066  
1616.000000	0.003333  
1615.000000	0.003572  
1614.000000	0.003656  
1613.000000	0.003626  
1612.000000	0.003617  
1611.000000	0.003707  
1610.000000	0.003882  
1609.000000	0.004067  
1608.000000	0.004168  
1607.000000	0.004121  
1606.000000	0.003954  
1605.000000	0.003773  
1604.000000	0.003651  
1603.000000	0.003574  
1602.000000	0.003516  
1601.000000	0.003455  
1600.000000	0.003361  
1599.000000	0.003216  
1598.000000	0.003051  
1597.000000	0.002934  
1596.000000	0.002901  
1595.000000	0.002926  
1594.000000	0.002960  
1593.000000	0.002985  
1592.000000	0.003025  
1591.000000	0.003106  
1590.000000	0.003215  
1589.000000	0.003297  
1588.000000	0.003301  
1587.000000	0.003222  
1586.000000	0.003111  
1585.000000	0.003021  
1584.000000	0.002966  
1583.000000	0.002922  
1582.000000	0.002900  
1581.000000	0.002939  
1580.000000	0.003009  
1579.000000	0.003028  
1578.000000	0.002974  
1577.000000	0.002883  
1576.000000	0.002818  
1575.000000	0.002859  
1574.000000	0.002962  
1573.000000	0.003039  
1572.000000	0.003088  
1571.000000	0.003102  
1570.000000	0.003036  
1569.000000	0.002920  
1568.000000	0.002836  
1567.000000	0.002787  
1566.000000	0.002761  
1565.000000	0.002750  
1564.000000	0.002714  
1563.000000	0.002628  
1562.000000	0.002519  
1561.000000	0.002517  
1560.000000	0.002662  
1559.000000	0.002615  
1558.000000	0.002447  
1557.000000	0.002431  
1556.000000	0.002492  
1555.000000	0.002644  
1554.000000	0.002840  
1553.000000	0.003029  
1552.000000	0.003119  
1551.000000	0.003060  
1550.000000	0.002945  
1549.000000	0.002874  
1548.000000	0.002881  
1547.000000	0.002939  
1546.000000	0.003045  
1545.000000	0.003174  
1544.000000	0.003243  
1543.000000	0.003218  
1542.000000	0.003213  
1541.000000	0.003312  
1540.000000	0.003388  
1539.000000	0.003412  
1538.000000	0.003502  
1537.000000	0.003631  
1536.000000	0.003709  
1535.000000	0.003711  
1534.000000	0.003643  
1533.000000	0.003536  
1532.000000	0.003421  
1531.000000	0.003328  
1530.000000	0.003314  
1529.000000	0.003383  
1528.000000	0.003477  
1527.000000	0.003565  
1526.000000	0.003686  
1525.000000	0.003859  
1524.000000	0.004012  
1523.000000	0.004109  
1522.000000	0.004230  
1521.000000	0.004431  
1520.000000	0.004618  
1519.000000	0.004680  
1518.000000	0.004668  
1517.000000	0.004674  
1516.000000	0.004700  
1515.000000	0.004734  
1514.000000	0.004829  
1513.000000	0.005051  
1512.000000	0.005344  
1511.000000	0.005597  
1510.000000	0.005793  
1509.000000	0.006033  
1508.000000	0.006410  
1507.000000	0.006778  
1506.000000	0.006995  
1505.000000	0.007139  
1504.000000	0.007258  
1503.000000	0.007310  
1502.000000	0.007306  
1501.000000	0.007321  
1500.000000	0.007360  
1499.000000	0.007424  
1498.000000	0.007682  
1497.000000	0.008224  
1496.000000	0.008762  
1495.000000	0.009023  
1494.000000	0.009108  
1493.000000	0.009199  
1492.000000	0.009311  
1491.000000	0.009391  
1490.000000	0.009533  
1489.000000	0.009862  
1488.000000	0.010251  
1487.000000	0.010558  
1486.000000	0.010843  
1485.000000	0.011211  
1484.000000	0.011699  
1483.000000	0.012316  
1482.000000	0.013147  
1481.000000	0.014189  
1480.000000	0.015285  
1479.000000	0.016391  
1478.000000	0.017728  
1477.000000	0.019474  
1476.000000	0.021508  
1475.000000	0.023856  
1474.000000	0.027266  
1473.000000	0.032643  
1472.000000	0.039483  
1471.000000	0.046362  
1470.000000	0.052761  
1469.000000	0.058736  
1468.000000	0.064086  
1467.000000	0.068602  
1466.000000	0.072426  
1465.000000	0.075729  
1464.000000	0.078315  
1463.000000	0.080109  
1462.000000	0.081459  
1461.000000	0.082663  
1460.000000	0.083790  
1459.000000	0.084872  
1458.000000	0.085857  
1457.000000	0.086034  
1456.000000	0.084833  
1455.000000	0.082814  
1454.000000	0.080520  
1453.000000	0.077936  
1452.000000	0.075099  
1451.000000	0.072305  
1450.000000	0.069746  
1449.000000	0.067196  
1448.000000	0.064364  
1447.000000	0.061310  
1446.000000	0.058195  
1445.000000	0.054963  
1444.000000	0.051475  
1443.000000	0.047789  
1442.000000	0.044158  
1441.000000	0.040836  
1440.000000	0.037907  
1439.000000	0.035199  
1438.000000	0.032336  
1437.000000	0.029118  
1436.000000	0.026084  
1435.000000	0.023855  
1434.000000	0.022207  
1433.000000	0.020622  
1432.000000	0.018933  
1431.000000	0.017254  
1430.000000	0.015705  
1429.000000	0.014340  
1428.000000	0.013271  
1427.000000	0.012550  
1426.000000	0.012016  
1425.000000	0.011475  
1424.000000	0.010900  
1423.000000	0.010387  
1422.000000	0.009946  
1421.000000	0.009518  
1420.000000	0.009114  
1419.000000	0.008777  
1418.000000	0.008512  
1417.000000	0.008293  
1416.000000	0.008151  
1415.000000	0.008118  
1414.000000	0.008127  
1413.000000	0.008080  
1412.000000	0.007955  
1411.000000	0.007778  
1410.000000	0.007568  
1409.000000	0.007371  
1408.000000	0.007286  
1407.000000	0.007349  
1406.000000	0.007429  
1405.000000	0.007397  
1404.000000	0.007318  
1403.000000	0.007336  
1402.000000	0.007438  
1401.000000	0.007517  
1400.000000	0.007543  
1399.000000	0.007566  
1398.000000	0.007617  
1397.000000	0.007705  
1396.000000	0.007889  
1395.000000	0.008190  
1394.000000	0.008532  
1393.000000	0.008897  
1392.000000	0.009389  
1391.000000	0.010102  
1390.000000	0.011093  
1389.000000	0.012509  
1388.000000	0.014593  
1387.000000	0.017348  
1386.000000	0.020383  
1385.000000	0.023385  
1384.000000	0.026456  
1383.000000	0.029880  
1382.000000	0.033829  
1381.000000	0.038241  
1380.000000	0.042736  
1379.000000	0.046543  
1378.000000	0.048813  
1377.000000	0.049120  
1376.000000	0.047498  
1375.000000	0.044215  
1374.000000	0.039904  
1373.000000	0.035558  
1372.000000	0.031925  
1371.000000	0.029215  
1370.000000	0.027381  
1369.000000	0.026347  
1368.000000	0.025894  
1367.000000	0.025591  
1366.000000	0.024985  
1365.000000	0.023809  
1364.000000	0.022029  
1363.000000	0.019871  
1362.000000	0.017770  
1361.000000	0.016102  
1360.000000	0.014961  
1359.000000	0.014216  
1358.000000	0.013690  
1357.000000	0.013281  
1356.000000	0.012992  
1355.000000	0.012851  
1354.000000	0.012830  
1353.000000	0.012848  
1352.000000	0.012843  
1351.000000	0.012806  
1350.000000	0.012747  
1349.000000	0.012663  
1348.000000	0.012539  
1347.000000	0.012357  
1346.000000	0.012142  
1345.000000	0.011975  
1344.000000	0.011941  
1343.000000	0.012040  
1342.000000	0.012176  
1341.000000	0.012235  
1340.000000	0.012155  
1339.000000	0.011929  
1338.000000	0.011583  
1337.000000	0.011174  
1336.000000	0.010783  
1335.000000	0.010461  
1334.000000	0.010196  
1333.000000	0.009953  
1332.000000	0.009731  
1331.000000	0.009546  
1330.000000	0.009383  
1329.000000	0.009211  
1328.000000	0.009029  
1327.000000	0.008869  
1326.000000	0.008743  
1325.000000	0.008646  
1324.000000	0.008576  
1323.000000	0.008541  
1322.000000	0.008536  
1321.000000	0.008547  
1320.000000	0.008568  
1319.000000	0.008598  
1318.000000	0.008620  
1317.000000	0.008620  
1316.000000	0.008622  
1315.000000	0.008669  
1314.000000	0.008774  
1313.000000	0.008907  
1312.000000	0.009031  
1311.000000	0.009138  
1310.000000	0.009243  
1309.000000	0.009363  
1308.000000	0.009507  
1307.000000	0.009661  
1306.000000	0.009786  
1305.000000	0.009845  
1304.000000	0.009824  
1303.000000	0.009738  
1302.000000	0.009616  
1301.000000	0.009496  
1300.000000	0.009418  
1299.000000	0.009385  
1298.000000	0.009360  
1297.000000	0.009296  
1296.000000	0.009177  
1295.000000	0.009015  
1294.000000	0.008823  
1293.000000	0.008619  
1292.000000	0.008439  
1291.000000	0.008317  
1290.000000	0.008251  
1289.000000	0.008205  
1288.000000	0.008146  
1287.000000	0.008073  
1286.000000	0.008008  
1285.000000	0.007970  
1284.000000	0.007956  
1283.000000	0.007940  
1282.000000	0.007897  
1281.000000	0.007830  
1280.000000	0.007765  
1279.000000	0.007719  
1278.000000	0.007689  
1277.000000	0.007670  
1276.000000	0.007669  
1275.000000	0.007697  
1274.000000	0.007749  
1273.000000	0.007812  
1272.000000	0.007861  
1271.000000	0.007863  
1270.000000	0.007800  
1269.000000	0.007702  
1268.000000	0.007629  
1267.000000	0.007590  
1266.000000	0.007532  
1265.000000	0.007407  
1264.000000	0.007238  
1263.000000	0.007100  
1262.000000	0.007043  
1261.000000	0.007056  
1260.000000	0.007095  
1259.000000	0.007112  
1258.000000	0.007079  
1257.000000	0.006995  
1256.000000	0.006874  
1255.000000	0.006738  
1254.000000	0.006632  
1253.000000	0.006619  
1252.000000	0.006727  
1251.000000	0.006873  
1250.000000	0.006914  
1249.000000	0.006788  
1248.000000	0.006586  
1247.000000	0.006438  
1246.000000	0.006385  
1245.000000	0.006378  
1244.000000	0.006366  
1243.000000	0.006337  
1242.000000	0.006291  
1241.000000	0.006231  
1240.000000	0.006176  
1239.000000	0.006142  
1238.000000	0.006109  
1237.000000	0.006048  
1236.000000	0.005975  
1235.000000	0.005932  
1234.000000	0.005923  
1233.000000	0.005908  
1232.000000	0.005849  
1231.000000	0.005751  
1230.000000	0.005642  
1229.000000	0.005553  
1228.000000	0.005511  
1227.000000	0.005525  
1226.000000	0.005560  
1225.000000	0.005570  
1224.000000	0.005549  
1223.000000	0.005536  
1222.000000	0.005549  
1221.000000	0.005555  
1220.000000	0.005513  
1219.000000	0.005440  
1218.000000	0.005403  
1217.000000	0.005446  
1216.000000	0.005549  
1215.000000	0.005642  
1214.000000	0.005660  
1213.000000	0.005596  
1212.000000	0.005500  
1211.000000	0.005444  
1210.000000	0.005461  
1209.000000	0.005519  
1208.000000	0.005550  
1207.000000	0.005522  
1206.000000	0.005466  
1205.000000	0.005434  
1204.000000	0.005433  
1203.000000	0.005421  
1202.000000	0.005364  
1201.000000	0.005282  
1200.000000	0.005222  
1199.000000	0.005206  
1198.000000	0.005226  
1197.000000	0.005271  
1196.000000	0.005332  
1195.000000	0.005389  
1194.000000	0.005435  
1193.000000	0.005494  
1192.000000	0.005579  
1191.000000	0.005652  
1190.000000	0.005653  
1189.000000	0.005579  
1188.000000	0.005488  
1187.000000	0.005427  
1186.000000	0.005387  
1185.000000	0.005362  
1184.000000	0.005377  
1183.000000	0.005459  
1182.000000	0.005595  
1181.000000	0.005740  
1180.000000	0.005858  
1179.000000	0.005931  
1178.000000	0.005965  
1177.000000	0.006011  
1176.000000	0.006133  
1175.000000	0.006335  
1174.000000	0.006558  
1173.000000	0.006756  
1172.000000	0.006944  
1171.000000	0.007140  
1170.000000	0.007300  
1169.000000	0.007360  
1168.000000	0.007314  
1167.000000	0.007225  
1166.000000	0.007157  
1165.000000	0.007124  
1164.000000	0.007084  
1163.000000	0.006995  
1162.000000	0.006872  
1161.000000	0.006805  
1160.000000	0.006884  
1159.000000	0.007091  
1158.000000	0.007308  
1157.000000	0.007442  
1156.000000	0.007495  
1155.000000	0.007495  
1154.000000	0.007423  
1153.000000	0.007256  
1152.000000	0.007038  
1151.000000	0.006858  
1150.000000	0.006776  
1149.000000	0.006797  
1148.000000	0.006891  
1147.000000	0.006999  
1146.000000	0.007039  
1145.000000	0.006962  
1144.000000	0.006794  
1143.000000	0.006597  
1142.000000	0.006407  
1141.000000	0.006231  
1140.000000	0.006081  
1139.000000	0.005981  
1138.000000	0.005945  
1137.000000	0.005969  
1136.000000	0.006026  
1135.000000	0.006049  
1134.000000	0.005960  
1133.000000	0.005769  
1132.000000	0.005587  
1131.000000	0.005512  
1130.000000	0.005538  
1129.000000	0.005600  
1128.000000	0.005669  
1127.000000	0.005743  
1126.000000	0.005792  
1125.000000	0.005775  
1124.000000	0.005714  
1123.000000	0.005669  
1122.000000	0.005653  
1121.000000	0.005636  
1120.000000	0.005606  
1119.000000	0.005585  
1118.000000	0.005581  
1117.000000	0.005591  
1116.000000	0.005628  
1115.000000	0.005708  
1114.000000	0.005798  
1113.000000	0.005846  
1112.000000	0.005837  
1111.000000	0.005796  
1110.000000	0.005711  
1109.000000	0.005559  
1108.000000	0.005389  
1107.000000	0.005317  
1106.000000	0.005399  
1105.000000	0.005550  
1104.000000	0.005631  
1103.000000	0.005587  
1102.000000	0.005478  
1101.000000	0.005416  
1100.000000	0.005467  
1099.000000	0.005607  
1098.000000	0.005744  
1097.000000	0.005828  
1096.000000	0.005902  
1095.000000	0.006029  
1094.000000	0.006178  
1093.000000	0.006248  
1092.000000	0.006202  
1091.000000	0.006102  
1090.000000	0.006004  
1089.000000	0.005887  
1088.000000	0.005726  
1087.000000	0.005567  
1086.000000	0.005491  
1085.000000	0.005519  
1084.000000	0.005603  
1083.000000	0.005680  
1082.000000	0.005703  
1081.000000	0.005660  
1080.000000	0.005603  
1079.000000	0.005624  
1078.000000	0.005774  
1077.000000	0.006011  
1076.000000	0.006258  
1075.000000	0.006478  
1074.000000	0.006672  
1073.000000	0.006822  
1072.000000	0.006892  
1071.000000	0.006876  
1070.000000	0.006815  
1069.000000	0.006756  
1068.000000	0.006712  
1067.000000	0.006667  
1066.000000	0.006598  
1065.000000	0.006509  
1064.000000	0.006440  
1063.000000	0.006420  
1062.000000	0.006430  
1061.000000	0.006417  
1060.000000	0.006371  
1059.000000	0.006343  
1058.000000	0.006388  
1057.000000	0.006512  
1056.000000	0.006694  
1055.000000	0.006913  
1054.000000	0.007102  
1053.000000	0.007123  
1052.000000	0.006878  
1051.000000	0.006469  
1050.000000	0.006171  
1049.000000	0.006168  
1048.000000	0.006371  
1047.000000	0.006544  
1046.000000	0.006548  
1045.000000	0.006429  
1044.000000	0.006323  
1043.000000	0.006338  
1042.000000	0.006492  
1041.000000	0.006720  
1040.000000	0.006914  
1039.000000	0.006995  
1038.000000	0.006961  
1037.000000	0.006866  
1036.000000	0.006776  
1035.000000	0.006742  
1034.000000	0.006807  
1033.000000	0.006979  
1032.000000	0.007194  
1031.000000	0.007349  
1030.000000	0.007392  
1029.000000	0.007364  
1028.000000	0.007332  
1027.000000	0.007313  
1026.000000	0.007281  
1025.000000	0.007221  
1024.000000	0.007148  
1023.000000	0.007081  
1022.000000	0.007036  
1021.000000	0.007030  
1020.000000	0.007065  
1019.000000	0.007102  
1018.000000	0.007097  
1017.000000	0.007060  
1016.000000	0.007053  
1015.000000	0.007109  
1014.000000	0.007186  
1013.000000	0.007216  
1012.000000	0.007170  
1011.000000	0.007081  
1010.000000	0.007013  
1009.000000	0.007015  
1008.000000	0.007080  
1007.000000	0.007148  
1006.000000	0.007157  
1005.000000	0.007112  
1004.000000	0.007079  
1003.000000	0.007108  
1002.000000	0.007183  
1001.000000	0.007245  
1000.000000	0.007225  
999.000000	 0.007070  
998.000000	 0.006795  
997.000000	 0.006507  
996.000000	 0.006359  
995.000000	 0.006417  
994.000000	 0.006598  
993.000000	 0.006757  
992.000000	 0.006813  
991.000000	 0.006796  
990.000000	 0.006793  
989.000000	 0.006869  
988.000000	 0.007023  
987.000000	 0.007169  
986.000000	 0.007213  
985.000000	 0.007146  
984.000000	 0.007064  
983.000000	 0.007063  
982.000000	 0.007145  
981.000000	 0.007256  
980.000000	 0.007377  
979.000000	 0.007529  
978.000000	 0.007712  
977.000000	 0.007890  
976.000000	 0.008030  
975.000000	 0.008123  
974.000000	 0.008176  
973.000000	 0.008208  
972.000000	 0.008255  
971.000000	 0.008346  
970.000000	 0.008466  
969.000000	 0.008574  
968.000000	 0.008649  
967.000000	 0.008686  
966.000000	 0.008662  
965.000000	 0.008555  
964.000000	 0.008388  
963.000000	 0.008238  
962.000000	 0.008170  
961.000000	 0.008187  
960.000000	 0.008243  
959.000000	 0.008287  
958.000000	 0.008291  
957.000000	 0.008262  
956.000000	 0.008242  
955.000000	 0.008261  
954.000000	 0.008297  
953.000000	 0.008297  
952.000000	 0.008250  
951.000000	 0.008195  
950.000000	 0.008173  
949.000000	 0.008180  
948.000000	 0.008190  
947.000000	 0.008201  
946.000000	 0.008246  
945.000000	 0.008353  
944.000000	 0.008512  
943.000000	 0.008673  
942.000000	 0.008778  
941.000000	 0.008796  
940.000000	 0.008730  
939.000000	 0.008589  
938.000000	 0.008376  
937.000000	 0.008116  
936.000000	 0.007881  
935.000000	 0.007733  
934.000000	 0.007686  
933.000000	 0.007729  
932.000000	 0.007850  
931.000000	 0.008006  
930.000000	 0.008080  
929.000000	 0.007974  
928.000000	 0.007745  
927.000000	 0.007584  
926.000000	 0.007617  
925.000000	 0.007785  
924.000000	 0.007944  
923.000000	 0.008034  
922.000000	 0.008093  
921.000000	 0.008137  
920.000000	 0.008116  
919.000000	 0.007992  
918.000000	 0.007816  
917.000000	 0.007695  
916.000000	 0.007699  
915.000000	 0.007800  
914.000000	 0.007900  
913.000000	 0.007898  
912.000000	 0.007764  
911.000000	 0.007562  
910.000000	 0.007409  
909.000000	 0.007393  
908.000000	 0.007511  
907.000000	 0.007663  
906.000000	 0.007727  
905.000000	 0.007662  
904.000000	 0.007549  
903.000000	 0.007522  
902.000000	 0.007636  
901.000000	 0.007823  
900.000000	 0.007985  
899.000000	 0.008097  
898.000000	 0.008216  
897.000000	 0.008385  
896.000000	 0.008568  
895.000000	 0.008688  
894.000000	 0.008702  
893.000000	 0.008643  
892.000000	 0.008591  
891.000000	 0.008607  
890.000000	 0.008687  
889.000000	 0.008768  
888.000000	 0.008781  
887.000000	 0.008707  
886.000000	 0.008584  
885.000000	 0.008464  
884.000000	 0.008368  
883.000000	 0.008288  
882.000000	 0.008223  
881.000000	 0.008201  
880.000000	 0.008254  
879.000000	 0.008372  
878.000000	 0.008498  
877.000000	 0.008563  
876.000000	 0.008541  
875.000000	 0.008445  
874.000000	 0.008300  
873.000000	 0.008105  
872.000000	 0.007851  
871.000000	 0.007586  
870.000000	 0.007444  
869.000000	 0.007551  
868.000000	 0.007876  
867.000000	 0.008206  
866.000000	 0.008317  
865.000000	 0.008168  
864.000000	 0.007913  
863.000000	 0.007711  
862.000000	 0.007596  
861.000000	 0.007535  
860.000000	 0.007541  
859.000000	 0.007648  
858.000000	 0.007821  
857.000000	 0.007969  
856.000000	 0.008070  
855.000000	 0.008215  
854.000000	 0.008496  
853.000000	 0.008880  
852.000000	 0.009235  
851.000000	 0.009457  
850.000000	 0.009530  
849.000000	 0.009495  
848.000000	 0.009387  
847.000000	 0.009233  
846.000000	 0.009064  
845.000000	 0.008920  
844.000000	 0.008815  
843.000000	 0.008730  
842.000000	 0.008632  
841.000000	 0.008510  
840.000000	 0.008395  
839.000000	 0.008345  
838.000000	 0.008394  
837.000000	 0.008500  
836.000000	 0.008531  
835.000000	 0.008351  
834.000000	 0.007961  
833.000000	 0.007550  
832.000000	 0.007353  
831.000000	 0.007429  
830.000000	 0.007604  
829.000000	 0.007670  
828.000000	 0.007615  
827.000000	 0.007624  
826.000000	 0.007857  
825.000000	 0.008270  
824.000000	 0.008671  
823.000000	 0.008877  
822.000000	 0.008845  
821.000000	 0.008692  
820.000000	 0.008629  
819.000000	 0.008825  
818.000000	 0.009292  
817.000000	 0.009872  
816.000000	 0.010351  
815.000000	 0.010572  
814.000000	 0.010495  
813.000000	 0.010212  
812.000000	 0.009913  
811.000000	 0.009799  
810.000000	 0.009971  
809.000000	 0.010374  
808.000000	 0.010858  
807.000000	 0.011284  
806.000000	 0.011563  
805.000000	 0.011644  
804.000000	 0.011497  
803.000000	 0.011135  
802.000000	 0.010636  
801.000000	 0.010113  
800.000000	 0.009653  
799.000000	 0.009271  
798.000000	 0.008951  
797.000000	 0.008700  
796.000000	 0.008549  
795.000000	 0.008485  
794.000000	 0.008419  
793.000000	 0.008288  
792.000000	 0.008148  
791.000000	 0.008120  
790.000000	 0.008228  
789.000000	 0.008347  
788.000000	 0.008351  
787.000000	 0.008284  
786.000000	 0.008323  
785.000000	 0.008584  
784.000000	 0.009005  
783.000000	 0.009436  
782.000000	 0.009803  
781.000000	 0.010139  
780.000000	 0.010492  
779.000000	 0.010844  
778.000000	 0.011145  
777.000000	 0.011395  
776.000000	 0.011644  
775.000000	 0.011930  
774.000000	 0.012234  
773.000000	 0.012530  
772.000000	 0.012828  
771.000000	 0.013151  
770.000000	 0.013474  
769.000000	 0.013738  
768.000000	 0.013901  
767.000000	 0.013957  
766.000000	 0.013879  
765.000000	 0.013602  
764.000000	 0.013103  
763.000000	 0.012511  
762.000000	 0.012056  
761.000000	 0.011874  
760.000000	 0.011885  
759.000000	 0.011898  
758.000000	 0.011841  
757.000000	 0.011826  
756.000000	 0.011981  
755.000000	 0.012275  
754.000000	 0.012554  
753.000000	 0.012714  
752.000000	 0.012770  
751.000000	 0.012784  
750.000000	 0.012798  
749.000000	 0.012862  
748.000000	 0.013063  
747.000000	 0.013493  
746.000000	 0.014232  
745.000000	 0.015356  
744.000000	 0.016859  
743.000000	 0.018511  
742.000000	 0.019856  
741.000000	 0.020482  
740.000000	 0.020338  
739.000000	 0.019741  
738.000000	 0.019069  
737.000000	 0.018494  
736.000000	 0.017996  
735.000000	 0.017533  
734.000000	 0.017140  
733.000000	 0.016894  
732.000000	 0.016841  
731.000000	 0.016965  
730.000000	 0.017225  
729.000000	 0.017640  
728.000000	 0.018308  
727.000000	 0.019303  
726.000000	 0.020551  
725.000000	 0.021822  
724.000000	 0.022872  
723.000000	 0.023533  
722.000000	 0.023669  
721.000000	 0.023124  
720.000000	 0.021841  
719.000000	 0.020022  
718.000000	 0.018042  
717.000000	 0.016240  
716.000000	 0.014797  
715.000000	 0.013728  
714.000000	 0.012903  
713.000000	 0.012135  
712.000000	 0.011351  
711.000000	 0.010653  
710.000000	 0.010187  
709.000000	 0.009964  
708.000000	 0.009857  
707.000000	 0.009762  
706.000000	 0.009730  
705.000000	 0.009913  
704.000000	 0.010369  
703.000000	 0.010954  
702.000000	 0.011431  
701.000000	 0.011692  
700.000000	 0.011843  
699.000000	 0.011997  
698.000000	 0.012030  
697.000000	 0.011664  
696.000000	 0.010855  
695.000000	 0.009984  
694.000000	 0.009496  
693.000000	 0.009357  
692.000000	 0.009057  
691.000000	 0.008212  
690.000000	 0.007048  
689.000000	 0.006155  
688.000000	 0.005787  
687.000000	 0.005625  
686.000000	 0.005300  
685.000000	 0.004876  
684.000000	 0.004662  
683.000000	 0.004775  
682.000000	 0.005088  
681.000000	 0.005449  
680.000000	 0.005747  
679.000000	 0.005854  
678.000000	 0.005700  
677.000000	 0.005403  
676.000000	 0.005162  
675.000000	 0.004975  
674.000000	 0.004704  
673.000000	 0.004421  
672.000000	 0.004312  
671.000000	 0.004169  
670.000000	 0.003449  
669.000000	 0.001787  
668.000000	 -0.000399 
667.000000	 -0.001440 
666.000000	 -0.000378 
665.000000	 0.001603  
664.000000	 0.003190  
663.000000	 0.004185  
662.000000	 0.004733  
661.000000	 0.004831  
660.000000	 0.004580  
659.000000	 0.004402  
658.000000	 0.004537  
657.000000	 0.004640  
656.000000	 0.004198  
655.000000	 0.003251  
654.000000	 0.002429  
653.000000	 0.002309  
652.000000	 0.002853  
651.000000	 0.003516  
650.000000	 0.003816  

